# Matter power spectrum P(k) at redshift z=0
# for k=1.04775e-05 to 134.926 h/Mpc,
# number of wavenumbers equal to 255
#    1:k (h/Mpc)              2:P (Mpc/h)^3        
       1.047750691338e-05       5.020963906804e+01 
       1.131335172818e-05       5.407048937153e+01 
       1.221587619877e-05       5.822820724030e+01 
       1.319039970550e-05       6.270562047281e+01 
       1.424266598317e-05       6.752731476099e+01 
       1.537887697396e-05       7.271975715396e+01 
       1.660572938097e-05       7.831147101243e+01 
       1.793045413791e-05       8.433312302133e+01 
       1.936085902737e-05       9.081780130647e+01 
       2.090537469909e-05       9.780107453355e+01 
       2.257310435923e-05       1.053212938596e+02 
       2.437387742372e-05       1.134197268469e+02 
       2.631830745176e-05       1.221408285642e+02 
       2.841785470091e-05       1.315324590474e+02 
       3.068489367268e-05       1.416461671266e+02 
       3.313278604643e-05       1.525374479366e+02 
       3.577595943165e-05       1.642660516781e+02 
       3.862999240274e-05       1.768963429329e+02 
       4.171170631739e-05       1.904975997813e+02 
       4.503926445983e-05       2.051444243234e+02 
       4.863227909323e-05       2.209171412046e+02 
       5.251192705226e-05       2.379022266163e+02 
       5.670107455699e-05       2.561927841261e+02 
       6.122441198393e-05       2.758890480555e+02 
       6.610859938837e-05       2.970989214022e+02 
       7.138242363583e-05       3.199385559930e+02 
       7.707696806873e-05       3.445329727006e+02 
       8.322579570814e-05       3.710167323998e+02 
       8.986514707061e-05       3.995346444127e+02 
       9.703415376577e-05       4.302425389349e+02 
       1.047750691338e-04       4.633080773458e+02 
       1.131335172818e-04       4.989116273802e+02 
       1.221587619877e-04       5.372471938791e+02 
       1.319039970550e-04       5.785234116827e+02 
       1.424266598317e-04       6.229645933164e+02 
       1.537887697396e-04       6.708118487496e+02 
       1.660572938097e-04       7.223242657750e+02 
       1.793045413791e-04       7.777801571205e+02 
       1.936085902737e-04       8.374783638364e+02 
       2.090537469909e-04       9.017396276603e+02 
       2.257310435923e-04       9.709080297651e+02 
       2.437387742372e-04       1.045352453375e+03 
       2.631830745176e-04       1.125468127721e+03 
       2.841785470091e-04       1.211678185928e+03 
       3.068489367268e-04       1.304435256065e+03 
       3.313278604643e-04       1.404223062922e+03 
       3.577595943165e-04       1.511558029577e+03 
       3.862999240274e-04       1.626990852555e+03 
       4.171170631739e-04       1.751108045602e+03 
       4.503926445983e-04       1.884533404754e+03 
       4.863227909323e-04       2.027929406956e+03 
       5.251192705226e-04       2.181998483912e+03 
       5.670107455699e-04       2.347484146066e+03 
       6.122441198393e-04       2.525171925194e+03 
       6.610859938837e-04       2.715890054976e+03 
       7.138242363583e-04       2.920509779317e+03 
       7.707696806873e-04       3.139945208046e+03 
       8.322579570814e-04       3.375152477010e+03 
       8.986514707061e-04       3.627128020450e+03 
       9.703415376577e-04       3.896905669494e+03 
       1.047750691338e-03       4.185552452589e+03 
       1.131335172818e-03       4.494162775534e+03 
       1.221587619877e-03       4.823851150540e+03 
       1.319039970550e-03       5.175743278633e+03 
       1.424266598317e-03       5.551020298569e+03 
       1.537887697396e-03       5.950789185266e+03 
       1.660572938097e-03       6.376124149812e+03 
       1.793045413791e-03       6.828075236240e+03 
       1.936085902737e-03       7.307627050550e+03 
       2.090537469909e-03       7.815673958332e+03 
       2.257310435923e-03       8.352992921948e+03 
       2.437387742372e-03       8.920214304850e+03 
       2.631830745176e-03       9.517787164600e+03 
       2.841785470091e-03       1.014594130374e+04 
       3.068489367268e-03       1.080465136059e+04 
       3.313278604643e-03       1.149358238918e+04 
       3.577595943165e-03       1.221204586026e+04 
       3.862999240274e-03       1.295893665331e+04 
       4.171170631739e-03       1.373267337003e+04 
       4.503926445983e-03       1.453113497796e+04 
       4.863227909323e-03       1.535157112150e+04 
       5.251192705226e-03       1.619066150667e+04 
       5.670107455699e-03       1.704433875561e+04 
       6.122441198393e-03       1.790758117494e+04 
       6.610859938837e-03       1.877462059009e+04 
       7.138242363583e-03       1.963874763748e+04 
       7.707696806873e-03       2.049217357112e+04 
       8.322579570814e-03       2.132608701329e+04 
       8.986514707061e-03       2.213056861736e+04 
       9.703415376577e-03       2.289447291636e+04 
       1.047750691338e-02       2.360549470666e+04 
       1.131335172818e-02       2.425024159694e+04 
       1.221587619877e-02       2.481424607087e+04 
       1.319039970550e-02       2.528219849493e+04 
       1.424266598317e-02       2.563814900335e+04 
       1.537887697392e-02       2.586607365198e+04 
       1.660572938023e-02       2.595026770422e+04 
       1.793045412706e-02       2.587635156575e+04 
       1.936085890181e-02       2.563219211799e+04 
       2.090537352463e-02       2.520935638212e+04 
       2.257309535333e-02       2.460444636068e+04 
       2.437382002918e-02       2.382088190228e+04 
       2.631799944462e-02       2.287043629474e+04 
       2.841644545389e-02       2.177448235863e+04 
       3.067933355377e-02       2.056554943206e+04 
       3.311368470740e-02       1.928727317845e+04 
       3.571840443502e-02       1.799399363204e+04 
       3.847720348444e-02       1.674681536487e+04 
       4.135335538431e-02       1.560455963964e+04 
       4.429361667738e-02       1.461033566267e+04 
       4.724366439141e-02       1.378051076957e+04 
       5.016480835311e-02       1.310500115786e+04 
       5.303989620246e-02       1.255712173607e+04 
       5.586870669566e-02       1.210417258277e+04 
       5.866042680613e-02       1.171458498767e+04 
       6.142798932958e-02       1.136039737228e+04 
       6.418496440164e-02       1.101847407008e+04 
       6.694418833788e-02       1.067061282435e+04 
       6.971731106057e-02       1.030347573080e+04 
       7.251476155766e-02       9.908922193979e+03 
       7.534587671527e-02       9.483639348444e+03 
       7.821907666265e-02       9.029403102718e+03 
       8.114203772912e-02       8.552213935982e+03 
       8.412184535029e-02       8.061794413491e+03 
       8.716512279304e-02       7.570661569547e+03 
       9.027813695930e-02       7.092385754119e+03 
       9.346688431697e-02       6.640416141855e+03 
       9.673716028276e-02       6.226600532104e+03 
       1.000946150830e-01       5.859823608187e+03 
       1.035447986537e-01       5.545177346808e+03 
       1.070931966762e-01       5.283028091719e+03 
       1.107452594425e-01       5.069311118426e+03 
       1.145064249153e-01       4.895133261272e+03 
       1.183821370918e-01       4.747718124974e+03 
       1.223778605862e-01       4.611595299276e+03 
       1.264990921987e-01       4.470467668250e+03 
       1.307513701367e-01       4.310121185165e+03 
       1.351402814784e-01       4.121231953722e+03 
       1.396714684203e-01       3.901917287820e+03 
       1.443506338194e-01       3.658513835981e+03 
       1.491835465229e-01       3.404353390006e+03 
       1.541760469708e-01       3.156526717484e+03 
       1.593340535561e-01       2.931813015974e+03 
       1.646635702297e-01       2.742227584719e+03 
       1.701706958456e-01       2.592104861279e+03 
       1.758616357459e-01       2.477089435300e+03 
       1.817427160982e-01       2.385027878722e+03 
       1.878204015065e-01       2.300210019642e+03 
       1.941013164283e-01       2.205599738135e+03 
       2.005922709503e-01       2.090663918702e+03 
       2.073002914972e-01       1.956306832413e+03 
       2.142326570816e-01       1.814036210724e+03 
       2.213969417533e-01       1.679126366323e+03 
       2.288010639706e-01       1.563688949051e+03 
       2.364533437147e-01       1.472528679811e+03 
       2.443625682930e-01       1.401365137328e+03 
       2.525380679504e-01       1.338257233544e+03 
       2.609898026346e-01       1.270743503963e+03 
       2.697284615565e-01       1.193230297098e+03 
       2.787655775689e-01       1.109185501584e+03 
       2.881136588829e-01       1.028615173003e+03 
       2.977863412677e-01       9.603273016535e+02 
       3.077985646929e-01       9.048694764636e+02 
       3.181667794071e-01       8.559922947382e+02 
       3.289091877812e-01       8.060356367899e+02 
       3.400460299658e-01       7.522407203900e+02 
       3.515999236474e-01       6.987720559243e+02 
       3.635962711085e-01       6.509162110533e+02 
       3.760637506334e-01       6.099742124144e+02 
       3.890349143879e-01       5.719859241870e+02 
       4.025469216825e-01       5.336369884264e+02 
       4.166424456376e-01       4.954889197497e+02 
       4.313708035863e-01       4.603259853058e+02 
       4.467893782977e-01       4.286363291282e+02 
       4.629654199664e-01       3.986338328060e+02 
       4.799783501994e-01       3.691045961154e+02 
       4.979227319373e-01       3.411042838838e+02 
       5.169121270864e-01       3.153501153636e+02 
       5.370841404489e-01       2.907041394690e+02 
       5.586070464571e-01       2.669759608340e+02 
       5.816885094930e-01       2.446823744864e+02 
       6.065870144995e-01       2.234426032977e+02 
       6.336266468475e-01       2.030874425274e+02 
       6.632156059511e-01       1.837580612808e+02 
       6.958678639263e-01       1.652371610604e+02 
       7.322247985589e-01       1.475810045667e+02 
       7.730680195114e-01       1.307221904464e+02 
       8.193049553677e-01       1.147226905183e+02 
       8.718988016039e-01       9.965755509378e+01 
       9.317218031082e-01       8.567639477003e+01 
       9.993660908989e-01       7.295717388675e+01 
       1.075037110174e+00       6.164220420371e+01 
       1.158653485707e+00       5.178920040569e+01 
       1.250099157308e+00       4.335444546397e+01 
       1.349432401273e+00       3.620747487918e+01 
       1.456947457397e+00       3.018995352494e+01 
       1.573135111331e+00       2.514006232394e+01 
       1.698621895592e+00       2.091114643619e+01 
       1.834127512934e+00       1.737493737718e+01 
       1.980444934528e+00       1.442166234391e+01 
       2.138435191726e+00       1.195793874443e+01 
       2.309029199186e+00       9.905350397422e+00 
       2.493232377687e+00       8.196970468007e+00 
       2.692130395285e+00       6.776600556918e+00 
       2.906895534573e+00       5.596913635702e+00 
       3.138793597714e+00       4.618173061346e+00 
       3.389191366484e+00       3.806882737215e+00 
       3.659564657905e+00       3.135083391696e+00 
       3.951507022538e+00       2.579286303252e+00 
       4.266739136701e+00       2.119910648536e+00 
       4.607118943941e+00       1.740546382977e+00 
       4.974652605557e+00       1.427560638253e+00 
       5.371506324689e+00       1.169567959307e+00 
       5.800019113685e+00       9.570912164374e-01 
       6.262716579983e+00       7.822583024806e-01 
       6.762325811764e+00       6.385306343128e-01 
       7.301791451110e+00       5.204834317487e-01 
       7.884293049406e+00       4.236197300727e-01 
       8.513263807261e+00       3.442199957826e-01 
       9.192410809424e+00       2.791972079391e-01 
       9.925736873929e+00       2.260123073829e-01 
       1.071756414427e+01       1.825535236880e-01 
       1.157255956364e+01       1.470921013293e-01 
       1.249576238137e+01       1.181936002915e-01 
       1.349261385375e+01       9.467999520059e-02 
       1.456898931416e+01       7.558099116344e-02 
       1.573123280165e+01       6.009708336587e-02 
       1.698619445202e+01       4.757138638864e-02 
       1.834127087176e+01       3.746421734892e-02 
       1.980444873285e+01       2.933291827768e-02 
       2.138435184532e+01       2.281281515458e-02 
       2.309029198506e+01       1.760561483222e-02 
       2.493232377636e+01       1.346639465067e-02 
       2.692130395282e+01       1.019459328951e-02 
       2.906895534573e+01       7.625360295420e-03 
       3.138793597714e+01       5.623810778392e-03 
       3.389191366484e+01       4.079163263841e-03 
       3.659564657905e+01       2.901015042674e-03 
       3.951507022538e+01       2.014674351370e-03 
       4.266739136701e+01       1.359118707842e-03 
       4.607118943941e+01       8.844941242530e-04 
       4.974652605557e+01       5.498306195589e-04 
       5.371506324689e+01       3.217762342054e-04 
       5.800019113685e+01       1.731997827465e-04 
       6.262716579983e+01       8.230131342501e-05 
       6.762325811764e+01       3.169689980390e-05 
       7.301791451110e+01       7.806255414057e-06 
       7.884293049406e+01       2.706801946419e-07 
       8.513263807261e+01       1.518853402433e-06 
       9.192410809424e+01       6.296028225259e-06 
       9.925736873929e+01       1.127668726108e-05 
       1.071756414427e+02       1.467363544136e-05 
       1.157255956364e+02       1.584851866550e-05 
       1.249576238137e+02       1.495241275980e-05 
       1.349261385375e+02       1.258275803773e-05 
