# Matter power spectrum P(k) at redshift z=0
# for k=1.04775e-05 to 134.926 h/Mpc,
# number of wavenumbers equal to 255
#    1:k (h/Mpc)              2:P (Mpc/h)^3        
       1.047750691338e-05       5.020963906804e+01 
       1.131335172818e-05       5.407048937148e+01 
       1.221587619877e-05       5.822820724029e+01 
       1.319039970550e-05       6.270562047253e+01 
       1.424266598317e-05       6.752731476098e+01 
       1.537887697396e-05       7.271975715395e+01 
       1.660572938097e-05       7.831147101246e+01 
       1.793045413791e-05       8.433312302135e+01 
       1.936085902737e-05       9.081780130646e+01 
       2.090537469909e-05       9.780107449917e+01 
       2.257310435923e-05       1.053212938596e+02 
       2.437387742372e-05       1.134197268469e+02 
       2.631830745176e-05       1.221408285627e+02 
       2.841785470091e-05       1.315324590474e+02 
       3.068489367268e-05       1.416461671353e+02 
       3.313278604643e-05       1.525374478915e+02 
       3.577595943165e-05       1.642660517175e+02 
       3.862999240274e-05       1.768963429370e+02 
       4.171170631739e-05       1.904975997819e+02 
       4.503926445983e-05       2.051444243234e+02 
       4.863227909323e-05       2.209171412049e+02 
       5.251192705226e-05       2.379022266149e+02 
       5.670107455699e-05       2.561927841243e+02 
       6.122441198393e-05       2.758890479826e+02 
       6.610859938837e-05       2.970989213987e+02 
       7.138242363583e-05       3.199385559930e+02 
       7.707696806873e-05       3.445329727006e+02 
       8.322579570814e-05       3.710167324009e+02 
       8.986514707061e-05       3.995346444122e+02 
       9.703415376577e-05       4.302425389349e+02 
       1.047750691338e-04       4.633080773458e+02 
       1.131335172818e-04       4.989116271597e+02 
       1.221587619877e-04       5.372471938794e+02 
       1.319039970550e-04       5.785234116874e+02 
       1.424266598317e-04       6.229645933136e+02 
       1.537887697396e-04       6.708118487508e+02 
       1.660572938097e-04       7.223242657762e+02 
       1.793045413791e-04       7.777801571260e+02 
       1.936085902737e-04       8.374783638365e+02 
       2.090537469909e-04       9.017396276673e+02 
       2.257310435923e-04       9.709080297651e+02 
       2.437387742372e-04       1.045352453376e+03 
       2.631830745176e-04       1.125468127721e+03 
       2.841785470091e-04       1.211678185928e+03 
       3.068489367268e-04       1.304435256065e+03 
       3.313278604643e-04       1.404223062921e+03 
       3.577595943165e-04       1.511558029577e+03 
       3.862999240274e-04       1.626990852555e+03 
       4.171170631739e-04       1.751108045602e+03 
       4.503926445983e-04       1.884533404755e+03 
       4.863227909323e-04       2.027929406956e+03 
       5.251192705226e-04       2.181998483913e+03 
       5.670107455699e-04       2.347484146066e+03 
       6.122441198393e-04       2.525171925195e+03 
       6.610859938837e-04       2.715890054978e+03 
       7.138242363583e-04       2.920509779320e+03 
       7.707696806873e-04       3.139945208050e+03 
       8.322579570814e-04       3.375152477017e+03 
       8.986514707061e-04       3.627128020460e+03 
       9.703415376577e-04       3.896905669502e+03 
       1.047750691338e-03       4.185552452609e+03 
       1.131335172818e-03       4.494162775563e+03 
       1.221587619877e-03       4.823851150582e+03 
       1.319039970550e-03       5.175743278693e+03 
       1.424266598317e-03       5.551020298657e+03 
       1.537887697396e-03       5.950789185396e+03 
       1.660572938097e-03       6.376124150003e+03 
       1.793045413791e-03       6.828075236520e+03 
       1.936085902737e-03       7.307627050957e+03 
       2.090537469909e-03       7.815673958919e+03 
       2.257310435923e-03       8.352992922792e+03 
       2.437387742372e-03       8.920214306078e+03 
       2.631830745176e-03       9.517787166317e+03 
       2.841785470091e-03       1.014594130618e+04 
       3.068489367268e-03       1.080465136403e+04 
       3.313278604643e-03       1.149358239401e+04 
       3.577595943165e-03       1.221204586703e+04 
       3.862999240274e-03       1.295893666277e+04 
       4.171170631739e-03       1.373267338317e+04 
       4.503926445983e-03       1.453113499616e+04 
       4.863227909323e-03       1.535157114607e+04 
       5.251192705226e-03       1.619066153774e+04 
       5.670107455699e-03       1.704433880282e+04 
       6.122441198393e-03       1.790758124159e+04 
       6.610859938837e-03       1.877461995451e+04 
       7.138242363583e-03       1.963874649935e+04 
       7.707696806873e-03       2.049217382424e+04 
       8.322579570814e-03       2.132608081893e+04 
       8.986514707061e-03       2.213056637602e+04 
       9.703415376577e-03       2.289447297839e+04 
       1.047750691338e-02       2.360549517457e+04 
       1.131335172818e-02       2.425024103277e+04 
       1.221587619877e-02       2.481424692457e+04 
       1.319039970550e-02       2.528219979633e+04 
       1.424266598317e-02       2.563815093686e+04 
       1.537887697392e-02       2.586607626954e+04 
       1.660572938023e-02       2.595027030877e+04 
       1.793045412706e-02       2.587635485489e+04 
       1.936085890181e-02       2.563219606790e+04 
       2.090537352463e-02       2.520936518754e+04 
       2.257309535333e-02       2.460445337557e+04 
       2.437382002918e-02       2.382089080265e+04 
       2.631799944462e-02       2.287044701946e+04 
       2.841644545389e-02       2.177449615739e+04 
       3.067933355377e-02       2.056556493916e+04 
       3.311368470740e-02       1.928731147960e+04 
       3.571840443502e-02       1.799401600907e+04 
       3.847720348444e-02       1.674684212847e+04 
       4.135335538431e-02       1.560459203595e+04 
       4.429361667738e-02       1.461037169216e+04 
       4.724366439141e-02       1.378055210415e+04 
       5.016480835311e-02       1.310504631188e+04 
       5.303989620246e-02       1.255717154305e+04 
       5.586870669566e-02       1.210422321991e+04 
       5.866042680613e-02       1.171464394711e+04 
       6.142798932958e-02       1.136045407118e+04 
       6.418496440164e-02       1.101853942569e+04 
       6.694418833788e-02       1.067067257735e+04 
       6.971731106057e-02       1.030354718685e+04 
       7.251476155766e-02       9.908996283177e+03 
       7.534587671527e-02       9.483731861904e+03 
       7.821907666265e-02       9.029482112029e+03 
       8.114203772912e-02       8.552292048549e+03 
       8.412184535029e-02       8.061888520876e+03 
       8.716512279304e-02       7.570725326956e+03 
       9.027813695930e-02       7.092453218160e+03 
       9.346688431697e-02       6.640501993929e+03 
       9.673716028276e-02       6.226686747390e+03 
       1.000946150830e-01       5.859910925370e+03 
       1.035447986537e-01       5.545254040385e+03 
       1.070931966762e-01       5.283117359431e+03 
       1.107452594425e-01       5.069401010876e+03 
       1.145064249153e-01       4.895224066834e+03 
       1.183821370918e-01       4.747818320978e+03 
       1.223778605862e-01       4.611696403184e+03 
       1.264990921987e-01       4.470583306787e+03 
       1.307513701367e-01       4.310230100099e+03 
       1.351402814784e-01       4.121332356835e+03 
       1.396714684203e-01       3.902036547247e+03 
       1.443506338194e-01       3.658625506117e+03 
       1.491835465229e-01       3.404463000455e+03 
       1.541760469708e-01       3.156644467139e+03 
       1.593340535561e-01       2.931923266366e+03 
       1.646635702297e-01       2.742338837421e+03 
       1.701706958456e-01       2.592216376340e+03 
       1.758616357459e-01       2.477201165880e+03 
       1.817427160982e-01       2.385144072990e+03 
       1.878204015065e-01       2.300327451813e+03 
       1.941013164283e-01       2.205718476727e+03 
       2.005922709503e-01       2.090778683462e+03 
       2.073002914972e-01       1.956426582141e+03 
       2.142326570816e-01       1.814153980791e+03 
       2.213969417533e-01       1.679245996634e+03 
       2.288010639706e-01       1.563805428276e+03 
       2.364533437147e-01       1.472644737249e+03 
       2.443625682930e-01       1.401483687703e+03 
       2.525380679504e-01       1.338373989148e+03 
       2.609898026346e-01       1.270859647976e+03 
       2.697284615565e-01       1.193341699136e+03 
       2.787655775689e-01       1.109302721760e+03 
       2.881136588829e-01       1.028730143187e+03 
       2.977863412677e-01       9.604414503401e+02 
       3.077985646929e-01       9.049828451283e+02 
       3.181667794071e-01       8.561046456744e+02 
       3.289091877812e-01       8.061489279713e+02 
       3.400460299658e-01       7.523538307774e+02 
       3.515999236474e-01       6.988847206090e+02 
       3.635962711085e-01       6.510251703206e+02 
       3.760637506334e-01       6.100848085421e+02 
       3.890349143879e-01       5.720936240965e+02 
       4.025469216825e-01       5.337447235049e+02 
       4.166424456376e-01       4.955942981153e+02 
       4.313708035863e-01       4.604325067345e+02 
       4.467893782977e-01       4.287403595409e+02 
       4.629654199664e-01       3.987369286696e+02 
       4.799783501994e-01       3.692063242576e+02 
       4.979227319373e-01       3.412049234679e+02 
       5.169121270864e-01       3.154482255649e+02 
       5.370841404489e-01       2.908015728465e+02 
       5.586070464571e-01       2.670721505801e+02 
       5.816885094930e-01       2.447759239423e+02 
       6.065870144995e-01       2.235346405202e+02 
       6.336266468475e-01       2.031775912713e+02 
       6.632156059511e-01       1.838469898229e+02 
       6.958678639263e-01       1.653236110659e+02 
       7.322247985589e-01       1.476653409940e+02 
       7.730680195114e-01       1.308042430241e+02 
       8.193049553677e-01       1.148023323517e+02 
       8.718988016039e-01       9.973471694849e+01 
       9.317218031082e-01       8.575061962493e+01 
       9.993660908989e-01       7.302853434822e+01 
       1.075037110174e+00       6.171058249894e+01 
       1.158653485707e+00       5.185438575974e+01 
       1.250099157308e+00       4.341671795653e+01 
       1.349432401273e+00       3.626686668043e+01 
       1.456947457397e+00       3.024654996499e+01 
       1.573135111331e+00       2.519383598541e+01 
       1.698621895592e+00       2.096218189227e+01 
       1.834127512934e+00       1.742346011180e+01 
       1.980444934528e+00       1.446753814054e+01 
       2.138435191726e+00       1.200160633217e+01 
       2.309029199186e+00       9.946627237592e+00 
       2.493232377687e+00       8.235984816302e+00 
       2.692130395285e+00       6.813538400582e+00 
       2.906895534573e+00       5.631873493407e+00 
       3.138793597714e+00       4.651183532732e+00 
       3.389191366484e+00       3.838064984692e+00 
       3.659564657905e+00       3.164495282900e+00 
       3.951507022538e+00       2.607031167884e+00 
       4.266739136701e+00       2.146057909569e+00 
       4.607118943941e+00       1.765192044817e+00 
       4.974652605557e+00       1.450765616188e+00 
       5.371506324689e+00       1.191410077648e+00 
       5.800019113685e+00       9.776316580661e-01 
       6.262716579983e+00       8.015655793605e-01 
       6.762325811764e+00       6.566620201929e-01 
       7.301791451110e+00       5.374996932376e-01 
       7.884293049406e+00       4.395721930628e-01 
       8.513263807261e+00       3.591583332367e-01 
       9.192410809424e+00       2.931722702933e-01 
       9.925736873929e+00       2.390666215364e-01 
       1.071756414427e+01       1.947333522018e-01 
       1.157255956364e+01       1.584355724307e-01 
       1.249576238137e+01       1.287408530259e-01 
       1.349261385375e+01       1.044657519067e-01 
       1.456898931416e+01       8.464008858569e-02 
       1.573123280165e+01       6.846127481835e-02 
       1.698619445202e+01       5.527022477229e-02 
       1.834127087176e+01       4.452779803138e-02 
       1.980444873285e+01       3.578876239247e-02 
       2.138435184532e+01       2.868818126909e-02 
       2.309029198506e+01       2.292737407996e-02 
       2.493232377636e+01       1.826042853810e-02 
       2.692130395282e+01       1.448683394175e-02 
       2.906895534573e+01       1.144172418726e-02 
       3.138793597714e+01       8.990679735839e-03 
       3.389191366484e+01       7.022950002712e-03 
       3.659564657905e+01       5.448742213354e-03 
       3.951507022538e+01       4.194302229327e-03 
       4.266739136701e+01       3.199340929959e-03 
       4.607118943941e+01       2.414584637429e-03 
       4.974652605557e+01       1.799755340864e-03 
       5.371506324689e+01       1.321992508889e-03 
       5.800019113685e+01       9.543063900673e-04 
       6.262716579983e+01       6.747440522682e-04 
       6.762325811764e+01       4.652561753121e-04 
       7.301791451110e+01       3.110731750589e-04 
       7.884293049406e+01       2.001213327574e-04 
       8.513263807261e+01       1.225348848045e-04 
       9.192410809424e+01       7.023352390887e-05 
       9.925736873929e+01       3.669136924974e-05 
       1.071756414427e+02       1.662602111179e-05 
       1.157255956364e+02       5.869261236234e-06 
       1.249576238137e+02       1.148935603939e-06 
       1.349261385375e+02       1.957217735924e-11 
