# Matter power spectrum P(k) at redshift z=99
# for k=1.04775e-05 to 134.926 h/Mpc,
# number of wavenumbers equal to 255
#    1:k (h/Mpc)              2:P (Mpc/h)^3        
       1.047750691338e-05       7.261927098650e-03 
       1.131335172818e-05       7.820332154379e-03 
       1.221587619877e-05       8.421675386227e-03 
       1.319039970550e-05       9.069257742200e-03 
       1.424266598317e-05       9.766636455644e-03 
       1.537887697396e-05       1.051763974128e-02 
       1.660572938097e-05       1.132639251276e-02 
       1.793045413791e-05       1.219733202070e-02 
       1.936085902737e-05       1.313524187811e-02 
       2.090537469909e-05       1.414527085632e-02 
       2.257310435923e-05       1.523296545197e-02 
       2.437387742372e-05       1.640429655400e-02 
       2.631830745176e-05       1.766569604102e-02 
       2.841785470091e-05       1.902408712041e-02 
       3.068489367268e-05       2.048692968388e-02 
       3.313278604643e-05       2.206225468565e-02 
       3.577595943165e-05       2.375870884932e-02 
       3.862999240274e-05       2.558560671008e-02 
       4.171170631739e-05       2.755297673804e-02 
       4.503926445983e-05       2.967161934801e-02 
       4.863227909323e-05       3.195316457146e-02 
       5.251192705226e-05       3.441013467717e-02 
       5.670107455699e-05       3.705601743442e-02 
       6.122441198393e-05       3.990533414736e-02 
       6.610859938837e-05       4.297372244555e-02 
       7.138242363583e-05       4.627802057120e-02 
       7.707696806873e-05       4.983636162246e-02 
       8.322579570814e-05       5.366826789421e-02 
       8.986514707061e-05       5.779476322424e-02 
       9.703415376577e-05       6.223848224720e-02 
       1.047750691338e-04       6.702379828127e-02 
       1.131335172818e-04       7.217695034364e-02 
       1.221587619877e-04       7.772619033946e-02 
       1.319039970550e-04       8.370193384005e-02 
       1.424266598317e-04       9.013692510815e-02 
       1.537887697396e-04       9.706641134876e-02 
       1.660572938097e-04       1.045283343594e-01 
       1.793045413791e-04       1.125635329704e-01 
       1.936085902737e-04       1.212159592088e-01 
       2.090537469909e-04       1.305329108036e-01 
       2.257310435923e-04       1.405652820007e-01 
       2.437387742372e-04       1.513678275766e-01 
       2.631830745176e-04       1.629994475880e-01 
       2.841785470091e-04       1.755234891280e-01 
       3.068489367268e-04       1.890080646160e-01 
       3.313278604643e-04       2.035263978355e-01 
       3.577595943165e-04       2.191571779035e-01 
       3.862999240274e-04       2.359849424322e-01 
       4.171170631739e-04       2.541004714138e-01 
       4.503926445983e-04       2.736012062373e-01 
       4.863227909323e-04       2.945916775939e-01 
       5.251192705226e-04       3.171839509245e-01 
       5.670107455699e-04       3.414980770577e-01 
       6.122441198393e-04       3.676625417859e-01 
       6.610859938837e-04       3.958147274514e-01 
       7.138242363583e-04       4.261013333803e-01 
       7.707696806873e-04       4.586787882675e-01 
       8.322579570814e-04       4.937136114727e-01 
       8.986514707061e-04       5.313826964055e-01 
       9.703415376577e-04       5.718735178839e-01 
       1.047750691338e-03       6.153841928320e-01 
       1.131335172818e-03       6.621233625199e-01 
       1.221587619877e-03       7.123098745695e-01 
       1.319039970550e-03       7.661721265738e-01 
       1.424266598317e-03       8.239547183122e-01 
       1.537887697396e-03       8.859012284387e-01 
       1.660572938097e-03       9.522589496889e-01 
       1.793045413791e-03       1.023280284783e+00 
       1.936085902737e-03       1.099216542074e+00 
       2.090537469909e-03       1.180313284864e+00 
       2.257310435923e-03       1.266804486440e+00 
       2.437387742372e-03       1.358905327823e+00 
       2.631830745176e-03       1.456803284938e+00 
       2.841785470091e-03       1.560647661518e+00 
       3.068489367268e-03       1.670537008372e+00 
       3.313278604643e-03       1.786505036504e+00 
       3.577595943165e-03       1.908504405728e+00 
       3.862999240274e-03       2.036389462670e+00 
       4.171170631739e-03       2.169898244425e+00 
       4.503926445983e-03       2.308634480489e+00 
       4.863227909323e-03       2.452050659095e+00 
       5.251192705226e-03       2.599434659799e+00 
       5.670107455699e-03       2.749900631430e+00 
       6.122441198393e-03       2.902390097940e+00 
       6.610859938837e-03       3.055671342635e+00 
       7.138242363583e-03       3.208359973073e+00 
       7.707696806873e-03       3.358926481566e+00 
       8.322579570814e-03       3.505727942996e+00 
       8.986514707061e-03       3.647012940860e+00 
       9.703415376577e-03       3.780925754092e+00 
       1.047750691338e-02       3.905492572862e+00 
       1.131335172818e-02       4.018589257781e+00 
       1.221587619877e-02       4.117902351430e+00 
       1.319039970550e-02       4.200916976462e+00 
       1.424266598317e-02       4.264942812368e+00 
       1.537887697392e-02       4.307218420164e+00 
       1.660572938023e-02       4.325060839120e+00 
       1.793045412706e-02       4.316058344092e+00 
       1.936085890181e-02       4.278226249000e+00 
       2.090537352463e-02       4.210201236890e+00 
       2.257309535333e-02       4.111414605058e+00 
       2.437382002918e-02       3.982415719942e+00 
       2.631799944462e-02       3.825162189118e+00 
       2.841644545389e-02       3.643273929806e+00 
       3.067933355377e-02       3.442188901975e+00 
       3.311368470740e-02       3.229225467956e+00 
       3.571840443502e-02       3.013501919500e+00 
       3.847720348444e-02       2.805268051914e+00 
       4.135335538431e-02       2.614390953308e+00 
       4.429361667738e-02       2.448109914566e+00 
       4.724366439141e-02       2.309215237629e+00 
       5.016480835311e-02       2.196086872741e+00 
       5.303989620246e-02       2.104338698653e+00 
       5.586870669566e-02       2.028428697398e+00 
       5.866042680613e-02       1.963118773085e+00 
       6.142798932958e-02       1.903740690967e+00 
       6.418496440164e-02       1.846437887835e+00 
       6.694418833788e-02       1.788154037218e+00 
       6.971731106057e-02       1.726670364035e+00 
       7.251476155766e-02       1.660607329635e+00 
       7.534587671527e-02       1.589421319319e+00 
       7.821907666265e-02       1.513386666306e+00 
       8.114203772912e-02       1.433517663720e+00 
       8.412184535029e-02       1.351438399186e+00 
       8.716512279304e-02       1.269220675365e+00 
       9.027813695930e-02       1.189138895471e+00 
       9.346688431697e-02       1.113445622698e+00 
       9.673716028276e-02       1.044117906938e+00 
       1.000946150830e-01       9.826481148481e-01 
       1.035447986537e-01       9.298761541043e-01 
       1.070931966762e-01       8.858973979691e-01 
       1.107452594425e-01       8.500080610469e-01 
       1.145064249153e-01       8.207382357045e-01 
       1.183821370918e-01       7.959578598515e-01 
       1.223778605862e-01       7.730765497806e-01 
       1.264990921987e-01       7.493799330035e-01 
       1.307513701367e-01       7.224844600923e-01 
       1.351402814784e-01       6.908345324119e-01 
       1.396714684203e-01       6.541060997054e-01 
       1.443506338194e-01       6.133511668341e-01 
       1.491835465229e-01       5.707924806367e-01 
       1.541760469708e-01       5.292886811242e-01 
       1.593340535561e-01       4.916345689816e-01 
       1.646635702297e-01       4.598433333973e-01 
       1.701706958456e-01       4.346502290712e-01 
       1.758616357459e-01       4.153285674720e-01 
       1.817427160982e-01       3.998562056556e-01 
       1.878204015065e-01       3.856004663240e-01 
       1.941013164283e-01       3.697259186604e-01 
       2.005922709503e-01       3.504622978553e-01 
       2.073002914972e-01       3.279588991467e-01 
       2.142326570816e-01       3.041296306148e-01 
       2.213969417533e-01       2.815279125162e-01 
       2.288010639706e-01       2.621729201685e-01 
       2.364533437147e-01       2.468772904055e-01 
       2.443625682930e-01       2.349274592801e-01 
       2.525380679504e-01       2.243314599565e-01 
       2.609898026346e-01       2.130067314694e-01 
       2.697284615565e-01       2.000144205847e-01 
       2.787655775689e-01       1.859332793433e-01 
       2.881136588829e-01       1.724308285439e-01 
       2.977863412677e-01       1.609795820485e-01 
       3.077985646929e-01       1.516739835799e-01 
       3.181667794071e-01       1.434723390404e-01 
       3.289091877812e-01       1.350942454394e-01 
       3.400460299658e-01       1.260772902266e-01 
       3.515999236474e-01       1.171152969463e-01 
       3.635962711085e-01       1.090905958744e-01 
       3.760637506334e-01       1.022232071882e-01 
       3.890349143879e-01       9.585140768008e-02 
       4.025469216825e-01       8.942169680402e-02 
       4.166424456376e-01       8.302622161099e-02 
       4.313708035863e-01       7.713031342475e-02 
       4.467893782977e-01       7.181573264980e-02 
       4.629654199664e-01       6.678447626424e-02 
       4.799783501994e-01       6.183347956037e-02 
       4.979227319373e-01       5.713870579230e-02 
       5.169121270864e-01       5.281985711954e-02 
       5.370841404489e-01       4.868735272243e-02 
       5.586070464571e-01       4.470908432307e-02 
       5.816885094930e-01       4.097078184156e-02 
       6.065870144995e-01       3.740952594352e-02 
       6.336266468475e-01       3.399671257423e-02 
       6.632156059511e-01       3.075586739789e-02 
       6.958678639263e-01       2.765062714736e-02 
       7.322247985589e-01       2.469040274933e-02 
       7.730680195114e-01       2.186399788682e-02 
       8.193049553677e-01       1.918172197869e-02 
       8.718988016039e-01       1.665629904500e-02 
       9.317218031082e-01       1.431280891170e-02 
       9.993660908989e-01       1.218094316698e-02 
       1.075037110174e+00       1.028468188032e-02 
       1.158653485707e+00       8.633607129165e-03 
       1.250099157308e+00       7.220280506269e-03 
       1.349432401273e+00       6.023151955311e-03 
       1.456947457397e+00       5.015351236600e-03 
       1.573135111331e+00       4.169870512353e-03 
       1.698621895592e+00       3.462048341295e-03 
       1.834127512934e+00       2.870429338282e-03 
       1.980444934528e+00       2.376542616357e-03 
       2.138435191726e+00       1.964818682448e-03 
       2.309029199186e+00       1.621991446348e-03 
       2.493232377687e+00       1.336913824649e-03 
       2.692130395285e+00       1.100135255509e-03 
       2.906895534573e+00       9.037260682251e-04 
       3.138793597714e+00       7.410134858536e-04 
       3.389191366484e+00       6.063710914069e-04 
       3.659564657905e+00       4.951192140902e-04 
       3.951507022538e+00       4.033172772955e-04 
       4.266739136701e+00       3.276773443226e-04 
       4.607118943941e+00       2.654497036537e-04 
       4.974652605557e+00       2.143424124879e-04 
       5.371506324689e+00       1.724486620025e-04 
       5.800019113685e+00       1.381768131679e-04 
       6.262716579983e+00       1.102032353859e-04 
       6.762325811764e+00       8.743333689117e-05 
       7.301791451110e+00       6.895196760443e-05 
       7.884293049406e+00       5.400615722762e-05 
       8.513263807261e+00       4.196721907140e-05 
       9.192410809424e+00       3.231698316223e-05 
       9.925736873929e+00       2.462492601283e-05 
       1.071756414427e+01       1.853456236934e-05 
       1.157255956364e+01       1.375149535576e-05 
       1.249576238137e+01       1.003084924188e-05 
       1.349261385375e+01       7.170634406225e-06 
       1.456898931416e+01       5.002705856757e-06 
       1.573123280165e+01       3.388106063018e-06 
       1.698619445202e+01       2.211089141862e-06 
       1.834127087176e+01       1.376218482633e-06 
       1.980444873285e+01       8.045221239066e-07 
       2.138435184532e+01       4.309166741728e-07 
       2.309029198506e+01       2.022610795082e-07 
       2.493232377636e+01       7.563954058511e-08 
       2.692130395282e+01       1.704251056554e-08 
       2.906895534573e+01       2.091577735753e-10 
       3.138793597714e+01       5.648671513559e-09 
       3.389191366484e+01       1.970892018651e-08 
       3.659564657905e+01       3.367405130426e-08 
       3.951507022538e+01       4.286484011540e-08 
       4.266739136701e+01       4.566298650590e-08 
       4.607118943941e+01       4.259745021466e-08 
       4.974652605557e+01       3.542835811633e-08 
       5.371506324689e+01       2.635301338357e-08 
       5.800019113685e+01       1.738599010963e-08 
       6.262716579983e+01       9.946732805328e-09 
       6.762325811764e+01       4.704639798567e-09 
       7.301791451110e+01       1.654205471990e-09 
       7.884293049406e+01       3.079354907131e-10 
       8.513263807261e+01       3.173518739423e-14 
       9.192410809424e+01       1.251341054773e-10 
       9.925736873929e+01       2.872905133522e-10 
       1.071756414427e+02       3.262790424918e-10 
       1.157255956364e+02       2.512536077119e-10 
       1.249576238137e+02       1.381712025627e-10 
       1.349261385375e+02       5.092031196796e-11 
