# Matter power spectrum P(k) at redshift z=0
# for k=1.04775e-05 to 134.926 h/Mpc,
# number of wavenumbers equal to 255
#    1:k (h/Mpc)              2:P (Mpc/h)^3        
       1.047750691338e-05       5.020963913464e+01 
       1.131335172818e-05       5.407048701322e+01 
       1.221587619877e-05       5.822819374477e+01 
       1.319039970550e-05       6.270561691092e+01 
       1.424266598317e-05       6.752731950728e+01 
       1.537887697396e-05       7.271977163594e+01 
       1.660572938097e-05       7.831146997025e+01 
       1.793045413791e-05       8.433313550577e+01 
       1.936085902737e-05       9.081780132567e+01 
       2.090537469909e-05       9.780107697783e+01 
       2.257310435923e-05       1.053212790397e+02 
       2.437387742372e-05       1.134197246545e+02 
       2.631830745176e-05       1.221408286290e+02 
       2.841785470091e-05       1.315324621877e+02 
       3.068489367268e-05       1.416461681235e+02 
       3.313278604643e-05       1.525374478742e+02 
       3.577595943165e-05       1.642660529590e+02 
       3.862999240274e-05       1.768963436067e+02 
       4.171170631739e-05       1.904975993111e+02 
       4.503926445983e-05       2.051444255281e+02 
       4.863227909323e-05       2.209171411767e+02 
       5.251192705226e-05       2.379022249426e+02 
       5.670107455699e-05       2.561927814793e+02 
       6.122441198393e-05       2.758890475370e+02 
       6.610859938837e-05       2.970989230946e+02 
       7.138242363583e-05       3.199385578684e+02 
       7.707696806873e-05       3.445329742378e+02 
       8.322579570814e-05       3.710167322596e+02 
       8.986514707061e-05       3.995346441709e+02 
       9.703415376577e-05       4.302425392602e+02 
       1.047750691338e-04       4.633080763961e+02 
       1.131335172818e-04       4.989116273741e+02 
       1.221587619877e-04       5.372471939619e+02 
       1.319039970550e-04       5.785234116132e+02 
       1.424266598317e-04       6.229645932075e+02 
       1.537887697396e-04       6.708118488777e+02 
       1.660572938097e-04       7.223242666850e+02 
       1.793045413791e-04       7.777801572584e+02 
       1.936085902737e-04       8.374783637110e+02 
       2.090537469909e-04       9.017396291389e+02 
       2.257310435923e-04       9.709080297047e+02 
       2.437387742372e-04       1.045352452307e+03 
       2.631830745176e-04       1.125468128366e+03 
       2.841785470091e-04       1.211678185552e+03 
       3.068489367268e-04       1.304435255408e+03 
       3.313278604643e-04       1.404223060061e+03 
       3.577595943165e-04       1.511558028304e+03 
       3.862999240274e-04       1.626990851608e+03 
       4.171170631739e-04       1.751108043710e+03 
       4.503926445983e-04       1.884533402672e+03 
       4.863227909323e-04       2.027929403515e+03 
       5.251192705226e-04       2.181998478734e+03 
       5.670107455699e-04       2.347484137700e+03 
       6.122441198393e-04       2.525171915666e+03 
       6.610859938837e-04       2.715890038175e+03 
       7.138242363583e-04       2.920509754729e+03 
       7.707696806873e-04       3.139945180166e+03 
       8.322579570814e-04       3.375152436108e+03 
       8.986514707061e-04       3.627127961069e+03 
       9.703415376577e-04       3.896905584439e+03 
       1.047750691338e-03       4.185552333216e+03 
       1.131335172818e-03       4.494162604091e+03 
       1.221587619877e-03       4.823850902558e+03 
       1.319039970550e-03       5.175742928522e+03 
       1.424266598317e-03       5.551019781184e+03 
       1.537887697396e-03       5.950788416526e+03 
       1.660572938097e-03       6.376122988589e+03 
       1.793045413791e-03       6.828073529540e+03 
       1.936085902737e-03       7.307624536102e+03 
       2.090537469909e-03       7.815670288971e+03 
       2.257310435923e-03       8.352987608416e+03 
       2.437387742372e-03       8.920206606520e+03 
       2.631830745176e-03       9.517776069115e+03 
       2.841785470091e-03       1.014592614702e+04 
       3.068489367268e-03       1.080462899225e+04 
       3.313278604643e-03       1.149355049576e+04 
       3.577595943165e-03       1.221200101376e+04 
       3.862999240274e-03       1.295887457518e+04 
       4.171170631739e-03       1.373258676069e+04 
       4.503926445983e-03       1.453101343351e+04 
       4.863227909323e-03       1.535140078379e+04 
       5.251192705226e-03       1.619042681236e+04 
       5.670107455699e-03       1.704401321162e+04 
       6.122441198393e-03       1.790713590773e+04 
       6.610859938837e-03       1.877401528679e+04 
       7.138242363583e-03       1.963791505190e+04 
       7.707696806873e-03       2.049104846069e+04 
       8.322579570814e-03       2.132456740668e+04 
       8.986514707061e-03       2.212852341888e+04 
       9.703415376577e-03       2.289172922883e+04 
       1.047750691338e-02       2.360183715435e+04 
       1.131335172818e-02       2.424536917965e+04 
       1.221587619877e-02       2.480779194164e+04 
       1.319039970550e-02       2.527368343937e+04 
       1.424266598317e-02       2.562696853667e+04 
       1.537887697392e-02       2.585145982433e+04 
       1.660572938023e-02       2.593127224869e+04 
       1.793045412706e-02       2.585177000309e+04 
       1.936085890181e-02       2.560058098461e+04 
       2.090537352463e-02       2.516891038706e+04 
       2.257309535333e-02       2.455309343495e+04 
       2.437382002918e-02       2.375611710825e+04 
       2.631799944462e-02       2.278933106820e+04 
       2.841644545389e-02       2.167391687467e+04 
       3.067933355377e-02       2.044187996963e+04 
       3.311368470740e-02       1.913690081452e+04 
       3.571840443502e-02       1.781295523145e+04 
       3.847720348444e-02       1.653165784254e+04 
       4.135335538431e-02       1.535245614379e+04 
       4.429361667738e-02       1.431935984827e+04 
       4.724366439141e-02       1.344969201912e+04 
       5.016480835311e-02       1.273448296225e+04 
       5.303989620246e-02       1.214747726186e+04 
       5.586870669566e-02       1.165655202087e+04 
       5.866042680613e-02       1.123028905317e+04 
       6.142798932958e-02       1.084112321731e+04 
       6.418496440164e-02       1.046604964197e+04 
       6.694418833788e-02       1.008714451861e+04 
       6.971731106057e-02       9.691216590838e+03 
       7.251476155766e-02       9.270198271546e+03 
       7.534587671527e-02       8.820830659544e+03 
       7.821907666265e-02       8.344659530359e+03 
       8.114203772912e-02       7.847482366153e+03 
       8.412184535029e-02       7.338703877111e+03 
       8.716512279304e-02       6.830264590334e+03 
       9.027813695930e-02       6.335152088861e+03 
       9.346688431697e-02       5.866215414398e+03 
       9.673716028276e-02       5.434585116168e+03 
       1.000946150830e-01       5.048503161047e+03 
       1.035447986537e-01       4.712466311764e+03 
       1.070931966762e-01       4.426779623584e+03 
       1.107452594425e-01       4.187312287457e+03 
       1.145064249153e-01       3.986007416067e+03 
       1.183821370918e-01       3.811156299180e+03 
       1.223778605862e-01       3.648920967320e+03 
       1.264990921987e-01       3.484917904403e+03 
       1.307513701367e-01       3.306673500456e+03 
       1.351402814784e-01       3.106189821952e+03 
       1.396714684203e-01       2.881957196639e+03 
       1.443506338194e-01       2.639604351937e+03 
       1.491835465229e-01       2.390746151558e+03 
       1.541760469708e-01       2.149903324183e+03 
       1.593340535561e-01       1.930913324456e+03 
       1.646635702297e-01       1.743314330145e+03 
       1.701706958456e-01       1.590214661970e+03 
       1.758616357459e-01       1.467701623871e+03 
       1.817427160982e-01       1.366186149362e+03 
       1.878204015065e-01       1.273756532448e+03 
       1.941013164283e-01       1.177827015265e+03 
       2.005922709503e-01       1.070788174508e+03 
       2.073002914972e-01       9.535291312205e+02 
       2.142326570816e-01       8.342585622564e+02 
       2.213969417533e-01       7.234874667789e+02 
       2.288010639706e-01       6.288612048746e+02 
       2.364533437147e-01       5.529488013343e+02 
       2.443625682930e-01       4.925523430935e+02 
       2.525380679504e-01       4.403226988103e+02 
       2.609898026346e-01       3.890144381740e+02 
       2.697284615565e-01       3.355950710934e+02 
       2.787655775689e-01       2.819965583760e+02 
       2.881136588829e-01       2.332622519025e+02 
       2.977863412677e-01       1.932814368954e+02 
       3.077985646929e-01       1.617847297791e+02 
       3.181667794071e-01       1.356949863104e+02 
       3.289091877812e-01       1.117507655363e+02 
       3.400460299658e-01       8.886608202719e+01 
       3.515999236474e-01       6.843588657985e+01 
       3.635962711085e-01       5.190249172528e+01 
       3.760637506334e-01       3.924442877764e+01 
       3.890349143879e-01       2.909747230244e+01 
       4.025469216825e-01       2.050602750148e+01 
       4.166424456376e-01       1.346088560857e+01 
       4.313708035863e-01       8.262883101527e+00 
       4.467893782977e-01       4.694490719933e+00 
       4.629654199664e-01       2.295075870053e+00 
       4.799783501994e-01       7.907746523195e-01 
       4.979227319373e-01       9.887002163602e-02 
       5.169121270864e-01       3.427613455058e-02 
       5.370841404489e-01       3.989433391477e-01 
       5.586070464571e-01       1.060152473772e+00 
       5.816885094930e-01       1.852074920034e+00 
       6.065870144995e-01       2.656661604250e+00 
       6.336266468475e-01       3.379580119186e+00 
       6.632156059511e-01       3.906771869295e+00 
       6.958678639263e-01       4.187217183421e+00 
       7.322247985589e-01       4.167959428600e+00 
       7.730680195114e-01       3.849330477482e+00 
       8.193049553677e-01       3.263981257334e+00 
       8.718988016039e-01       2.498191020402e+00 
       9.317218031082e-01       1.680799971125e+00 
       9.993660908989e-01       9.541882812810e-01 
       1.075037110174e+00       4.255668940601e-01 
       1.158653485707e+00       1.264961695700e-01 
       1.250099157308e+00       1.272243561311e-02 
       1.349432401273e+00       3.704905960940e-03 
       1.456947457397e+00       2.637236096015e-02 
       1.573135111331e+00       3.976306050388e-02 
       1.698621895592e+00       3.486836981251e-02 
       1.834127512934e+00       2.055951370705e-02 
       1.980444934528e+00       7.791827493688e-03 
       2.138435191726e+00       1.373721009430e-03 
       2.309029199186e+00       1.391918761723e-07 
       2.493232377687e+00       4.141843280923e-04 
       2.692130395285e+00       6.211316368423e-04 
       2.906895534573e+00       3.803868476421e-04 
       3.138793597714e+00       1.082247665581e-04 
       3.389191366484e+00       6.044463509438e-06 
       3.659564657905e+00       3.737634808351e-06 
       3.951507022538e+00       8.203233550412e-06 
       4.266739136701e+00       3.242629609796e-06 
       4.607118943941e+00       1.435126404732e-07 
       4.974652605557e+00       2.063025840896e-07 
       5.371506324689e+00       3.302241811229e-07 
       5.800019113685e+00       1.197445137512e-07 
       6.262716579983e+00       1.528027344449e-08 
       6.762325811764e+00       1.955505874441e-09 
       7.301791451110e+00       3.684137236678e-09 
       7.884293049406e+00       6.605993621612e-09 
       8.513263807261e+00       5.728573780717e-09 
       9.192410809424e+00       4.161338022444e-09 
       9.925736873929e+00       2.514785573653e-09 
       1.071756414427e+01       1.977681003492e-09 
       1.157255956364e+01       1.382650280588e-09 
       1.249576238137e+01       9.227466131078e-10 
       1.349261385375e+01       6.857763574094e-10 
       1.456898931416e+01       1.980767803406e-09 
       1.573123280165e+01       4.465905179345e-10 
       1.698619445202e+01       2.580327621633e-10 
       1.834127087176e+01       3.095156188378e-10 
       1.980444873285e+01       1.539389964355e-10 
       2.138435184532e+01       1.007215882787e-10 
       2.309029198506e+01       1.105481684008e-10 
       2.493232377636e+01       6.995625666478e-11 
       2.692130395282e+01       4.681586873282e-11 
       2.906895534573e+01       4.626759005758e-11 
       3.138793597714e+01       1.656456534621e-12 
       3.389191366484e+01       1.517672142185e-11 
       3.659564657905e+01       2.253869857955e-11 
       3.951507022538e+01       1.382284516825e-11 
       4.266739136701e+01       1.125452347777e-11 
       4.607118943941e+01       9.188179929742e-13 
       4.974652605557e+01       4.467995880814e-12 
       5.371506324689e+01       5.094044348528e-12 
       5.800019113685e+01       6.421081237678e-11 
       6.262716579983e+01       1.137346978203e-14 
       6.762325811764e+01       3.612196198599e-12 
       7.301791451110e+01       1.060928011964e-12 
       7.884293049406e+01       5.247607693881e-11 
       8.513263807261e+01       4.315954537474e-14 
       9.192410809424e+01       1.784178354095e-15 
       9.925736873929e+01       1.113429385851e-14 
       1.071756414427e+02       2.529983078472e-15 
       1.157255956364e+02       3.946275781110e-14 
       1.249576238137e+02       5.010022718974e-13 
       1.349261385375e+02       2.705274409834e-13 
