# Matter power spectrum P(k) at redshift z=99
# for k=1.04775e-05 to 134.926 h/Mpc,
# number of wavenumbers equal to 255
#    1:k (h/Mpc)              2:P (Mpc/h)^3        
       1.047750691338e-05       7.261927775972e-03 
       1.131335172818e-05       7.820332883862e-03 
       1.221587619877e-05       8.421676170890e-03 
       1.319039970550e-05       9.069258587199e-03 
       1.424266598317e-05       9.766637365342e-03 
       1.537887697396e-05       1.051764075889e-02 
       1.660572938097e-05       1.132639356896e-02 
       1.793045413791e-05       1.219733315163e-02 
       1.936085902737e-05       1.313524310242e-02 
       2.090537469909e-05       1.414527217185e-02 
       2.257310435923e-05       1.523296687175e-02 
       2.437387742372e-05       1.640429807927e-02 
       2.631830745176e-05       1.766569768144e-02 
       2.841785470091e-05       1.902408888960e-02 
       3.068489367268e-05       2.048693158147e-02 
       3.313278604643e-05       2.206225672498e-02 
       3.577595943165e-05       2.375871103729e-02 
       3.862999240274e-05       2.558560908556e-02 
       4.171170631739e-05       2.755297930426e-02 
       4.503926445983e-05       2.967162211675e-02 
       4.863227909323e-05       3.195316753669e-02 
       5.251192705226e-05       3.441013823239e-02 
       5.670107455699e-05       3.705602087118e-02 
       6.122441198393e-05       3.990533784875e-02 
       6.610859938837e-05       4.297372652722e-02 
       7.138242363583e-05       4.627802452023e-02 
       7.707696806873e-05       4.983636635471e-02 
       8.322579570814e-05       5.366827290633e-02 
       8.986514707061e-05       5.779476873473e-02 
       9.703415376577e-05       6.223848802894e-02 
       1.047750691338e-04       6.702380452066e-02 
       1.131335172818e-04       7.217695563543e-02 
       1.221587619877e-04       7.772619753939e-02 
       1.319039970550e-04       8.370194158421e-02 
       1.424266598317e-04       9.013693347261e-02 
       1.537887697396e-04       9.706642018979e-02 
       1.660572938097e-04       1.045283440336e-01 
       1.793045413791e-04       1.125635433858e-01 
       1.936085902737e-04       1.212159705902e-01 
       2.090537469909e-04       1.305329228296e-01 
       2.257310435923e-04       1.405652949356e-01 
       2.437387742372e-04       1.513678414972e-01 
       2.631830745176e-04       1.629994624903e-01 
       2.841785470091e-04       1.755235046834e-01 
       3.068489367268e-04       1.890080817884e-01 
       3.313278604643e-04       2.035264162587e-01 
       3.577595943165e-04       2.191571976047e-01 
       3.862999240274e-04       2.359849635854e-01 
       4.171170631739e-04       2.541004940380e-01 
       4.503926445983e-04       2.736012304188e-01 
       4.863227909323e-04       2.945917033961e-01 
       5.251192705226e-04       3.171839784105e-01 
       5.670107455699e-04       3.414981062790e-01 
       6.122441198393e-04       3.676625727802e-01 
       6.610859938837e-04       3.958147602290e-01 
       7.138242363583e-04       4.261013679173e-01 
       7.707696806873e-04       4.586788245186e-01 
       8.322579570814e-04       4.937136493147e-01 
       8.986514707061e-04       5.313827356475e-01 
       9.703415376577e-04       5.718735582091e-01 
       1.047750691338e-03       6.153842338230e-01 
       1.131335172818e-03       6.621234035827e-01 
       1.221587619877e-03       7.123099148775e-01 
       1.319039970550e-03       7.661721650088e-01 
       1.424266598317e-03       8.239547541050e-01 
       1.537887697396e-03       8.859012591691e-01 
       1.660572938097e-03       9.522589715698e-01 
       1.793045413791e-03       1.023280292802e+00 
       1.936085902737e-03       1.099216529567e+00 
       2.090537469909e-03       1.180313245758e+00 
       2.257310435923e-03       1.266804403267e+00 
       2.437387742372e-03       1.358905183340e+00 
       2.631830745176e-03       1.456803072418e+00 
       2.841785470091e-03       1.560647329907e+00 
       3.068489367268e-03       1.670536546672e+00 
       3.313278604643e-03       1.786504355063e+00 
       3.577595943165e-03       1.908503491456e+00 
       3.862999240274e-03       2.036388307968e+00 
       4.171170631739e-03       2.169896692981e+00 
       4.503926445983e-03       2.308632227121e+00 
       4.863227909323e-03       2.452047344546e+00 
       5.251192705226e-03       2.599430246022e+00 
       5.670107455699e-03       2.749894761504e+00 
       6.122441198393e-03       2.902381621522e+00 
       6.610859938837e-03       3.055660504939e+00 
       7.138242363583e-03       3.208344242329e+00 
       7.707696806873e-03       3.358905593567e+00 
       8.322579570814e-03       3.505699903775e+00 
       8.986514707061e-03       3.646974819255e+00 
       9.703415376577e-03       3.780875272001e+00 
       1.047750691338e-02       3.905426049977e+00 
       1.131335172818e-02       4.018499910472e+00 
       1.221587619877e-02       4.117783890969e+00 
       1.319039970550e-02       4.200760968387e+00 
       1.424266598317e-02       4.264738154101e+00 
       1.537887697392e-02       4.306951367343e+00 
       1.660572938023e-02       4.324713912054e+00 
       1.793045412706e-02       4.315610251536e+00 
       1.936085890181e-02       4.277649972665e+00 
       2.090537352463e-02       4.209466729957e+00 
       2.257309535333e-02       4.110483168799e+00 
       2.437382002918e-02       3.981242911625e+00 
       2.631799944462e-02       3.823698371823e+00 
       2.841644545389e-02       3.641459967588e+00 
       3.067933355377e-02       3.439960624443e+00 
       3.311368470740e-02       3.226529799914e+00 
       3.571840443502e-02       3.010269279383e+00 
       3.847720348444e-02       2.801419310176e+00 
       4.135335538431e-02       2.609889619936e+00 
       4.429361667738e-02       2.442927458135e+00 
       4.724366439141e-02       2.303329548077e+00 
       5.016480835311e-02       2.189505625083e+00 
       5.303989620246e-02       2.097066077327e+00 
       5.586870669566e-02       2.020493403685e+00 
       5.866042680613e-02       1.954537057990e+00 
       6.142798932958e-02       1.894544069153e+00 
       6.418496440164e-02       1.836657806272e+00 
       6.694418833788e-02       1.777827179300e+00 
       6.971731106057e-02       1.715833284893e+00 
       7.251476155766e-02       1.649297158044e+00 
       7.534587671527e-02       1.577677171315e+00 
       7.821907666265e-02       1.501244058257e+00 
       8.114203772912e-02       1.421002574511e+00 
       8.412184535029e-02       1.338575822505e+00 
       8.716512279304e-02       1.256024016515e+00 
       9.027813695930e-02       1.175610330427e+00 
       9.346688431697e-02       1.099574709681e+00 
       9.673716028276e-02       1.029880874405e+00 
       1.000946150830e-01       9.680110690245e-01 
       1.035447986537e-01       9.147970278223e-01 
       1.070931966762e-01       8.703244469372e-01 
       1.107452594425e-01       8.338935352860e-01 
       1.145064249153e-01       8.040474114547e-01 
       1.183821370918e-01       7.786744356626e-01 
       1.223778605862e-01       7.552110779506e-01 
       1.264990921987e-01       7.309764385185e-01 
       1.307513701367e-01       7.036159301926e-01 
       1.351402814784e-01       6.715970296816e-01 
       1.396714684203e-01       6.346018886910e-01 
       1.443506338194e-01       5.936708844667e-01 
       1.491835465229e-01       5.509953701373e-01 
       1.541760469708e-01       5.093883846318e-01 
       1.593340535561e-01       4.715925047455e-01 
       1.646635702297e-01       4.395762047487e-01 
       1.701706958456e-01       4.140515893780e-01 
       1.758616357459e-01       3.942996465293e-01 
       1.817427160982e-01       3.783435744349e-01 
       1.878204015065e-01       3.636231557007e-01 
       1.941013164283e-01       3.473836923295e-01 
       2.005922709503e-01       3.279108255251e-01 
       2.073002914972e-01       3.053557270882e-01 
       2.142326570816e-01       2.815709243456e-01 
       2.213969417533e-01       2.590178487122e-01 
       2.288010639706e-01       2.396318940118e-01 
       2.364533437147e-01       2.241819199100e-01 
       2.443625682930e-01       2.119771401565e-01 
       2.525380679504e-01       2.011193650845e-01 
       2.609898026346e-01       1.896349701345e-01 
       2.697284615565e-01       1.766416783183e-01 
       2.787655775689e-01       1.626859871654e-01 
       2.881136588829e-01       1.493331450202e-01 
       2.977863412677e-01       1.379494755088e-01 
       3.077985646929e-01       1.286183836173e-01 
       3.181667794071e-01       1.203687467802e-01 
       3.289091877812e-01       1.120262816743e-01 
       3.400460299658e-01       1.031699816510e-01 
       3.515999236474e-01       9.443084013999e-02 
       3.635962711085e-01       8.659941587807e-02 
       3.760637506334e-01       7.986728634043e-02 
       3.890349143879e-01       7.364388543001e-02 
       4.025469216825e-01       6.744081533054e-02 
       4.166424456376e-01       6.133826739938e-02 
       4.313708035863e-01       5.573581670321e-02 
       4.467893782977e-01       5.069941083115e-02 
       4.629654199664e-01       4.597483925088e-02 
       4.799783501994e-01       4.139160853154e-02 
       4.979227319373e-01       3.709290638259e-02 
       5.169121270864e-01       3.317375409322e-02 
       5.370841404489e-01       2.948130307170e-02 
       5.586070464571e-01       2.598937888552e-02 
       5.816885094930e-01       2.276368285476e-02 
       6.065870144995e-01       1.975587646004e-02 
       6.336266468475e-01       1.694682489114e-02 
       6.632156059511e-01       1.435401990799e-02 
       6.958678639263e-01       1.195605829675e-02 
       7.322247985589e-01       9.762681830814e-03 
       7.730680195114e-01       7.772513745032e-03 
       8.193049553677e-01       5.998467812153e-03 
       8.718988016039e-01       4.453863325522e-03 
       9.317218031082e-01       3.155338586093e-03 
       9.993660908989e-01       2.113334612092e-03 
       1.075037110174e+00       1.323284969883e-03 
       1.158653485707e+00       7.623061664730e-04 
       1.250099157308e+00       3.928473169238e-04 
       1.349432401273e+00       1.709605556210e-04 
       1.456947457397e+00       5.458582582319e-05 
       1.573135111331e+00       7.492606082569e-06 
       1.698621895592e+00       8.502811407277e-07 
       1.834127512934e+00       1.331509382190e-05 
       1.980444934528e+00       3.044821860452e-05 
       2.138435191726e+00       4.378340401899e-05 
       2.309029199186e+00       4.966972270500e-05 
       2.493232377687e+00       4.793401860061e-05 
       2.692130395285e+00       4.052329042497e-05 
       2.906895534573e+00       3.024717141065e-05 
       3.138793597714e+00       1.980194467354e-05 
       3.389191366484e+00       1.111120056449e-05 
       3.659564657905e+00       5.074788899518e-06 
       3.951507022538e+00       1.667947334343e-06 
       4.266739136701e+00       2.584076655051e-07 
       4.607118943941e+00       4.302682520572e-09 
       4.974652605557e+00       1.807164093638e-07 
       5.371506324689e+00       3.490047393722e-07 
       5.800019113685e+00       3.614713634036e-07 
       6.262716579983e+00       2.563449316672e-07 
       6.762325811764e+00       1.281947813911e-07 
       7.301791451110e+00       4.075329812215e-08 
       7.884293049406e+00       5.080258621953e-09 
       8.513263807261e+00       2.605758480104e-10 
       9.192410809424e+00       3.387368236469e-09 
       9.925736873929e+00       4.065763493294e-09 
       1.071756414427e+01       2.274170359188e-09 
       1.157255956364e+01       6.234360451545e-10 
       1.249576238137e+01       3.735887607920e-11 
       1.349261385375e+01       1.782023613042e-11 
       1.456898931416e+01       4.383274670520e-11 
       1.573123280165e+01       1.971938550174e-11 
       1.698619445202e+01       1.577178637510e-12 
       1.834127087176e+01       6.546137421581e-13 
       1.980444873285e+01       1.807554352150e-12 
       2.138435184532e+01       1.023740331355e-12 
       2.309029198506e+01       2.630450952791e-13 
       2.493232377636e+01       7.468928320037e-14 
       2.692130395282e+01       5.437774883949e-14 
       2.906895534573e+01       7.017727157252e-14 
       3.138793597714e+01       7.020383341384e-14 
       3.389191366484e+01       4.967785838219e-14 
       3.659564657905e+01       3.624005372427e-14 
       3.951507022538e+01       2.644495663864e-14 
       4.266739136701e+01       1.901116257998e-14 
       4.607118943941e+01       1.436164802843e-14 
       4.974652605557e+01       1.082359723095e-14 
       5.371506324689e+01       7.309612022595e-15 
       5.800019113685e+01       5.172296803950e-15 
       6.262716579983e+01       3.861558946767e-15 
       6.762325811764e+01       2.676013945645e-15 
       7.301791451110e+01       1.944154137479e-15 
       7.884293049406e+01       1.318975852569e-15 
       8.513263807261e+01       9.315564546300e-16 
       9.192410809424e+01       6.814064760198e-16 
       9.925736873929e+01       3.905250828064e-16 
       1.071756414427e+02       1.363049870582e-16 
       1.157255956364e+02       1.764391868891e-16 
       1.249576238137e+02       1.167304758778e-16 
       1.349261385375e+02       4.116055988694e-17 
