# Matter power spectrum P(k) at redshift z=0
# for k=1.04775e-05 to 134.926 h/Mpc,
# number of wavenumbers equal to 255
#    1:k (h/Mpc)              2:P (Mpc/h)^3        
       1.047750691338e-05       5.020963447250e+01 
       1.131335172818e-05       5.407047305649e+01 
       1.221587619877e-05       5.822819631193e+01 
       1.319039970550e-05       6.270561697590e+01 
       1.424266598317e-05       6.752733931690e+01 
       1.537887697396e-05       7.271975049014e+01 
       1.660572938097e-05       7.831147563918e+01 
       1.793045413791e-05       8.433315235980e+01 
       1.936085902737e-05       9.081780365413e+01 
       2.090537469909e-05       9.780108308828e+01 
       2.257310435923e-05       1.053212907944e+02 
       2.437387742372e-05       1.134197135385e+02 
       2.631830745176e-05       1.221408291226e+02 
       2.841785470091e-05       1.315324583992e+02 
       3.068489367268e-05       1.416461652437e+02 
       3.313278604643e-05       1.525374465434e+02 
       3.577595943165e-05       1.642660573844e+02 
       3.862999240274e-05       1.768963439522e+02 
       4.171170631739e-05       1.904976006405e+02 
       4.503926445983e-05       2.051444266141e+02 
       4.863227909323e-05       2.209171428790e+02 
       5.251192705226e-05       2.379022279637e+02 
       5.670107455699e-05       2.561927838809e+02 
       6.122441198393e-05       2.758890494148e+02 
       6.610859938837e-05       2.970989234855e+02 
       7.138242363583e-05       3.199385568539e+02 
       7.707696806873e-05       3.445329744738e+02 
       8.322579570814e-05       3.710167328456e+02 
       8.986514707061e-05       3.995346456491e+02 
       9.703415376577e-05       4.302425395462e+02 
       1.047750691338e-04       4.633080775850e+02 
       1.131335172818e-04       4.989116277313e+02 
       1.221587619877e-04       5.372471934782e+02 
       1.319039970550e-04       5.785234111166e+02 
       1.424266598317e-04       6.229645930670e+02 
       1.537887697396e-04       6.708118486129e+02 
       1.660572938097e-04       7.223242655057e+02 
       1.793045413791e-04       7.777801550216e+02 
       1.936085902737e-04       8.374783600518e+02 
       2.090537469909e-04       9.017396244868e+02 
       2.257310435923e-04       9.709080218846e+02 
       2.437387742372e-04       1.045352440745e+03 
       2.631830745176e-04       1.125468110711e+03 
       2.841785470091e-04       1.211678159131e+03 
       3.068489367268e-04       1.304435218946e+03 
       3.313278604643e-04       1.404223010088e+03 
       3.577595943165e-04       1.511557953735e+03 
       3.862999240274e-04       1.626990742765e+03 
       4.171170631739e-04       1.751107887512e+03 
       4.503926445983e-04       1.884533175299e+03 
       4.863227909323e-04       2.027929075949e+03 
       5.251192705226e-04       2.181998005734e+03 
       5.670107455699e-04       2.347483458877e+03 
       6.122441198393e-04       2.525170933187e+03 
       6.610859938837e-04       2.715888623663e+03 
       7.138242363583e-04       2.920507717391e+03 
       7.707696806873e-04       3.139942242552e+03 
       8.322579570814e-04       3.375148228371e+03 
       8.986514707061e-04       3.627121913935e+03 
       9.703415376577e-04       3.896896927348e+03 
       1.047750691338e-03       4.185539942131e+03 
       1.131335172818e-03       4.494144893110e+03 
       1.221587619877e-03       4.823825633368e+03 
       1.319039970550e-03       5.175706931899e+03 
       1.424266598317e-03       5.550968060101e+03 
       1.537887697396e-03       5.950714170800e+03 
       1.660572938097e-03       6.376016827692e+03 
       1.793045413791e-03       6.827922399953e+03 
       1.936085902737e-03       7.307410056778e+03 
       2.090537469909e-03       7.815366844751e+03 
       2.257310435923e-03       8.352559777580e+03 
       2.437387742372e-03       8.919604922694e+03 
       2.631830745176e-03       9.516932396784e+03 
       2.841785470091e-03       1.014474655922e+04 
       3.068489367268e-03       1.080298378873e+04 
       3.313278604643e-03       1.149126325170e+04 
       3.577595943165e-03       1.220883019288e+04 
       3.862999240274e-03       1.295449171922e+04 
       4.171170631739e-03       1.372654842130e+04 
       4.503926445983e-03       1.452271961729e+04 
       4.863227909323e-03       1.534004640206e+04 
       5.251192705226e-03       1.617493342979e+04 
       5.670107455699e-03       1.702294323368e+04 
       6.122441198393e-03       1.787858446664e+04 
       6.610859938837e-03       1.873546817677e+04 
       7.138242363583e-03       1.958606101867e+04 
       7.707696806873e-03       2.042157021136e+04 
       8.322579570814e-03       2.123185542861e+04 
       8.986514707061e-03       2.200528957771e+04 
       9.703415376577e-03       2.272859902578e+04 
       1.047750691338e-02       2.338689160956e+04 
       1.131335172818e-02       2.396343799922e+04 
       1.221587619877e-02       2.443985590514e+04 
       1.319039970550e-02       2.479578669138e+04 
       1.424266598317e-02       2.500946964890e+04 
       1.537887697392e-02       2.505822175705e+04 
       1.660572938023e-02       2.491841033410e+04 
       1.793045412706e-02       2.456701337917e+04 
       1.936085890181e-02       2.398257029775e+04 
       2.090537352463e-02       2.314716899696e+04 
       2.257309535333e-02       2.204855101577e+04 
       2.437382002918e-02       2.068333587334e+04 
       2.631799944462e-02       1.905975787233e+04 
       2.841644545389e-02       1.720130137255e+04 
       3.067933355377e-02       1.515059846990e+04 
       3.311368470740e-02       1.297231576417e+04 
       3.571840443502e-02       1.075493391307e+04 
       3.847720348444e-02       8.606288523915e+03 
       4.135335538431e-02       6.638332775869e+03 
       4.429361667738e-02       4.940696736044e+03 
       4.724366439141e-02       3.557202472105e+03 
       5.016480835311e-02       2.482587082675e+03 
       5.303989620246e-02       1.679157228723e+03 
       5.586870669566e-02       1.097017352144e+03 
       5.866042680613e-02       6.873924974063e+02 
       6.142798932958e-02       4.081659980375e+02 
       6.418496440164e-02       2.250745946765e+02 
       6.694418833788e-02       1.111213773823e+02 
       6.971731106057e-02       4.553622150912e+01 
       7.251476155766e-02       1.261990803599e+01 
       7.534587671527e-02       7.882235716708e-01 
       7.821907666265e-02       1.715752432371e+00 
       8.114203772912e-02       9.612776635168e+00 
       8.412184535029e-02       2.061043000159e+01 
       8.716512279304e-02       3.224466341708e+01 
       9.027813695930e-02       4.302835638327e+01 
       9.346688431697e-02       5.211469067273e+01 
       9.673716028276e-02       5.904191477074e+01 
       1.000946150830e-01       6.355715501410e+01 
       1.035447986537e-01       6.552040858157e+01 
       1.070931966762e-01       6.486740037832e+01 
       1.107452594425e-01       6.163378424676e+01 
       1.145064249153e-01       5.599618539592e+01 
       1.183821370918e-01       4.833808856252e+01 
       1.223778605862e-01       3.927828930684e+01 
       1.264990921987e-01       2.964587491251e+01 
       1.307513701367e-01       2.038456134097e+01 
       1.351402814784e-01       1.238402637642e+01 
       1.396714684203e-01       6.290126421910e+00 
       1.443506338194e-01       2.362742770986e+00 
       1.491835465229e-01       4.353556595564e-01 
       1.541760469708e-01       6.324129772085e-03 
       1.593340535561e-01       4.249989116526e-01 
       1.646635702297e-01       1.098958337462e+00 
       1.701706958456e-01       1.638748165620e+00 
       1.758616357459e-01       1.892494263409e+00 
       1.817427160982e-01       1.882878260144e+00 
       1.878204015065e-01       1.708742817795e+00 
       1.941013164283e-01       1.471247951221e+00 
       2.005922709503e-01       1.204456274797e+00 
       2.073002914972e-01       9.216077070615e-01 
       2.142326570816e-01       6.404055362371e-01 
       2.213969417533e-01       3.773273130772e-01 
       2.288010639706e-01       1.609459998494e-01 
       2.364533437147e-01       3.215368844756e-02 
       2.443625682930e-01       4.276856743654e-04 
       2.525380679504e-01       3.143339169402e-02 
       2.609898026346e-01       7.536558840573e-02 
       2.697284615565e-01       9.421399306415e-02 
       2.787655775689e-01       8.627203597711e-02 
       2.881136588829e-01       6.659379043438e-02 
       2.977863412677e-01       4.524754963869e-02 
       3.077985646929e-01       2.834496656532e-02 
       3.181667794071e-01       1.452617504347e-02 
       3.289091877812e-01       4.474579220721e-03 
       3.400460299658e-01       2.195282082295e-04 
       3.515999236474e-01       8.660683257141e-04 
       3.635962711085e-01       2.839854445867e-03 
       3.760637506334e-01       3.522545829810e-03 
       3.890349143879e-01       2.634944993372e-03 
       4.025469216825e-01       1.662891871864e-03 
       4.166424456376e-01       7.206668615584e-04 
       4.313708035863e-01       1.680035808784e-04 
       4.467893782977e-01       2.278585241900e-06 
       4.629654199664e-01       1.374947698356e-04 
       4.799783501994e-01       2.399006251360e-04 
       4.979227319373e-01       2.207169363502e-04 
       5.169121270864e-01       1.314722995069e-04 
       5.370841404489e-01       4.268745487337e-05 
       5.586070464571e-01       3.202574690380e-06 
       5.816885094930e-01       5.007924270934e-07 
       6.065870144995e-01       3.934602132573e-06 
       6.336266468475e-01       2.067178788641e-06 
       6.632156059511e-01       8.783255321367e-08 
       6.958678639263e-01       3.333982857743e-06 
       7.322247985589e-01       2.630324165620e-06 
       7.730680195114e-01       1.477067453713e-06 
       8.193049553677e-01       2.539117179226e-07 
       8.718988016039e-01       9.499127613832e-07 
       9.317218031082e-01       2.386569401828e-11 
       9.993660908989e-01       1.905842797788e-06 
       1.075037110174e+00       2.056665386694e-07 
       1.158653485707e+00       1.241465340568e-07 
       1.250099157308e+00       3.266607371136e-08 
       1.349432401273e+00       3.149541695125e-07 
       1.456947457397e+00       2.172856128435e-07 
       1.573135111331e+00       2.167156541279e-07 
       1.698621895592e+00       2.890700327580e-07 
       1.834127512934e+00       5.241244869576e-09 
       1.980444934528e+00       1.873150562117e-08 
       2.138435191726e+00       3.540783383252e-07 
       2.309029199186e+00       7.339550405817e-07 
       2.493232377687e+00       3.946042657677e-08 
       2.692130395285e+00       1.568777531019e-07 
       2.906895534573e+00       1.943902353067e-07 
       3.138793597714e+00       1.950949845369e-07 
       3.389191366484e+00       2.131265022571e-07 
       3.659564657905e+00       1.912070112662e-06 
       3.951507022538e+00       4.689534247467e-07 
       4.266739136701e+00       2.580680920806e-07 
       4.607118943941e+00       6.023354495862e-08 
       4.974652605557e+00       6.012452509146e-08 
       5.371506324689e+00       3.277365731216e-07 
       5.800019113685e+00       2.618995587433e-06 
       6.262716579983e+00       7.818783370872e-08 
       6.762325811764e+00       2.124252141122e-10 
       7.301791451110e+00       2.812696963707e-09 
       7.884293049406e+00       5.015099082133e-06 
       8.513263807261e+00       6.889680132498e-08 
       9.192410809424e+00       2.548554775338e-08 
       9.925736873929e+00       1.608847438657e-08 
       1.071756414427e+01       7.143734145826e-07 
       1.157255956364e+01       6.455626445884e-07 
       1.249576238137e+01       1.385091913232e-07 
       1.349261385375e+01       5.089369396861e-07 
       1.456898931416e+01       2.889905812315e-07 
       1.573123280165e+01       1.084440652784e-06 
       1.698619445202e+01       5.208102344576e-07 
       1.834127087176e+01       7.771114855668e-07 
       1.980444873285e+01       2.171380486053e-07 
       2.138435184532e+01       3.961314282747e-10 
       2.309029198506e+01       3.449998523804e-09 
       2.493232377636e+01       3.232109706502e-10 
       2.692130395282e+01       3.275680351411e-12 
       2.906895534573e+01       3.390939436901e-11 
       3.138793597714e+01       6.255825804659e-10 
       3.389191366484e+01       5.767260243504e-09 
       3.659564657905e+01       5.831777101671e-08 
       3.951507022538e+01       1.260377360550e-09 
       4.266739136701e+01       1.516808631417e-10 
       4.607118943941e+01       1.180051115104e-08 
       4.974652605557e+01       1.492565329684e-08 
       5.371506324689e+01       8.637476060731e-10 
       5.800019113685e+01       9.989493556358e-10 
       6.262716579983e+01       2.142337070497e-10 
       6.762325811764e+01       1.509378960093e-10 
       7.301791451110e+01       4.821388566394e-09 
       7.884293049406e+01       4.811086915962e-10 
       8.513263807261e+01       3.964701299932e-09 
       9.192410809424e+01       1.287667265026e-09 
       9.925736873929e+01       1.827295246019e-09 
       1.071756414427e+02       7.957329421662e-10 
       1.157255956364e+02       1.884848309252e-09 
       1.249576238137e+02       9.046424945549e-11 
       1.349261385375e+02       2.419988665174e-11 
