# Matter power spectrum P(k) at redshift z=0
# for k=1.04775e-05 to 67.6233 h/Mpc,
# number of wavenumbers equal to 246
#    1:k (h/Mpc)              2:P (Mpc/h)^3        
       1.047750691338e-05       5.020964820755e+01 
       1.131335172818e-05       5.407048995908e+01 
       1.221587619877e-05       5.822820218839e+01 
       1.319039970550e-05       6.270561812691e+01 
       1.424266598317e-05       6.752732156060e+01 
       1.537887697396e-05       7.271975364889e+01 
       1.660572938097e-05       7.831146825256e+01 
       1.793045413791e-05       8.433313178247e+01 
       1.936085902737e-05       9.081779340649e+01 
       2.090537469909e-05       9.780106720030e+01 
       2.257310435923e-05       1.053212771064e+02 
       2.437387742372e-05       1.134197277115e+02 
       2.631830745176e-05       1.221408348303e+02 
       2.841785470091e-05       1.315324551451e+02 
       3.068489367268e-05       1.416461639603e+02 
       3.313278604643e-05       1.525374482292e+02 
       3.577595943165e-05       1.642660706626e+02 
       3.862999240274e-05       1.768963485490e+02 
       4.171170631739e-05       1.904975987665e+02 
       4.503926445983e-05       2.051444405328e+02 
       4.863227909323e-05       2.209171399803e+02 
       5.251192705226e-05       2.379022247873e+02 
       5.670107455699e-05       2.561927942456e+02 
       6.122441198393e-05       2.758890477116e+02 
       6.610859938837e-05       2.970989233455e+02 
       7.138242363583e-05       3.199385577239e+02 
       7.707696806873e-05       3.445329728109e+02 
       8.322579570814e-05       3.710167323546e+02 
       8.986514707061e-05       3.995346439461e+02 
       9.703415376577e-05       4.302425390435e+02 
       1.047750691338e-04       4.633080763008e+02 
       1.131335172818e-04       4.989116270052e+02 
       1.221587619877e-04       5.372471935700e+02 
       1.319039970550e-04       5.785234103830e+02 
       1.424266598317e-04       6.229645924078e+02 
       1.537887697396e-04       6.708118475030e+02 
       1.660572938097e-04       7.223242662534e+02 
       1.793045413791e-04       7.777801556706e+02 
       1.936085902737e-04       8.374783618013e+02 
       2.090537469909e-04       9.017396248672e+02 
       2.257310435923e-04       9.709080245195e+02 
       2.437387742372e-04       1.045352449918e+03 
       2.631830745176e-04       1.125468122483e+03 
       2.841785470091e-04       1.211678179567e+03 
       3.068489367268e-04       1.304435247092e+03 
       3.313278604643e-04       1.404223051668e+03 
       3.577595943165e-04       1.511558015215e+03 
       3.862999240274e-04       1.626990835149e+03 
       4.171170631739e-04       1.751108023250e+03 
       4.503926445983e-04       1.884533376115e+03 
       4.863227909323e-04       2.027929370714e+03 
       5.251192705226e-04       2.181998435448e+03 
       5.670107455699e-04       2.347484086626e+03 
       6.122441198393e-04       2.525171847198e+03 
       6.610859938837e-04       2.715889952271e+03 
       7.138242363583e-04       2.920509643967e+03 
       7.707696806873e-04       3.139945031489e+03 
       8.322579570814e-04       3.375152243429e+03 
       8.986514707061e-04       3.627127709813e+03 
       9.703415376577e-04       3.896905264176e+03 
       1.047750691338e-03       4.185551902400e+03 
       1.131335172818e-03       4.494162044797e+03 
       1.221587619877e-03       4.823850167335e+03 
       1.319039970550e-03       5.175741954867e+03 
       1.424266598317e-03       5.551018454954e+03 
       1.537887697396e-03       5.950786632822e+03 
       1.660572938097e-03       6.376120538801e+03 
       1.793045413791e-03       6.828070219909e+03 
       1.936085902737e-03       7.307620028819e+03 
       2.090537469909e-03       7.815664108838e+03 
       2.257310435923e-03       8.352979345703e+03 
       2.437387742372e-03       8.920195325668e+03 
       2.631830745176e-03       9.517760689855e+03 
       2.841785470091e-03       1.014590542635e+04 
       3.068489367268e-03       1.080460034050e+04 
       3.313278604643e-03       1.149351182801e+04 
       3.577595943165e-03       1.221194824498e+04 
       3.862999240274e-03       1.295880268951e+04 
       4.171170631739e-03       1.373248987281e+04 
       4.503926445983e-03       1.453088215721e+04 
       4.863227909323e-03       1.535122433985e+04 
       5.251192705226e-03       1.619018854582e+04 
       5.670107455699e-03       1.704370085319e+04 
       6.122441198393e-03       1.790672303889e+04 
       6.610859938837e-03       1.877346824301e+04 
       7.138242363583e-03       1.963718448365e+04 
       7.707696806873e-03       2.049008322839e+04 
       8.322579570814e-03       2.132328033472e+04 
       8.986514707061e-03       2.212682079841e+04 
       9.703415376577e-03       2.288947150468e+04 
       1.047750691338e-02       2.359886517599e+04 
       1.131335172818e-02       2.424148035279e+04 
       1.221587619877e-02       2.480272179324e+04 
       1.319039970550e-02       2.526709354728e+04 
       1.424266598317e-02       2.561843603844e+04 
       1.537887697392e-02       2.584047823924e+04 
       1.660572938023e-02       2.591720395271e+04 
       1.793045412706e-02       2.583383048152e+04 
       1.936085890181e-02       2.557789450431e+04 
       2.090537352463e-02       2.514045413864e+04 
       2.257309535333e-02       2.451755825147e+04 
       2.437382002918e-02       2.371215669533e+04 
       2.631799944462e-02       2.273540383601e+04 
       2.841644545389e-02       2.160840360651e+04 
       3.067933355377e-02       2.036307153872e+04 
       3.311368470740e-02       1.904305912804e+04 
       3.571840443502e-02       1.770254166168e+04 
       3.847720348444e-02       1.640345899813e+04 
       4.135335538431e-02       1.520581069024e+04 
       4.429361667738e-02       1.415409605345e+04 
       4.724366439141e-02       1.326652109339e+04 
       5.016480835311e-02       1.253431611669e+04 
       5.303989620246e-02       1.193176985752e+04 
       5.586870669566e-02       1.142693507303e+04 
       5.866042680613e-02       1.098865292574e+04 
       6.142798932958e-02       1.058947661479e+04 
       6.418496440164e-02       1.020657071503e+04 
       6.694418833788e-02       9.822114207501e+03 
       6.971731106057e-02       9.422961660564e+03 
       7.251476155766e-02       9.000992332927e+03 
       7.534587671527e-02       8.552843447870e+03 
       7.821907666265e-02       8.079843756867e+03 
       8.114203772912e-02       7.587504863126e+03 
       8.412184535029e-02       7.084817020545e+03 
       8.716512279304e-02       6.583304189031e+03 
       9.027813695930e-02       6.095533880892e+03 
       9.346688431697e-02       5.633808799937e+03 
       9.673716028276e-02       5.208928821272e+03 
       1.000946150830e-01       4.828874417191e+03 
       1.035447986537e-01       4.498079368144e+03 
       1.070931966762e-01       4.216590036277e+03 
       1.107452594425e-01       3.980699076607e+03 
       1.145064249153e-01       3.782498971070e+03 
       1.183821370918e-01       3.610851592347e+03 
       1.223778605862e-01       3.452509091642e+03 
       1.264990921987e-01       3.293647463015e+03 
       1.307513701367e-01       3.122319102513e+03 
       1.351402814784e-01       2.930760302307e+03 
       1.396714684203e-01       2.717339492334e+03 
       1.443506338194e-01       2.487330191281e+03 
       1.491835465229e-01       2.251513375624e+03 
       1.541760469708e-01       2.023652155439e+03 
       1.593340535561e-01       1.816835568867e+03 
       1.646635702297e-01       1.640087767319e+03 
       1.701706958456e-01       1.496397883022e+03 
       1.758616357459e-01       1.382092982150e+03 
       1.817427160982e-01       1.288097854393e+03 
       1.878204015065e-01       1.203134347717e+03 
       1.941013164283e-01       1.115180214156e+03 
       2.005922709503e-01       1.016874657767e+03 
       2.073002914972e-01       9.088432931959e+02 
       2.142326570816e-01       7.987404502459e+02 
       2.213969417533e-01       6.964794734427e+02 
       2.288010639706e-01       6.093299723018e+02 
       2.364533437147e-01       5.397976669535e+02 
       2.443625682930e-01       4.849239420018e+02 
       2.525380679504e-01       4.376725296355e+02 
       2.609898026346e-01       3.910069259845e+02 
       2.697284615565e-01       3.418721906998e+02 
       2.787655775689e-01       2.920230335285e+02 
       2.881136588829e-01       2.463503764905e+02 
       2.977863412677e-01       2.087656694570e+02 
       3.077985646929e-01       1.791216569489e+02 
       3.181667794071e-01       1.544326419517e+02 
       3.289091877812e-01       1.313698410313e+02 
       3.400460299658e-01       1.087659422946e+02 
       3.515999236474e-01       8.806423774227e+01 
       3.635962711085e-01       7.089054959360e+01 
       3.760637506334e-01       5.739545307632e+01 
       3.890349143879e-01       4.615456551581e+01 
       4.025469216825e-01       3.610957515687e+01 
       4.166424456376e-01       2.729410293792e+01 
       4.313708035863e-01       2.020800746218e+01 
       4.467893782977e-01       1.475696806889e+01 
       4.629654199664e-01       1.044471580674e+01 
       4.799783501994e-01       6.958071962346e+00 
       4.979227319373e-01       4.332195276377e+00 
       5.169121270864e-01       2.514539814792e+00 
       5.370841404489e-01       1.271881655543e+00 
       5.586070464571e-01       4.932068185409e-01 
       5.816885094930e-01       1.061544458918e-01 
       6.065870144995e-01       5.283888058592e-05 
       6.336266468475e-01       8.989168433082e-02 
       6.632156059511e-01       2.955632276298e-01 
       6.958678639263e-01       5.501049816488e-01 
       7.322247985589e-01       7.895297303857e-01 
       7.730680195114e-01       9.673464237999e-01 
       8.193049553677e-01       1.047216963818e+00 
       8.718988016039e-01       1.015717416258e+00 
       9.317218031082e-01       8.824607451528e-01 
       9.993660908989e-01       6.819912699076e-01 
       1.075037110174e+00       4.636510120301e-01 
       1.158653485707e+00       2.723988539179e-01 
       1.250099157308e+00       1.336185544108e-01 
       1.349432401273e+00       5.096146780504e-02 
       1.456947457397e+00       1.241308794829e-02 
       1.573135111331e+00       7.137275057220e-04 
       1.698621895592e+00       8.027198662991e-04 
       1.834127512934e+00       3.257351557847e-03 
       1.980444934528e+00       4.222080620729e-03 
       2.138435191726e+00       3.440562777679e-03 
       2.309029199186e+00       1.988926376376e-03 
       2.493232377687e+00       8.039238505851e-04 
       2.692130395285e+00       1.922260518949e-04 
       2.906895534573e+00       1.097947668030e-05 
       3.138793597714e+00       7.657954643225e-06 
       3.389191366484e+00       2.518394103749e-05 
       3.659564657905e+00       2.220348390931e-05 
       3.951507022538e+00       1.031566568697e-05 
       4.266739136701e+00       2.503155581888e-06 
       4.607118943941e+00       1.698845097680e-07 
       4.974652605557e+00       2.357982021436e-08 
       5.371506324689e+00       6.586319386843e-08 
       5.800019113685e+00       1.741833871794e-08 
       6.262716579983e+00       4.706978407185e-10 
       6.762325811764e+00       1.254633090676e-08 
       7.301791451110e+00       1.693370271265e-08 
       7.884293049406e+00       1.160926416185e-08 
       8.513263807261e+00       6.548375919425e-09 
       9.192410809424e+00       3.989548614484e-09 
       9.925736873929e+00       2.954122348951e-09 
       1.071756414427e+01       2.374650708352e-09 
       1.157255956364e+01       1.896363202195e-09 
       1.249576238137e+01       1.442547900229e-09 
       1.349261385375e+01       1.061461582083e-09 
       1.456898931416e+01       7.877502734250e-10 
       1.573123280165e+01       5.648181387785e-10 
       1.698619445202e+01       4.090739043004e-10 
       1.834127087176e+01       3.015144077968e-10 
       1.980444873285e+01       2.152597881102e-10 
       2.138435184532e+01       1.538627811437e-10 
       2.309029198506e+01       1.098969113819e-10 
       2.493232377636e+01       7.929742012835e-11 
       2.692130395282e+01       5.762102500674e-11 
       2.906895534573e+01       4.334572589244e-11 
       3.138793597714e+01       3.279568626212e-11 
       3.389191366484e+01       2.456655517115e-11 
       3.659564657905e+01       1.743518052928e-11 
       3.951507022538e+01       1.138575340720e-11 
       4.266739136701e+01       6.976030415286e-12 
       4.607118943941e+01       4.365708940754e-12 
       4.974652605557e+01       3.432118435165e-12 
       5.371506324689e+01       3.232895227781e-12 
       5.800019113685e+01       2.430857688818e-12 
       6.262716579983e+01       1.202284795069e-12 
       6.762325811764e+01       5.758112504578e-13 
