# Matter power spectrum P(k) at redshift z=0
# for k=1.04775e-05 to 134.926 h/Mpc,
# number of wavenumbers equal to 255
#    1:k (h/Mpc)              2:P (Mpc/h)^3        
       1.047750691338e-05       5.020963906804e+01 
       1.131335172818e-05       5.407048937148e+01 
       1.221587619877e-05       5.822820724029e+01 
       1.319039970550e-05       6.270562047249e+01 
       1.424266598317e-05       6.752731476098e+01 
       1.537887697396e-05       7.271975715395e+01 
       1.660572938097e-05       7.831147101246e+01 
       1.793045413791e-05       8.433312302135e+01 
       1.936085902737e-05       9.081780130646e+01 
       2.090537469909e-05       9.780107449414e+01 
       2.257310435923e-05       1.053212938596e+02 
       2.437387742372e-05       1.134197268469e+02 
       2.631830745176e-05       1.221408285625e+02 
       2.841785470091e-05       1.315324590474e+02 
       3.068489367268e-05       1.416461671357e+02 
       3.313278604643e-05       1.525374478901e+02 
       3.577595943165e-05       1.642660517220e+02 
       3.862999240274e-05       1.768963429376e+02 
       4.171170631739e-05       1.904975997820e+02 
       4.503926445983e-05       2.051444243234e+02 
       4.863227909323e-05       2.209171412049e+02 
       5.251192705226e-05       2.379022266147e+02 
       5.670107455699e-05       2.561927841240e+02 
       6.122441198393e-05       2.758890479637e+02 
       6.610859938837e-05       2.970989213982e+02 
       7.138242363583e-05       3.199385559930e+02 
       7.707696806873e-05       3.445329727006e+02 
       8.322579570814e-05       3.710167324010e+02 
       8.986514707061e-05       3.995346444121e+02 
       9.703415376577e-05       4.302425389349e+02 
       1.047750691338e-04       4.633080773457e+02 
       1.131335172818e-04       4.989116271596e+02 
       1.221587619877e-04       5.372471938794e+02 
       1.319039970550e-04       5.785234116881e+02 
       1.424266598317e-04       6.229645933132e+02 
       1.537887697396e-04       6.708118487510e+02 
       1.660572938097e-04       7.223242657764e+02 
       1.793045413791e-04       7.777801571268e+02 
       1.936085902737e-04       8.374783638365e+02 
       2.090537469909e-04       9.017396276737e+02 
       2.257310435923e-04       9.709080297651e+02 
       2.437387742372e-04       1.045352453376e+03 
       2.631830745176e-04       1.125468127721e+03 
       2.841785470091e-04       1.211678185928e+03 
       3.068489367268e-04       1.304435256065e+03 
       3.313278604643e-04       1.404223062921e+03 
       3.577595943165e-04       1.511558029577e+03 
       3.862999240274e-04       1.626990852555e+03 
       4.171170631739e-04       1.751108045602e+03 
       4.503926445983e-04       1.884533404755e+03 
       4.863227909323e-04       2.027929406956e+03 
       5.251192705226e-04       2.181998483913e+03 
       5.670107455699e-04       2.347484146066e+03 
       6.122441198393e-04       2.525171925196e+03 
       6.610859938837e-04       2.715890054979e+03 
       7.138242363583e-04       2.920509779320e+03 
       7.707696806873e-04       3.139945208051e+03 
       8.322579570814e-04       3.375152477018e+03 
       8.986514707061e-04       3.627128020461e+03 
       9.703415376577e-04       3.896905669504e+03 
       1.047750691338e-03       4.185552452612e+03 
       1.131335172818e-03       4.494162775568e+03 
       1.221587619877e-03       4.823851150588e+03 
       1.319039970550e-03       5.175743278702e+03 
       1.424266598317e-03       5.551020298670e+03 
       1.537887697396e-03       5.950789185416e+03 
       1.660572938097e-03       6.376124150033e+03 
       1.793045413791e-03       6.828075236563e+03 
       1.936085902737e-03       7.307627051019e+03 
       2.090537469909e-03       7.815673959008e+03 
       2.257310435923e-03       8.352992922919e+03 
       2.437387742372e-03       8.920214306263e+03 
       2.631830745176e-03       9.517787166574e+03 
       2.841785470091e-03       1.014594130654e+04 
       3.068489367268e-03       1.080465136454e+04 
       3.313278604643e-03       1.149358239473e+04 
       3.577595943165e-03       1.221204586804e+04 
       3.862999240274e-03       1.295893666417e+04 
       4.171170631739e-03       1.373267338511e+04 
       4.503926445983e-03       1.453113499886e+04 
       4.863227909323e-03       1.535157115108e+04 
       5.251192705226e-03       1.619066155070e+04 
       5.670107455699e-03       1.704433881015e+04 
       6.122441198393e-03       1.790758124646e+04 
       6.610859938837e-03       1.877461996514e+04 
       7.138242363583e-03       1.963874650173e+04 
       7.707696806873e-03       2.049217384829e+04 
       8.322579570814e-03       2.132608014197e+04 
       8.986514707061e-03       2.213056718061e+04 
       9.703415376577e-03       2.289447297631e+04 
       1.047750691338e-02       2.360549525861e+04 
       1.131335172818e-02       2.425024124241e+04 
       1.221587619877e-02       2.481424703331e+04 
       1.319039970550e-02       2.528219962141e+04 
       1.424266598317e-02       2.563815123086e+04 
       1.537887697392e-02       2.586607605339e+04 
       1.660572938023e-02       2.595027114013e+04 
       1.793045412706e-02       2.587635564250e+04 
       1.936085890181e-02       2.563219764449e+04 
       2.090537352463e-02       2.520936118358e+04 
       2.257309535333e-02       2.460445421508e+04 
       2.437382002918e-02       2.382088411072e+04 
       2.631799944462e-02       2.287044845124e+04 
       2.841644545389e-02       2.177448980724e+04 
       3.067933355377e-02       2.056556781606e+04 
       3.311368470740e-02       1.928731462615e+04 
       3.571840443502e-02       1.799402016277e+04 
       3.847720348444e-02       1.674684657676e+04 
       4.135335538431e-02       1.560459631765e+04 
       4.429361667738e-02       1.461037724200e+04 
       4.724366439141e-02       1.378055768314e+04 
       5.016480835311e-02       1.310505351701e+04 
       5.303989620246e-02       1.255717924265e+04 
       5.586870669566e-02       1.210424160874e+04 
       5.866042680613e-02       1.171465168733e+04 
       6.142798932958e-02       1.136046914491e+04 
       6.418496440164e-02       1.101854959878e+04 
       6.694418833788e-02       1.067067153029e+04 
       6.971731106057e-02       1.030357460256e+04 
       7.251476155766e-02       9.909007488270e+03 
       7.534587671527e-02       9.483727710494e+03 
       7.821907666265e-02       9.029492548472e+03 
       8.114203772912e-02       8.552306311096e+03 
       8.412184535029e-02       8.061889677580e+03 
       8.716512279304e-02       7.570754119166e+03 
       9.027813695930e-02       7.092481627023e+03 
       9.346688431697e-02       6.640515634959e+03 
       9.673716028276e-02       6.226701057692e+03 
       1.000946150830e-01       5.859926309232e+03 
       1.035447986537e-01       5.545265389537e+03 
       1.070931966762e-01       5.283135787646e+03 
       1.107452594425e-01       5.069421618921e+03 
       1.145064249153e-01       4.895248093219e+03 
       1.183821370918e-01       4.747835628371e+03 
       1.223778605862e-01       4.611696298214e+03 
       1.264990921987e-01       4.470601543375e+03 
       1.307513701367e-01       4.310246499274e+03 
       1.351402814784e-01       4.121366729154e+03 
       1.396714684203e-01       3.902054654288e+03 
       1.443506338194e-01       3.658642652269e+03 
       1.491835465229e-01       3.404483448830e+03 
       1.541760469708e-01       3.156655375245e+03 
       1.593340535561e-01       2.931940947315e+03 
       1.646635702297e-01       2.742355904795e+03 
       1.701706958456e-01       2.592235152701e+03 
       1.758616357459e-01       2.477221193051e+03 
       1.817427160982e-01       2.385162343258e+03 
       1.878204015065e-01       2.300346226393e+03 
       1.941013164283e-01       2.205737376677e+03 
       2.005922709503e-01       2.090801947453e+03 
       2.073002914972e-01       1.956444936922e+03 
       2.142326570816e-01       1.814172785263e+03 
       2.213969417533e-01       1.679264481057e+03 
       2.288010639706e-01       1.563823718316e+03 
       2.364533437147e-01       1.472663922750e+03 
       2.443625682930e-01       1.401501368293e+03 
       2.525380679504e-01       1.338394128658e+03 
       2.609898026346e-01       1.270883071458e+03 
       2.697284615565e-01       1.193364962556e+03 
       2.787655775689e-01       1.109318568056e+03 
       2.881136588829e-01       1.028749529358e+03 
       2.977863412677e-01       9.604612047424e+02 
       3.077985646929e-01       9.050030751898e+02 
       3.181667794071e-01       8.561257654639e+02 
       3.289091877812e-01       8.061684968816e+02 
       3.400460299658e-01       7.523715547754e+02 
       3.515999236474e-01       6.989032428036e+02 
       3.635962711085e-01       6.510432828805e+02 
       3.760637506334e-01       6.101031044807e+02 
       3.890349143879e-01       5.721137842585e+02 
       4.025469216825e-01       5.337642275921e+02 
       4.166424456376e-01       4.956144098543e+02 
       4.313708035863e-01       4.604502307618e+02 
       4.467893782977e-01       4.287584001910e+02 
       4.629654199664e-01       3.987553645891e+02 
       4.799783501994e-01       3.692245361178e+02 
       4.979227319373e-01       3.412225780080e+02 
       5.169121270864e-01       3.154668518390e+02 
       5.370841404489e-01       2.908197583708e+02 
       5.586070464571e-01       2.670893535898e+02 
       5.816885094930e-01       2.447937899110e+02 
       6.065870144995e-01       2.235521834438e+02 
       6.336266468475e-01       2.031949550648e+02 
       6.632156059511e-01       1.838634967132e+02 
       6.958678639263e-01       1.653403378160e+02 
       7.322247985589e-01       1.476817586637e+02 
       7.730680195114e-01       1.308203898673e+02 
       8.193049553677e-01       1.148181965852e+02 
       8.718988016039e-01       9.974993841518e+01 
       9.317218031082e-01       8.576567803570e+01 
       9.993660908989e-01       7.304322141102e+01 
       1.075037110174e+00       6.172484549687e+01 
       1.158653485707e+00       5.186838668990e+01 
       1.250099157308e+00       4.343025389974e+01 
       1.349432401273e+00       3.627986607698e+01 
       1.456947457397e+00       3.025916610398e+01 
       1.573135111331e+00       2.520603742058e+01 
       1.698621895592e+00       2.097404821243e+01 
       1.834127512934e+00       1.743493262569e+01 
       1.980444934528e+00       1.447864442161e+01 
       2.138435191726e+00       1.201233836425e+01 
       2.309029199186e+00       9.957006880513e+00 
       2.493232377687e+00       8.246037051354e+00 
       2.692130395285e+00       6.823217469350e+00 
       2.906895534573e+00       5.641203529318e+00 
       3.138793597714e+00       4.660189524943e+00 
       3.389191366484e+00       3.846720570720e+00 
       3.659564657905e+00       3.172857063777e+00 
       3.951507022538e+00       2.615091964947e+00 
       4.266739136701e+00       2.153838274417e+00 
       4.607118943941e+00       1.772666622896e+00 
       4.974652605557e+00       1.457960110488e+00 
       5.371506324689e+00       1.198328392713e+00 
       5.800019113685e+00       9.842759215227e-01 
       6.262716579983e+00       8.079430363410e-01 
       6.762325811764e+00       6.627820078128e-01 
       7.301791451110e+00       5.433658854611e-01 
       7.884293049406e+00       4.451942700317e-01 
       8.513263807261e+00       3.645415006556e-01 
       9.192410809424e+00       2.983224322099e-01 
       9.925736873929e+00       2.439902413573e-01 
       1.071756414427e+01       1.994347727382e-01 
       1.157255956364e+01       1.629220995373e-01 
       1.249576238137e+01       1.330146463782e-01 
       1.349261385375e+01       1.085342529937e-01 
       1.456898931416e+01       8.850729441558e-02 
       1.573123280165e+01       7.213193831975e-02 
       1.698619445202e+01       5.875193949113e-02 
       1.834127087176e+01       4.782247903192e-02 
       1.980444873285e+01       3.890244412121e-02 
       2.138435184532e+01       3.162480196889e-02 
       2.309029198506e+01       2.569105901536e-02 
       2.493232377636e+01       2.085562590592e-02 
       2.692130395282e+01       1.691775261794e-02 
       2.906895534573e+01       1.371264194250e-02 
       3.138793597714e+01       1.110512099134e-02 
       3.389191366484e+01       8.985655209343e-03 
       3.659564657905e+01       7.263525573719e-03 
       3.951507022538e+01       5.865548786409e-03 
       4.266739136701e+01       4.731247385467e-03 
       4.607118943941e+01       3.811638794903e-03 
       4.974652605557e+01       3.066780381733e-03 
       5.371506324689e+01       2.463868951100e-03 
       5.800019113685e+01       1.976297576654e-03 
       6.262716579983e+01       1.582417710105e-03 
       6.762325811764e+01       1.264532503661e-03 
       7.301791451110e+01       1.008406931647e-03 
       7.884293049406e+01       8.022625235779e-04 
       8.513263807261e+01       6.365367967525e-04 
       9.192410809424e+01       5.035660849106e-04 
       9.925736873929e+01       3.970295313576e-04 
       1.071756414427e+02       3.118610308383e-04 
       1.157255956364e+02       2.439531634104e-04 
       1.249576238137e+02       1.899566418395e-04 
       1.349261385375e+02       1.471268448074e-04 
