# Matter power spectrum P(k) at redshift z=99
# for k=1.04775e-05 to 134.926 h/Mpc,
# number of wavenumbers equal to 255
#    1:k (h/Mpc)              2:P (Mpc/h)^3        
       1.047750691338e-05       7.261927096870e-03 
       1.131335172818e-05       7.820332152462e-03 
       1.221587619877e-05       8.421675384166e-03 
       1.319039970550e-05       9.069257739980e-03 
       1.424266598317e-05       9.766636453255e-03 
       1.537887697396e-05       1.051763973870e-02 
       1.660572938097e-05       1.132639250999e-02 
       1.793045413791e-05       1.219733201773e-02 
       1.936085902737e-05       1.313524187490e-02 
       2.090537469909e-05       1.414527085286e-02 
       2.257310435923e-05       1.523296544825e-02 
       2.437387742372e-05       1.640429654999e-02 
       2.631830745176e-05       1.766569603672e-02 
       2.841785470091e-05       1.902408711578e-02 
       3.068489367268e-05       2.048692967891e-02 
       3.313278604643e-05       2.206225468029e-02 
       3.577595943165e-05       2.375870884364e-02 
       3.862999240274e-05       2.558560670383e-02 
       4.171170631739e-05       2.755297673121e-02 
       4.503926445983e-05       2.967161934069e-02 
       4.863227909323e-05       3.195316456361e-02 
       5.251192705226e-05       3.441013466884e-02 
       5.670107455699e-05       3.705601742525e-02 
       6.122441198393e-05       3.990533413734e-02 
       6.610859938837e-05       4.297372243488e-02 
       7.138242363583e-05       4.627802055940e-02 
       7.707696806873e-05       4.983636161001e-02 
       8.322579570814e-05       5.366826788111e-02 
       8.986514707061e-05       5.779476321006e-02 
       9.703415376577e-05       6.223848223201e-02 
       1.047750691338e-04       6.702379826492e-02 
       1.131335172818e-04       7.217695032625e-02 
       1.221587619877e-04       7.772619032057e-02 
       1.319039970550e-04       8.370193381933e-02 
       1.424266598317e-04       9.013692508628e-02 
       1.537887697396e-04       9.706641132519e-02 
       1.660572938097e-04       1.045283343340e-01 
       1.793045413791e-04       1.125635329431e-01 
       1.936085902737e-04       1.212159592574e-01 
       2.090537469909e-04       1.305329107720e-01 
       2.257310435923e-04       1.405652819668e-01 
       2.437387742372e-04       1.513678275403e-01 
       2.631830745176e-04       1.629994475488e-01 
       2.841785470091e-04       1.755234890859e-01 
       3.068489367268e-04       1.890080645709e-01 
       3.313278604643e-04       2.035263977871e-01 
       3.577595943165e-04       2.191571778516e-01 
       3.862999240274e-04       2.359849423765e-01 
       4.171170631739e-04       2.541004713543e-01 
       4.503926445983e-04       2.736012061737e-01 
       4.863227909323e-04       2.945916775260e-01 
       5.251192705226e-04       3.171839508521e-01 
       5.670107455699e-04       3.414980769807e-01 
       6.122441198393e-04       3.676625417042e-01 
       6.610859938837e-04       3.958147273649e-01 
       7.138242363583e-04       4.261013332891e-01 
       7.707696806873e-04       4.586787881717e-01 
       8.322579570814e-04       4.937136113727e-01 
       8.986514707061e-04       5.313826963016e-01 
       9.703415376577e-04       5.718735177769e-01 
       1.047750691338e-03       6.153841927231e-01 
       1.131335172818e-03       6.621233624104e-01 
       1.221587619877e-03       7.123098744615e-01 
       1.319039970550e-03       7.661721264702e-01 
       1.424266598317e-03       8.239547182150e-01 
       1.537887697396e-03       8.859012283537e-01 
       1.660572938097e-03       9.522589496252e-01 
       1.793045413791e-03       1.023280284752e+00 
       1.936085902737e-03       1.099216542092e+00 
       2.090537469909e-03       1.180313284952e+00 
       2.257310435923e-03       1.266804486625e+00 
       2.437387742372e-03       1.358905328142e+00 
       2.631830745176e-03       1.456803285440e+00 
       2.841785470091e-03       1.560647662269e+00 
       3.068489367268e-03       1.670537009457e+00 
       3.313278604643e-03       1.786505038041e+00 
       3.577595943165e-03       1.908504407875e+00 
       3.862999240274e-03       2.036389465637e+00 
       4.171170631739e-03       2.169898248498e+00 
       4.503926445983e-03       2.308634486053e+00 
       4.863227909323e-03       2.452050666671e+00 
       5.251192705226e-03       2.599434670082e+00 
       5.670107455699e-03       2.749901110931e+00 
       6.122441198393e-03       2.902390099391e+00 
       6.610859938837e-03       3.055671855336e+00 
       7.138242363583e-03       3.208360026962e+00 
       7.707696806873e-03       3.358926528606e+00 
       8.322579570814e-03       3.505728022254e+00 
       8.986514707061e-03       3.647013023369e+00 
       9.703415376577e-03       3.780925863964e+00 
       1.047750691338e-02       3.905492718611e+00 
       1.131335172818e-02       4.018589397645e+00 
       1.221587619877e-02       4.117902604622e+00 
       1.319039970550e-02       4.200917307870e+00 
       1.424266598317e-02       4.264943244231e+00 
       1.537887697392e-02       4.307218991046e+00 
       1.660572938023e-02       4.325061570229e+00 
       1.793045412706e-02       4.316059268893e+00 
       1.936085890181e-02       4.278227430147e+00 
       2.090537352463e-02       4.210202728099e+00 
       2.257309535333e-02       4.111416467683e+00 
       2.437382002918e-02       3.982418062708e+00 
       2.631799944462e-02       3.825165086594e+00 
       2.841644545389e-02       3.643277654744e+00 
       3.067933355377e-02       3.442193221380e+00 
       3.311368470740e-02       3.229231039697e+00 
       3.571840443502e-02       3.013508304202e+00 
       3.847720348444e-02       2.805275302148e+00 
       4.135335538431e-02       2.614399437430e+00 
       4.429361667738e-02       2.448119301787e+00 
       4.724366439141e-02       2.309226013392e+00 
       5.016480835311e-02       2.196098801376e+00 
       5.303989620246e-02       2.104351730050e+00 
       5.586870669566e-02       2.028442769505e+00 
       5.866042680613e-02       1.963133847075e+00 
       6.142798932958e-02       1.903756672961e+00 
       6.418496440164e-02       1.846454643805e+00 
       6.694418833788e-02       1.788171457182e+00 
       6.971731106057e-02       1.726688301575e+00 
       7.251476155766e-02       1.660625756598e+00 
       7.534587671527e-02       1.589440898627e+00 
       7.821907666265e-02       1.513406428098e+00 
       8.114203772912e-02       1.433537599254e+00 
       8.412184535029e-02       1.351459205189e+00 
       8.716512279304e-02       1.269240122050e+00 
       9.027813695930e-02       1.189158489640e+00 
       9.346688431697e-02       1.113465244791e+00 
       9.673716028276e-02       1.044137662081e+00 
       1.000946150830e-01       9.826680571821e-01 
       1.035447986537e-01       9.298976051146e-01 
       1.070931966762e-01       8.859179205123e-01 
       1.107452594425e-01       8.500289896533e-01 
       1.145064249153e-01       8.207595900295e-01 
       1.183821370918e-01       7.959788301190e-01 
       1.223778605862e-01       7.730985249936e-01 
       1.264990921987e-01       7.494023608399e-01 
       1.307513701367e-01       7.225070560903e-01 
       1.351402814784e-01       6.908571542867e-01 
       1.396714684203e-01       6.541283980562e-01 
       1.443506338194e-01       6.133732945373e-01 
       1.491835465229e-01       5.708141883856e-01 
       1.541760469708e-01       5.293101018498e-01 
       1.593340535561e-01       4.916555793166e-01 
       1.646635702297e-01       4.598641154577e-01 
       1.701706958456e-01       4.346708769083e-01 
       1.758616357459e-01       4.153493806644e-01 
       1.817427160982e-01       3.998770032804e-01 
       1.878204015065e-01       3.856211803892e-01 
       1.941013164283e-01       3.697465254429e-01 
       2.005922709503e-01       3.504826812775e-01 
       2.073002914972e-01       3.279788446777e-01 
       2.142326570816e-01       3.041486854633e-01 
       2.213969417533e-01       2.815467918648e-01 
       2.288010639706e-01       2.621913393569e-01 
       2.364533437147e-01       2.468953972780e-01 
       2.443625682930e-01       2.349452969166e-01 
       2.525380679504e-01       2.243490485854e-01 
       2.609898026346e-01       2.130239558632e-01 
       2.697284615565e-01       2.000314033530e-01 
       2.787655775689e-01       1.859499666085e-01 
       2.881136588829e-01       1.724467509636e-01 
       2.977863412677e-01       1.609948389423e-01 
       3.077985646929e-01       1.516888457017e-01 
       3.181667794071e-01       1.434866528674e-01 
       3.289091877812e-01       1.351081765952e-01 
       3.400460299658e-01       1.260907534770e-01 
       3.515999236474e-01       1.171281501312e-01 
       3.635962711085e-01       1.091028526360e-01 
       3.760637506334e-01       1.022351260664e-01 
       3.890349143879e-01       9.586258687543e-02 
       4.025469216825e-01       8.943251011529e-02 
       4.166424456376e-01       8.303655804319e-02 
       4.313708035863e-01       7.714018918445e-02 
       4.467893782977e-01       7.182506275729e-02 
       4.629654199664e-01       6.679332357803e-02 
       4.799783501994e-01       6.184173867219e-02 
       4.979227319373e-01       5.714651019598e-02 
       5.169121270864e-01       5.282711040837e-02 
       5.370841404489e-01       4.869407530133e-02 
       5.586070464571e-01       4.471515862399e-02 
       5.816885094930e-01       4.097633808840e-02 
       6.065870144995e-01       3.741458373340e-02 
       6.336266468475e-01       3.400126950626e-02 
       6.632156059511e-01       3.075985317181e-02 
       6.958678639263e-01       2.765399989206e-02 
       7.322247985589e-01       2.469323911728e-02 
       7.730680195114e-01       2.186621743689e-02 
       8.193049553677e-01       1.918345274677e-02 
       8.718988016039e-01       1.665737619895e-02 
       9.317218031082e-01       1.431320787765e-02 
       9.993660908989e-01       1.218072103334e-02 
       1.075037110174e+00       1.028383119689e-02 
       1.158653485707e+00       8.632297576614e-03 
       1.250099157308e+00       7.218504641082e-03 
       1.349432401273e+00       6.020843003499e-03 
       1.456947457397e+00       5.012639980172e-03 
       1.573135111331e+00       4.166806640537e-03 
       1.698621895592e+00       3.458699089159e-03 
       1.834127512934e+00       2.866826775988e-03 
       1.980444934528e+00       2.372738196395e-03 
       2.138435191726e+00       1.960842311572e-03 
       2.309029199186e+00       1.617893619152e-03 
       2.493232377687e+00       1.332729451604e-03 
       2.692130395285e+00       1.095897841276e-03 
       2.906895534573e+00       8.994651748367e-04 
       3.138793597714e+00       7.367481567454e-04 
       3.389191366484e+00       6.021455660682e-04 
       3.659564657905e+00       4.909500760449e-04 
       3.951507022538e+00       3.992283616914e-04 
       4.266739136701e+00       3.236924117666e-04 
       4.607118943941e+00       2.615889033176e-04 
       4.974652605557e+00       2.106212126072e-04 
       5.371506324689e+00       1.688834503420e-04 
       5.800019113685e+00       1.347818426377e-04 
       6.262716579983e+00       1.069927334515e-04 
       6.762325811764e+00       8.441535792246e-05 
       7.301791451110e+00       6.613823337841e-05 
       7.884293049406e+00       5.140270011838e-05 
       8.513263807261e+00       3.958041140966e-05 
       9.192410809424e+00       3.014913548870e-05 
       9.925736873929e+00       2.267774284554e-05 
       1.071756414427e+01       1.680707971593e-05 
       1.157255956364e+01       1.224021536397e-05 
       1.249576238137e+01       8.729693847106e-06 
       1.349261385375e+01       6.070774987044e-06 
       1.456898931416e+01       4.093154692446e-06 
       1.573123280165e+01       2.655245618519e-06 
       1.698619445202e+01       1.638972228530e-06 
       1.834127087176e+01       9.470302246529e-07 
       1.980444873285e+01       4.986176887551e-07 
       2.138435184532e+01       2.277360419993e-07 
       2.309029198506e+01       8.095379873373e-08 
       2.493232377636e+01       1.590829512531e-08 
       2.692130395282e+01       4.150917302392e-14 
       2.906895534573e+01       9.135519255212e-09 
       3.138793597714e+01       2.674735647994e-08 
       3.389191366484e+01       4.258686857315e-08 
       3.659564657905e+01       5.154878882600e-08 
       3.951507022538e+01       5.240034181142e-08 
       4.266739136701e+01       4.646743779370e-08 
       4.607118943941e+01       3.642079881477e-08 
       4.974652605557e+01       2.517016249575e-08 
       5.371506324689e+01       1.508719060824e-08 
       5.800019113685e+01       7.557332935030e-09 
       6.262716579983e+01       2.917509030442e-09 
       6.762325811764e+01       6.981760940373e-10 
       7.301791451110e+01       3.154228279272e-11 
       7.884293049406e+01       6.282577844223e-11 
       8.513263807261e+01       2.142236367005e-10 
       9.192410809424e+01       2.499267631179e-10 
       9.925736873929e+01       1.748549632045e-10 
       1.071756414427e+02       7.786304646528e-11 
       1.157255956364e+02       1.878498339767e-11 
       1.249576238137e+02       8.748970003965e-13 
       1.349261385375e+02       7.851378136142e-13 
