# Matter power spectrum P(k) at redshift z=99
# for k=1.04775e-05 to 134.926 h/Mpc,
# number of wavenumbers equal to 255
#    1:k (h/Mpc)              2:P (Mpc/h)^3        
       1.047750691338e-05       7.261927095304e-03 
       1.131335172818e-05       7.820332150776e-03 
       1.221587619877e-05       8.421675382352e-03 
       1.319039970550e-05       9.069257738027e-03 
       1.424266598317e-05       9.766636451151e-03 
       1.537887697396e-05       1.051763973644e-02 
       1.660572938097e-05       1.132639250755e-02 
       1.793045413791e-05       1.219733201512e-02 
       1.936085902737e-05       1.313524187207e-02 
       2.090537469909e-05       1.414527084982e-02 
       2.257310435923e-05       1.523296544497e-02 
       2.437387742372e-05       1.640429654646e-02 
       2.631830745176e-05       1.766569603293e-02 
       2.841785470091e-05       1.902408711170e-02 
       3.068489367268e-05       2.048692967452e-02 
       3.313278604643e-05       2.206225467558e-02 
       3.577595943165e-05       2.375870883862e-02 
       3.862999240274e-05       2.558560669833e-02 
       4.171170631739e-05       2.755297672520e-02 
       4.503926445983e-05       2.967161933427e-02 
       4.863227909323e-05       3.195316455671e-02 
       5.251192705226e-05       3.441013466150e-02 
       5.670107455699e-05       3.705601741720e-02 
       6.122441198393e-05       3.990533412855e-02 
       6.610859938837e-05       4.297372242551e-02 
       7.138242363583e-05       4.627802054874e-02 
       7.707696806873e-05       4.983636159911e-02 
       8.322579570814e-05       5.366826786957e-02 
       8.986514707061e-05       5.779476319760e-02 
       9.703415376577e-05       6.223848221864e-02 
       1.047750691338e-04       6.702379825052e-02 
       1.131335172818e-04       7.217695031112e-02 
       1.221587619877e-04       7.772619030398e-02 
       1.319039970550e-04       8.370193380082e-02 
       1.424266598317e-04       9.013692506710e-02 
       1.537887697396e-04       9.706641130446e-02 
       1.660572938097e-04       1.045283343116e-01 
       1.793045413791e-04       1.125635329191e-01 
       1.936085902737e-04       1.212159592316e-01 
       2.090537469909e-04       1.305329107443e-01 
       2.257310435923e-04       1.405652819369e-01 
       2.437387742372e-04       1.513678275085e-01 
       2.631830745176e-04       1.629994475143e-01 
       2.841785470091e-04       1.755234890489e-01 
       3.068489367268e-04       1.890080645312e-01 
       3.313278604643e-04       2.035263977445e-01 
       3.577595943165e-04       2.191571778060e-01 
       3.862999240274e-04       2.359849423277e-01 
       4.171170631739e-04       2.541004713020e-01 
       4.503926445983e-04       2.736012061179e-01 
       4.863227909323e-04       2.945916774665e-01 
       5.251192705226e-04       3.171839507887e-01 
       5.670107455699e-04       3.414980769133e-01 
       6.122441198393e-04       3.676625416328e-01 
       6.610859938837e-04       3.958147272894e-01 
       7.138242363583e-04       4.261013332096e-01 
       7.707696806873e-04       4.586787880883e-01 
       8.322579570814e-04       4.937136112856e-01 
       8.986514707061e-04       5.313826962114e-01 
       9.703415376577e-04       5.718735176844e-01 
       1.047750691338e-03       6.153841926291e-01 
       1.131335172818e-03       6.621233623165e-01 
       1.221587619877e-03       7.123098743696e-01 
       1.319039970550e-03       7.661721263830e-01 
       1.424266598317e-03       8.239547181344e-01 
       1.537887697396e-03       8.859012282856e-01 
       1.660572938097e-03       9.522589495784e-01 
       1.793045413791e-03       1.023280284739e+00 
       1.936085902737e-03       1.099216542128e+00 
       2.090537469909e-03       1.180313285058e+00 
       2.257310435923e-03       1.266804486829e+00 
       2.437387742372e-03       1.358905328481e+00 
       2.631830745176e-03       1.456803285964e+00 
       2.841785470091e-03       1.560647663046e+00 
       3.068489367268e-03       1.670537010576e+00 
       3.313278604643e-03       1.786505039624e+00 
       3.577595943165e-03       1.908504410084e+00 
       3.862999240274e-03       2.036389468695e+00 
       4.171170631739e-03       2.169898252697e+00 
       4.503926445983e-03       2.308634491806e+00 
       4.863227909323e-03       2.452050674529e+00 
       5.251192705226e-03       2.599434680773e+00 
       5.670107455699e-03       2.749901125946e+00 
       6.122441198393e-03       2.902390057597e+00 
       6.610859938837e-03       3.055671268809e+00 
       7.138242363583e-03       3.208360121438e+00 
       7.707696806873e-03       3.358926649436e+00 
       8.322579570814e-03       3.505726887262e+00 
       8.986514707061e-03       3.647012434348e+00 
       9.703415376577e-03       3.780926174672e+00 
       1.047750691338e-02       3.905492874481e+00 
       1.131335172818e-02       4.018589817839e+00 
       1.221587619877e-02       4.117902877991e+00 
       1.319039970550e-02       4.200917686226e+00 
       1.424266598317e-02       4.264943720479e+00 
       1.537887697392e-02       4.307219645705e+00 
       1.660572938023e-02       4.325062426830e+00 
       1.793045412706e-02       4.316060352102e+00 
       1.936085890181e-02       4.278228880470e+00 
       2.090537352463e-02       4.210204406698e+00 
       2.257309535333e-02       4.111418663082e+00 
       2.437382002918e-02       3.982420827648e+00 
       2.631799944462e-02       3.825168547521e+00 
       2.841644545389e-02       3.643282066114e+00 
       3.067933355377e-02       3.442198491512e+00 
       3.311368470740e-02       3.229241356336e+00 
       3.571840443502e-02       3.013516018561e+00 
       3.847720348444e-02       2.805283573680e+00 
       4.135335538431e-02       2.614410234315e+00 
       4.429361667738e-02       2.448131693878e+00 
       4.724366439141e-02       2.309240096467e+00 
       5.016480835311e-02       2.196114585052e+00 
       5.303989620246e-02       2.104369194628e+00 
       5.586870669566e-02       2.028461878254e+00 
       5.866042680613e-02       1.963154550676e+00 
       6.142798932958e-02       1.903778907388e+00 
       6.418496440164e-02       1.846478370941e+00 
       6.694418833788e-02       1.788196601609e+00 
       6.971731106057e-02       1.726714775474e+00 
       7.251476155766e-02       1.660653459148e+00 
       7.534587671527e-02       1.589468906125e+00 
       7.821907666265e-02       1.513435596100e+00 
       8.114203772912e-02       1.433567776926e+00 
       8.412184535029e-02       1.351491258771e+00 
       8.716512279304e-02       1.269272718757e+00 
       9.027813695930e-02       1.189192148407e+00 
       9.346688431697e-02       1.113500073826e+00 
       9.673716028276e-02       1.044173397636e+00 
       1.000946150830e-01       9.827049067565e-01 
       1.035447986537e-01       9.299358117859e-01 
       1.070931966762e-01       8.859573537809e-01 
       1.107452594425e-01       8.500698911301e-01 
       1.145064249153e-01       8.208020880573e-01 
       1.183821370918e-01       7.960229536488e-01 
       1.223778605862e-01       7.731441572068e-01 
       1.264990921987e-01       7.494504076418e-01 
       1.307513701367e-01       7.225554631342e-01 
       1.351402814784e-01       6.909068032080e-01 
       1.396714684203e-01       6.541790810976e-01 
       1.443506338194e-01       6.134246689212e-01 
       1.491835465229e-01       5.708659338039e-01 
       1.541760469708e-01       5.293624223919e-01 
       1.593340535561e-01       4.917089612794e-01 
       1.646635702297e-01       4.599180481794e-01 
       1.701706958456e-01       4.347259640256e-01 
       1.758616357459e-01       4.154058304909e-01 
       1.817427160982e-01       3.999354220454e-01 
       1.878204015065e-01       3.856805446906e-01 
       1.941013164283e-01       3.698071507818e-01 
       2.005922709503e-01       3.505443380660e-01 
       2.073002914972e-01       3.280409457918e-01 
       2.142326570816e-01       3.042115642517e-01 
       2.213969417533e-01       2.816094720777e-01 
       2.288010639706e-01       2.622546418911e-01 
       2.364533437147e-01       2.469595997345e-01 
       2.443625682930e-01       2.350109640679e-01 
       2.525380679504e-01       2.244155651804e-01 
       2.609898026346e-01       2.130910852477e-01 
       2.697284615565e-01       2.000997572043e-01 
       2.787655775689e-01       1.860178792389e-01 
       2.881136588829e-01       1.725149699344e-01 
       2.977863412677e-01       1.610637407902e-01 
       3.077985646929e-01       1.517585729831e-01 
       3.181667794071e-01       1.435571401237e-01 
       3.289091877812e-01       1.351792976789e-01 
       3.400460299658e-01       1.261619954834e-01 
       3.515999236474e-01       1.171997143163e-01 
       3.635962711085e-01       1.091746715208e-01 
       3.760637506334e-01       1.023072970821e-01 
       3.890349143879e-01       9.593546352728e-02 
       4.025469216825e-01       8.950547456119e-02 
       4.166424456376e-01       8.310947747717e-02 
       4.313708035863e-01       7.721320163142e-02 
       4.467893782977e-01       7.189834858063e-02 
       4.629654199664e-01       6.686680573255e-02 
       4.799783501994e-01       6.191529203947e-02 
       4.979227319373e-01       5.721996860580e-02 
       5.169121270864e-01       5.290065777315e-02 
       5.370841404489e-01       4.876757360195e-02 
       5.586070464571e-01       4.478850630517e-02 
       5.816885094930e-01       4.104970456207e-02 
       6.065870144995e-01       3.748773914856e-02 
       6.336266468475e-01       3.407404139386e-02 
       6.632156059511e-01       3.083238718437e-02 
       6.958678639263e-01       2.772623818006e-02 
       7.322247985589e-01       2.476503756207e-02 
       7.730680195114e-01       2.193753520426e-02 
       8.193049553677e-01       1.925410500698e-02 
       8.718988016039e-01       1.672730316961e-02 
       9.317218031082e-01       1.438220470854e-02 
       9.993660908989e-01       1.224872844625e-02 
       1.075037110174e+00       1.035070038779e-02 
       1.158653485707e+00       8.697820338030e-03 
       1.250099157308e+00       7.282772943585e-03 
       1.349432401273e+00       6.083688812340e-03 
       1.456947457397e+00       5.074025087859e-03 
       1.573135111331e+00       4.226616173981e-03 
       1.698621895592e+00       3.516913876323e-03 
       1.834127512934e+00       2.923397780084e-03 
       1.980444934528e+00       2.427623271242e-03 
       2.138435191726e+00       2.014017831570e-03 
       2.309029199186e+00       1.669329926696e-03 
       2.493232377687e+00       1.382393616909e-03 
       2.692130395285e+00       1.143778199332e-03 
       2.906895534573e+00       9.455487189782e-04 
       3.138793597714e+00       7.810261781373e-04 
       3.389191366484e+00       6.446063893181e-04 
       3.659564657905e+00       5.315884862545e-04 
       3.951507022538e+00       4.380527329472e-04 
       4.266739136701e+00       3.606980457079e-04 
       4.607118943941e+00       2.967767421537e-04 
       4.974652605557e+00       2.440030188635e-04 
       5.371506324689e+00       2.004650301800e-04 
       5.800019113685e+00       1.645724486150e-04 
       6.262716579983e+00       1.350074087255e-04 
       6.762325811764e+00       1.106696444790e-04 
       7.301791451110e+00       9.065137723610e-05 
       7.884293049406e+00       7.419616212888e-05 
       8.513263807261e+00       6.067952175275e-05 
       9.192410809424e+00       4.958427471964e-05 
       9.925736873929e+00       4.048277378854e-05 
       1.071756414427e+01       3.302193756313e-05 
       1.157255956364e+01       2.690999838925e-05 
       1.249576238137e+01       2.190663498106e-05 
       1.349261385375e+01       1.781356047126e-05 
       1.456898931416e+01       1.446763447700e-05 
       1.573123280165e+01       1.173461836412e-05 
       1.698619445202e+01       9.503666387474e-06 
       1.834127087176e+01       7.684247230987e-06 
       1.980444873285e+01       6.201746510791e-06 
       2.138435184532e+01       4.994971352208e-06 
       2.309029198506e+01       4.013603869491e-06 
       2.493232377636e+01       3.216504013878e-06 
       2.692130395282e+01       2.569897297093e-06 
       2.906895534573e+01       2.046178774438e-06 
       3.138793597714e+01       1.622752592914e-06 
       3.389191366484e+01       1.281061090521e-06 
       3.659564657905e+01       1.005993023037e-06 
       3.951507022538e+01       7.851637128965e-07 
       4.266739136701e+01       6.084831771524e-07 
       4.607118943941e+01       4.676771089897e-07 
       4.974652605557e+01       3.560012020833e-07 
       5.371506324689e+01       2.679405107199e-07 
       5.800019113685e+01       1.989996604909e-07 
       6.262716579983e+01       1.454839215882e-07 
       6.762325811764e+01       1.043826636833e-07 
       7.301791451110e+01       7.322484197090e-08 
       7.884293049406e+01       4.998317798071e-08 
       8.513263807261e+01       3.299275680755e-08 
       9.192410809424e+01       2.088223622672e-08 
       9.925736873929e+01       1.252464449303e-08 
       1.071756414427e+02       6.994905395506e-09 
       1.157255956364e+02       3.536222748383e-09 
       1.249576238137e+02       1.538065218778e-09 
       1.349261385375e+02       5.153837499664e-10 
