# Matter power spectrum P(k) at redshift z=0
# for k=1.04775e-05 to 134.926 h/Mpc,
# number of wavenumbers equal to 255
#    1:k (h/Mpc)              2:P (Mpc/h)^3        
       1.047750691338e-05       5.020963906804e+01 
       1.131335172818e-05       5.407048937148e+01 
       1.221587619877e-05       5.822820724029e+01 
       1.319039970550e-05       6.270562047249e+01 
       1.424266598317e-05       6.752731476098e+01 
       1.537887697396e-05       7.271975715395e+01 
       1.660572938097e-05       7.831147101246e+01 
       1.793045413791e-05       8.433312302135e+01 
       1.936085902737e-05       9.081780130646e+01 
       2.090537469909e-05       9.780107449503e+01 
       2.257310435923e-05       1.053212938596e+02 
       2.437387742372e-05       1.134197268469e+02 
       2.631830745176e-05       1.221408285625e+02 
       2.841785470091e-05       1.315324590474e+02 
       3.068489367268e-05       1.416461671357e+02 
       3.313278604643e-05       1.525374478903e+02 
       3.577595943165e-05       1.642660517213e+02 
       3.862999240274e-05       1.768963429375e+02 
       4.171170631739e-05       1.904975997820e+02 
       4.503926445983e-05       2.051444243234e+02 
       4.863227909323e-05       2.209171412049e+02 
       5.251192705226e-05       2.379022266147e+02 
       5.670107455699e-05       2.561927841241e+02 
       6.122441198393e-05       2.758890479672e+02 
       6.610859938837e-05       2.970989213983e+02 
       7.138242363583e-05       3.199385559930e+02 
       7.707696806873e-05       3.445329727006e+02 
       8.322579570814e-05       3.710167324010e+02 
       8.986514707061e-05       3.995346444121e+02 
       9.703415376577e-05       4.302425389349e+02 
       1.047750691338e-04       4.633080773458e+02 
       1.131335172818e-04       4.989116271610e+02 
       1.221587619877e-04       5.372471938794e+02 
       1.319039970550e-04       5.785234116880e+02 
       1.424266598317e-04       6.229645933133e+02 
       1.537887697396e-04       6.708118487510e+02 
       1.660572938097e-04       7.223242657764e+02 
       1.793045413791e-04       7.777801571267e+02 
       1.936085902737e-04       8.374783638365e+02 
       2.090537469909e-04       9.017396276722e+02 
       2.257310435923e-04       9.709080297651e+02 
       2.437387742372e-04       1.045352453376e+03 
       2.631830745176e-04       1.125468127721e+03 
       2.841785470091e-04       1.211678185928e+03 
       3.068489367268e-04       1.304435256065e+03 
       3.313278604643e-04       1.404223062921e+03 
       3.577595943165e-04       1.511558029577e+03 
       3.862999240274e-04       1.626990852555e+03 
       4.171170631739e-04       1.751108045602e+03 
       4.503926445983e-04       1.884533404755e+03 
       4.863227909323e-04       2.027929406956e+03 
       5.251192705226e-04       2.181998483913e+03 
       5.670107455699e-04       2.347484146066e+03 
       6.122441198393e-04       2.525171925196e+03 
       6.610859938837e-04       2.715890054979e+03 
       7.138242363583e-04       2.920509779320e+03 
       7.707696806873e-04       3.139945208051e+03 
       8.322579570814e-04       3.375152477018e+03 
       8.986514707061e-04       3.627128020461e+03 
       9.703415376577e-04       3.896905669504e+03 
       1.047750691338e-03       4.185552452611e+03 
       1.131335172818e-03       4.494162775567e+03 
       1.221587619877e-03       4.823851150587e+03 
       1.319039970550e-03       5.175743278701e+03 
       1.424266598317e-03       5.551020298668e+03 
       1.537887697396e-03       5.950789185413e+03 
       1.660572938097e-03       6.376124150028e+03 
       1.793045413791e-03       6.828075236556e+03 
       1.936085902737e-03       7.307627051009e+03 
       2.090537469909e-03       7.815673958993e+03 
       2.257310435923e-03       8.352992922898e+03 
       2.437387742372e-03       8.920214306233e+03 
       2.631830745176e-03       9.517787166532e+03 
       2.841785470091e-03       1.014594130648e+04 
       3.068489367268e-03       1.080465136445e+04 
       3.313278604643e-03       1.149358239461e+04 
       3.577595943165e-03       1.221204586787e+04 
       3.862999240274e-03       1.295893666393e+04 
       4.171170631739e-03       1.373267338479e+04 
       4.503926445983e-03       1.453113499840e+04 
       4.863227909323e-03       1.535157115046e+04 
       5.251192705226e-03       1.619066154984e+04 
       5.670107455699e-03       1.704433880897e+04 
       6.122441198393e-03       1.790758124485e+04 
       6.610859938837e-03       1.877461996295e+04 
       7.138242363583e-03       1.963874649877e+04 
       7.707696806873e-03       2.049217384427e+04 
       8.322579570814e-03       2.132608013675e+04 
       8.986514707061e-03       2.213056717330e+04 
       9.703415376577e-03       2.289447296686e+04 
       1.047750691338e-02       2.360549524585e+04 
       1.131335172818e-02       2.425024122540e+04 
       1.221587619877e-02       2.481424701107e+04 
       1.319039970550e-02       2.528219959573e+04 
       1.424266598317e-02       2.563815119442e+04 
       1.537887697392e-02       2.586607600352e+04 
       1.660572938023e-02       2.595027073223e+04 
       1.793045412706e-02       2.587635542620e+04 
       1.936085890181e-02       2.563219702447e+04 
       2.090537352463e-02       2.520936106328e+04 
       2.257309535333e-02       2.460445404636e+04 
       2.437382002918e-02       2.382088506102e+04 
       2.631799944462e-02       2.287044818716e+04 
       2.841644545389e-02       2.177448757794e+04 
       3.067933355377e-02       2.056556742123e+04 
       3.311368470740e-02       1.928731418549e+04 
       3.571840443502e-02       1.799401960894e+04 
       3.847720348444e-02       1.674684590410e+04 
       4.135335538431e-02       1.560459552765e+04 
       4.429361667738e-02       1.461037634501e+04 
       4.724366439141e-02       1.378055666778e+04 
       5.016480835311e-02       1.310505238871e+04 
       5.303989620246e-02       1.255717800168e+04 
       5.586870669566e-02       1.210424027761e+04 
       5.866042680613e-02       1.171465027543e+04 
       6.142798932958e-02       1.136046763411e+04 
       6.418496440164e-02       1.101854797102e+04 
       6.694418833788e-02       1.067066983102e+04 
       6.971731106057e-02       1.030357250110e+04 
       7.251476155766e-02       9.909005668114e+03 
       7.534587671527e-02       9.483727308093e+03 
       7.821907666265e-02       9.029490623036e+03 
       8.114203772912e-02       8.552304332021e+03 
       8.412184535029e-02       8.061887654816e+03 
       8.716512279304e-02       7.570752054762e+03 
       9.027813695930e-02       7.092479592694e+03 
       9.346688431697e-02       6.640513527034e+03 
       9.673716028276e-02       6.226698910892e+03 
       1.000946150830e-01       5.859924120457e+03 
       1.035447986537e-01       5.545252667593e+03 
       1.070931966762e-01       5.283133498260e+03 
       1.107452594425e-01       5.069419256275e+03 
       1.145064249153e-01       4.895245654271e+03 
       1.183821370918e-01       4.747833132360e+03 
       1.223778605862e-01       4.611693690017e+03 
       1.264990921987e-01       4.470598383911e+03 
       1.307513701367e-01       4.310243820128e+03 
       1.351402814784e-01       4.121364014512e+03 
       1.396714684203e-01       3.902051928323e+03 
       1.443506338194e-01       3.658639923281e+03 
       1.491835465229e-01       3.404478762356e+03 
       1.541760469708e-01       3.156652691026e+03 
       1.593340535561e-01       2.931938243780e+03 
       1.646635702297e-01       2.742353190858e+03 
       1.701706958456e-01       2.592232415976e+03 
       1.758616357459e-01       2.477218417939e+03 
       1.817427160982e-01       2.385159523084e+03 
       1.878204015065e-01       2.300343363559e+03 
       1.941013164283e-01       2.205734484565e+03 
       2.005922709503e-01       2.090794739019e+03 
       2.073002914972e-01       1.956442034455e+03 
       2.142326570816e-01       1.814169882402e+03 
       2.213969417533e-01       1.679261719729e+03 
       2.288010639706e-01       1.563820900334e+03 
       2.364533437147e-01       1.472661233169e+03 
       2.443625682930e-01       1.401498533425e+03 
       2.525380679504e-01       1.338391276375e+03 
       2.609898026346e-01       1.270880215543e+03 
       2.697284615565e-01       1.193362315662e+03 
       2.787655775689e-01       1.109317350644e+03 
       2.881136588829e-01       1.028746820315e+03 
       2.977863412677e-01       9.604584476846e+02 
       3.077985646929e-01       9.050002967947e+02 
       3.181667794071e-01       8.561236757261e+02 
       3.289091877812e-01       8.061658711569e+02 
       3.400460299658e-01       7.523688479404e+02 
       3.515999236474e-01       6.989005686439e+02 
       3.635962711085e-01       6.510406461158e+02 
       3.760637506334e-01       6.101004850858e+02 
       3.890349143879e-01       5.721111565209e+02 
       4.025469216825e-01       5.337616591384e+02 
       4.166424456376e-01       4.956114997156e+02 
       4.313708035863e-01       4.604466378334e+02 
       4.467893782977e-01       4.287560872677e+02 
       4.629654199664e-01       3.987529984958e+02 
       4.799783501994e-01       3.692221482006e+02 
       4.979227319373e-01       3.412201621016e+02 
       5.169121270864e-01       3.154645133396e+02 
       5.370841404489e-01       2.908174774170e+02 
       5.586070464571e-01       2.670871517252e+02 
       5.816885094930e-01       2.447915886860e+02 
       6.065870144995e-01       2.235500445820e+02 
       6.336266468475e-01       2.031928993604e+02 
       6.632156059511e-01       1.838614360247e+02 
       6.958678639263e-01       1.653383140199e+02 
       7.322247985589e-01       1.476798280452e+02 
       7.730680195114e-01       1.308185073845e+02 
       8.193049553677e-01       1.148163679040e+02 
       8.718988016039e-01       9.974818328558e+01 
       9.317218031082e-01       8.576400433104e+01 
       9.993660908989e-01       7.304160777927e+01 
       1.075037110174e+00       6.172332509514e+01 
       1.158653485707e+00       5.186694142540e+01 
       1.250099157308e+00       4.342888604532e+01 
       1.349432401273e+00       3.627857049395e+01 
       1.456947457397e+00       3.025795005562e+01 
       1.573135111331e+00       2.520489130032e+01 
       1.698621895592e+00       2.097296676634e+01 
       1.834127512934e+00       1.743391589826e+01 
       1.980444934528e+00       1.447769207889e+01 
       2.138435191726e+00       1.201144787649e+01 
       2.309029199186e+00       9.956173003443e+00 
       2.493232377687e+00       8.245254179994e+00 
       2.692130395285e+00       6.822488109992e+00 
       2.906895534573e+00       5.640528917733e+00 
       3.138793597714e+00       4.659555239882e+00 
       3.389191366484e+00       3.846132700901e+00 
       3.659564657905e+00       3.172310908410e+00 
       3.951507022538e+00       2.614583192498e+00 
       4.266739136701e+00       2.153326962373e+00 
       4.607118943941e+00       1.772225867092e+00 
       4.974652605557e+00       1.457553303149e+00 
       5.371506324689e+00       1.197947420787e+00 
       5.800019113685e+00       9.839271220436e-01 
       6.262716579983e+00       8.076204201088e-01 
       6.762325811764e+00       6.624837598977e-01 
       7.301791451110e+00       5.430905857596e-01 
       7.884293049406e+00       4.449403683627e-01 
       8.513263807261e+00       3.643074993168e-01 
       9.192410809424e+00       2.981069996671e-01 
       9.925736873929e+00       2.437921681515e-01 
       1.071756414427e+01       1.992526021469e-01 
       1.157255956364e+01       1.627540833635e-01 
       1.249576238137e+01       1.328611027531e-01 
       1.349261385375e+01       1.083934113958e-01 
       1.456898931416e+01       8.837891708632e-02 
       1.573123280165e+01       7.201467313187e-02 
       1.698619445202e+01       5.864323795226e-02 
       1.834127087176e+01       4.772403845079e-02 
       1.980444873285e+01       3.881183869073e-02 
       2.138435184532e+01       3.154234365882e-02 
       2.309029198506e+01       2.561583622709e-02 
       2.493232377636e+01       2.078724467277e-02 
       2.692130395282e+01       1.685510427137e-02 
       2.906895534573e+01       1.365584918732e-02 
       3.138793597714e+01       1.105382104561e-02 
       3.389191366484e+01       8.939025903384e-03 
       3.659564657905e+01       7.221313147653e-03 
       3.951507022538e+01       5.827295547157e-03 
       4.266739136701e+01       4.696727010871e-03 
       4.607118943941e+01       3.780408309222e-03 
       4.974652605557e+01       3.038708926082e-03 
       5.371506324689e+01       2.438611229019e-03 
       5.800019113685e+01       1.953688942328e-03 
       6.262716579983e+01       1.562177630610e-03 
       6.762325811764e+01       1.246532438831e-03 
       7.301791451110e+01       9.923022670732e-04 
       7.884293049406e+01       7.877450053041e-04 
       8.513263807261e+01       6.237818518522e-04 
       9.192410809424e+01       4.922843709216e-04 
       9.925736873929e+01       3.870855025841e-04 
       1.071756414427e+02       3.031739066793e-04 
       1.157255956364e+02       2.363665257467e-04 
       1.249576238137e+02       1.833481176886e-04 
       1.349261385375e+02       1.414175602720e-04 
