# Matter power spectrum P(k) at redshift z=99
# for k=1.04775e-05 to 134.926 h/Mpc,
# number of wavenumbers equal to 255
#    1:k (h/Mpc)              2:P (Mpc/h)^3        
       1.047750691338e-05       7.262830705507e-03 
       1.131335172818e-05       7.821305158271e-03 
       1.221587619877e-05       8.422722911768e-03 
       1.319039970550e-05       9.070386567848e-03 
       1.424266598317e-05       9.767852303112e-03 
       1.537887697396e-05       1.051894970728e-02 
       1.660572938097e-05       1.132780146951e-02 
       1.793045413791e-05       1.219884769636e-02 
       1.936085902737e-05       1.313687309408e-02 
       2.090537469909e-05       1.414703006241e-02 
       2.257310435923e-05       1.523485781212e-02 
       2.437387742372e-05       1.640633453370e-02 
       2.631830745176e-05       1.766789008967e-02 
       2.841785470091e-05       1.902645284758e-02 
       3.068489367268e-05       2.048947724971e-02 
       3.313278604643e-05       2.206499736907e-02 
       3.577595943165e-05       2.376166274398e-02 
       3.862999240274e-05       2.558878758708e-02 
       4.171170631739e-05       2.755640131712e-02 
       4.503926445983e-05       2.967530833683e-02 
       4.863227909323e-05       3.195713664221e-02 
       5.251192705226e-05       3.441441171118e-02 
       5.670107455699e-05       3.706062250196e-02 
       6.122441198393e-05       3.991029228090e-02 
       6.610859938837e-05       4.297906201227e-02 
       7.138242363583e-05       4.628376979597e-02 
       7.707696806873e-05       4.984255160842e-02 
       8.322579570814e-05       5.367493230031e-02 
       8.986514707061e-05       5.780193798074e-02 
       9.703415376577e-05       6.224620659466e-02 
       1.047750691338e-04       6.703211265088e-02 
       1.131335172818e-04       7.218589985356e-02 
       1.221587619877e-04       7.773582286937e-02 
       1.319039970550e-04       8.371229954370e-02 
       1.424266598317e-04       9.014808063686e-02 
       1.537887697396e-04       9.707841506326e-02 
       1.660572938097e-04       1.045412489363e-01 
       1.793045413791e-04       1.125774245996e-01 
       1.936085902737e-04       1.212308989863e-01 
       2.090537469909e-04       1.305489735256e-01 
       2.257310435923e-04       1.405825479191e-01 
       2.437387742372e-04       1.513863810118e-01 
       2.631830745176e-04       1.630193773473e-01 
       2.841785470091e-04       1.755448876688e-01 
       3.068489367268e-04       1.890310299760e-01 
       3.313278604643e-04       2.035510298305e-01 
       3.577595943165e-04       2.191835788394e-01 
       3.862999240274e-04       2.360132148116e-01 
       4.171170631739e-04       2.541307199059e-01 
       4.503926445983e-04       2.736335316334e-01 
       4.863227909323e-04       2.946261753037e-01 
       5.251192705226e-04       3.172207070367e-01 
       5.670107455699e-04       3.415371620483e-01 
       6.122441198393e-04       3.677040084631e-01 
       6.610859938837e-04       3.958585954068e-01 
       7.138242363583e-04       4.261475815226e-01 
       7.707696806873e-04       4.587273413557e-01 
       8.322579570814e-04       4.937643176055e-01 
       8.986514707061e-04       5.314353075463e-01 
       9.703415376577e-04       5.719276527462e-01 
       1.047750691338e-03       6.154392973833e-01 
       1.131335172818e-03       6.621786618941e-01 
       1.221587619877e-03       7.123642929862e-01 
       1.319039970550e-03       7.662242113031e-01 
       1.424266598317e-03       8.240025706738e-01 
       1.537887697396e-03       8.859421137652e-01 
       1.660572938097e-03       9.522891948415e-01 
       1.793045413791e-03       1.023295069100e+00 
       1.936085902737e-03       1.099209503743e+00 
       2.090537469909e-03       1.180276073752e+00 
       2.257310435923e-03       1.266726053949e+00 
       2.437387742372e-03       1.358771061577e+00 
       2.631830745176e-03       1.456593854554e+00 
       2.841785470091e-03       1.560337382555e+00 
       3.068489367268e-03       1.670091799249e+00 
       3.313278604643e-03       1.785879559640e+00 
       3.577595943165e-03       1.907638069022e+00 
       3.862999240274e-03       2.035201460779e+00 
       4.171170631739e-03       2.168280452130e+00 
       4.503926445983e-03       2.306442044462e+00 
       4.863227909323e-03       2.449089941300e+00 
       5.251192705226e-03       2.595447287634e+00 
       5.670107455699e-03       2.744541503466e+00 
       6.122441198393e-03       2.895200711648e+00 
       6.610859938837e-03       3.046045443166e+00 
       7.138242363583e-03       3.195495509979e+00 
       7.707696806873e-03       3.341776248320e+00 
       8.322579570814e-03       3.482926186879e+00 
       8.986514707061e-03       3.616794561704e+00 
       9.703415376577e-03       3.741027171147e+00 
       1.047750691338e-02       3.853034820126e+00 
       1.131335172818e-02       3.949938151776e+00 
       1.221587619877e-02       4.028509420583e+00 
       1.319039970550e-02       4.085134253244e+00 
       1.424266598317e-02       4.115829813579e+00 
       1.537887697392e-02       4.116323643192e+00 
       1.660572938023e-02       4.082241207153e+00 
       1.793045412706e-02       4.009317562180e+00 
       1.936085890181e-02       3.893687338229e+00 
       2.090537352463e-02       3.732183631618e+00 
       2.257309535333e-02       3.522756511005e+00 
       2.437382002918e-02       3.265078817076e+00 
       2.631799944462e-02       2.961239862269e+00 
       2.841644545389e-02       2.616556994970e+00 
       3.067933355377e-02       2.240297810437e+00 
       3.311368470740e-02       1.846289953797e+00 
       3.571840443502e-02       1.453067417473e+00 
       3.847720348444e-02       1.082677302737e+00 
       4.135335538431e-02       7.569873481159e-01 
       4.429361667738e-02       4.919975576571e-01 
       4.724366439141e-02       2.933900821119e-01 
       5.016480835311e-02       1.566108445177e-01 
       5.303989620246e-02       7.092001155040e-02 
       5.586870669566e-02       2.377638445584e-02 
       5.866042680613e-02       3.509726166708e-03 
       6.142798932958e-02       3.683691743265e-04 
       6.418496440164e-02       6.716132547556e-03 
       6.694418833788e-02       1.689105228914e-02 
       6.971731106057e-02       2.697414440454e-02 
       7.251476155766e-02       3.453861478342e-02 
       7.534587671527e-02       3.839907213092e-02 
       7.821907666265e-02       3.836030941916e-02 
       8.114203772912e-02       3.494700837965e-02 
       8.412184535029e-02       2.914302499760e-02 
       8.716512279304e-02       2.213510491860e-02 
       9.027813695930e-02       1.508169423764e-02 
       9.346688431697e-02       8.929493535973e-03 
       9.673716028276e-02       4.291559277990e-03 
       1.000946150830e-01       1.401013049401e-03 
       1.035447986537e-01       1.362994791723e-04 
       1.070931966762e-01       1.115271547001e-04 
       1.107452594425e-01       8.047464027799e-04 
       1.145064249153e-01       1.695609871925e-03 
       1.183821370918e-01       2.380358182781e-03 
       1.223778605862e-01       2.639714290946e-03 
       1.264990921987e-01       2.447877044686e-03 
       1.307513701367e-01       1.928366893938e-03 
       1.351402814784e-01       1.277170597696e-03 
       1.396714684203e-01       6.816190244685e-04 
       1.443506338194e-01       2.616078089538e-04 
       1.491835465229e-01       4.857351585950e-05 
       1.541760469708e-01       4.955224043644e-07 
       1.593340535561e-01       4.012424574998e-05 
       1.646635702297e-01       9.496042459460e-05 
       1.701706958456e-01       1.223309765070e-04 
       1.758616357459e-01       1.136227532262e-04 
       1.817427160982e-01       8.222009972813e-05 
       1.878204015065e-01       4.729466352866e-05 
       1.941013164283e-01       2.055686985814e-05 
       2.005922709503e-01       6.103970831442e-06 
       2.073002914972e-01       8.230033326647e-07 
       2.142326570816e-01       3.131563313609e-08 
       2.213969417533e-01       7.075855837681e-07 
       2.288010639706e-01       1.276152365739e-06 
       2.364533437147e-01       1.424230913689e-06 
       2.443625682930e-01       1.375186486476e-06 
       2.525380679504e-01       1.088379473736e-06 
       2.609898026346e-01       6.528370916545e-07 
       2.697284615565e-01       3.075507421519e-07 
       2.787655775689e-01       7.312842617614e-08 
       2.881136588829e-01       9.058246711161e-11 
       2.977863412677e-01       3.509214021444e-08 
       3.077985646929e-01       9.171620074320e-08 
       3.181667794071e-01       1.074186935743e-07 
       3.289091877812e-01       7.531360464282e-08 
       3.400460299658e-01       4.390643541863e-08 
       3.515999236474e-01       1.149803527766e-08 
       3.635962711085e-01       1.459310592601e-09 
       3.760637506334e-01       6.445877014245e-10 
       3.890349143879e-01       1.576744727388e-09 
       4.025469216825e-01       1.558335984367e-09 
       4.166424456376e-01       4.246935688855e-11 
       4.313708035863e-01       2.822277298378e-10 
       4.467893782977e-01       1.432869404320e-09 
       4.629654199664e-01       1.651890574886e-09 
       4.799783501994e-01       9.406933312359e-10 
       4.979227319373e-01       7.075270694776e-10 
       5.169121270864e-01       3.898168648642e-10 
       5.370841404489e-01       1.731024361510e-10 
       5.586070464571e-01       3.822493182047e-11 
       5.816885094930e-01       4.433590523122e-11 
       6.065870144995e-01       4.602238710666e-11 
       6.336266468475e-01       7.266392111205e-11 
       6.632156059511e-01       1.269798472999e-10 
       6.958678639263e-01       2.542356896892e-10 
       7.322247985589e-01       1.034729568607e-10 
       7.730680195114e-01       7.010055516061e-11 
       8.193049553677e-01       3.108564163646e-11 
       8.718988016039e-01       3.771929692779e-11 
       9.317218031082e-01       2.970954719708e-11 
       9.993660908989e-01       2.068697877094e-11 
       1.075037110174e+00       8.729706765731e-12 
       1.158653485707e+00       2.987689736092e-12 
       1.250099157308e+00       4.176534581079e-13 
       1.349432401273e+00       5.998254547665e-13 
       1.456947457397e+00       2.767346744408e-13 
       1.573135111331e+00       4.796266933402e-13 
       1.698621895592e+00       4.155671698792e-12 
       1.834127512934e+00       4.718157615860e-12 
       1.980444934528e+00       4.093854951179e-11 
       2.138435191726e+00       2.521341187155e-12 
       2.309029199186e+00       9.144356948365e-13 
       2.493232377687e+00       2.641548100419e-13 
       2.692130395285e+00       1.947677563087e-11 
       2.906895534573e+00       8.197463050092e-12 
       3.138793597714e+00       5.887846562443e-11 
       3.389191366484e+00       4.302282880587e-13 
       3.659564657905e+00       5.772485339280e-12 
       3.951507022538e+00       3.244311741939e-11 
       4.266739136701e+00       4.184296759340e-11 
       4.607118943941e+00       5.218026021868e-11 
       4.974652605557e+00       1.010070512538e-11 
       5.371506324689e+00       1.425358738510e-11 
       5.800019113685e+00       1.497543860598e-11 
       6.262716579983e+00       1.315506276448e-10 
       6.762325811764e+00       3.629903050407e-11 
       7.301791451110e+00       2.051012315542e-10 
       7.884293049406e+00       5.891398088360e-12 
       8.513263807261e+00       9.005954883218e-13 
       9.192410809424e+00       1.677858890115e-11 
       9.925736873929e+00       1.034012807404e-10 
       1.071756414427e+01       3.581675909463e-11 
       1.157255956364e+01       3.613065162404e-11 
       1.249576238137e+01       2.070367610696e-11 
       1.349261385375e+01       8.088222703796e-12 
       1.456898931416e+01       1.426089050339e-11 
       1.573123280165e+01       1.167480813197e-11 
       1.698619445202e+01       1.553371303816e-11 
       1.834127087176e+01       5.427298527986e-10 
       1.980444873285e+01       1.372060431872e-09 
       2.138435184532e+01       8.416315515889e-11 
       2.309029198506e+01       4.679043160926e-10 
       2.493232377636e+01       3.350952173496e-10 
       2.692130395282e+01       1.308925519986e-09 
       2.906895534573e+01       3.740929053279e-11 
       3.138793597714e+01       6.035929750937e-10 
       3.389191366484e+01       5.489452504138e-10 
       3.659564657905e+01       1.582418293738e-11 
       3.951507022538e+01       5.144488329146e-09 
       4.266739136701e+01       1.880660665205e-11 
       4.607118943941e+01       2.314503501541e-11 
       4.974652605557e+01       1.572464170771e-11 
       5.371506324689e+01       5.679632466641e-10 
       5.800019113685e+01       2.659906509050e-09 
       6.262716579983e+01       6.573828392321e-11 
       6.762325811764e+01       1.219475201206e-12 
       7.301791451110e+01       3.471229470193e-10 
       7.884293049406e+01       1.053418646243e-09 
       8.513263807261e+01       3.206542348897e-10 
       9.192410809424e+01       2.499163115151e-10 
       9.925736873929e+01       3.507119514984e-10 
       1.071756414427e+02       1.113706739857e-10 
       1.157255956364e+02       2.199047844928e-12 
       1.249576238137e+02       1.571148500371e-09 
       1.349261385375e+02       3.809354885121e-10 
