# Matter power spectrum P(k) at redshift z=99
# for k=1.04775e-05 to 134.926 h/Mpc,
# number of wavenumbers equal to 255
#    1:k (h/Mpc)              2:P (Mpc/h)^3        
       1.047750691338e-05       7.262991299539e-03 
       1.131335172818e-05       7.821478674484e-03 
       1.221587619877e-05       8.422908683883e-03 
       1.319039970550e-05       9.070587415307e-03 
       1.424266598317e-05       9.768068154685e-03 
       1.537887697396e-05       1.051918075117e-02 
       1.660572938097e-05       1.132805101095e-02 
       1.793045413791e-05       1.219911674420e-02 
       1.936085902737e-05       1.313716581602e-02 
       2.090537469909e-05       1.414734207517e-02 
       2.257310435923e-05       1.523519492490e-02 
       2.437387742372e-05       1.640669815577e-02 
       2.631830745176e-05       1.766828139543e-02 
       2.841785470091e-05       1.902687227862e-02 
       3.068489367268e-05       2.048992894866e-02 
       3.313278604643e-05       2.206548380236e-02 
       3.577595943165e-05       2.376218701019e-02 
       3.862999240274e-05       2.558935163717e-02 
       4.171170631739e-05       2.755700927739e-02 
       4.503926445983e-05       2.967596178582e-02 
       4.863227909323e-05       3.195784057712e-02 
       5.251192705226e-05       3.441517026466e-02 
       5.670107455699e-05       3.706143951508e-02 
       6.122441198393e-05       3.991117275277e-02 
       6.610859938837e-05       4.298000860738e-02 
       7.138242363583e-05       4.628478968530e-02 
       7.707696806873e-05       4.984364873841e-02 
       8.322579570814e-05       5.367611436530e-02 
       8.986514707061e-05       5.780321021162e-02 
       9.703415376577e-05       6.224757678147e-02 
       1.047750691338e-04       6.703358757696e-02 
       1.131335172818e-04       7.218748769475e-02 
       1.221587619877e-04       7.773753215339e-02 
       1.319039970550e-04       8.371413839490e-02 
       1.424266598317e-04       9.015006070889e-02 
       1.537887697396e-04       9.708054557168e-02 
       1.660572938097e-04       1.045435408765e-01 
       1.793045413791e-04       1.125798898738e-01 
       1.936085902737e-04       1.212335508042e-01 
       2.090537469909e-04       1.305518245592e-01 
       2.257310435923e-04       1.405856128679e-01 
       2.437387742372e-04       1.513896747692e-01 
       2.631830745176e-04       1.630229157791e-01 
       2.841785470091e-04       1.755486869125e-01 
       3.068489367268e-04       1.890351064775e-01 
       3.313278604643e-04       2.035554007728e-01 
       3.577595943165e-04       2.191882648649e-01 
       3.862999240274e-04       2.360182327279e-01 
       4.171170631739e-04       2.541360873241e-01 
       4.503926445983e-04       2.736392678140e-01 
       4.863227909323e-04       2.946322959517e-01 
       5.251192705226e-04       3.172272276219e-01 
       5.670107455699e-04       3.415440946082e-01 
       6.122441198393e-04       3.677113615628e-01 
       6.610859938837e-04       3.958663723559e-01 
       7.138242363583e-04       4.261557776079e-01 
       7.707696806873e-04       4.587359444826e-01 
       8.322579570814e-04       4.937732973335e-01 
       8.986514707061e-04       5.314446185336e-01 
       9.703415376577e-04       5.719372259895e-01 
       1.047750691338e-03       6.154490314966e-01 
       1.131335172818e-03       6.621884213486e-01 
       1.221587619877e-03       7.123738788496e-01 
       1.319039970550e-03       7.662333686528e-01 
       1.424266598317e-03       8.240109384831e-01 
       1.537887697396e-03       8.859492082975e-01 
       1.660572938097e-03       9.522943834494e-01 
       1.793045413791e-03       1.023297585833e+00 
       1.936085902737e-03       1.099208174347e+00 
       2.090537469909e-03       1.180269489946e+00 
       2.257310435923e-03       1.266712434317e+00 
       2.437387742372e-03       1.358747685324e+00 
       2.631830745176e-03       1.456557524229e+00 
       2.841785470091e-03       1.560283696330e+00 
       3.068489367268e-03       1.670014995236e+00 
       3.313278604643e-03       1.785771423839e+00 
       3.577595943165e-03       1.907489255363e+00 
       3.862999240274e-03       2.034997991613e+00 
       4.171170631739e-03       2.168004099334e+00 
       4.503926445983e-03       2.306067851165e+00 
       4.863227909323e-03       2.448586216482e+00 
       5.251192705226e-03       2.594770532130e+00 
       5.670107455699e-03       2.743634411922e+00 
       6.122441198393e-03       2.893988891148e+00 
       6.610859938837e-03       3.044426574554e+00 
       7.138242363583e-03       3.193340990327e+00 
       7.707696806873e-03       3.338911484035e+00 
       8.322579570814e-03       3.479132179821e+00 
       8.986514707061e-03       3.611785594000e+00 
       9.703415376577e-03       3.734442557105e+00 
       1.047750691338e-02       3.844413718673e+00 
       1.131335172818e-02       3.938709830014e+00 
       1.221587619877e-02       4.013968914164e+00 
       1.319039970550e-02       4.066417970963e+00 
       1.424266598317e-02       4.091896348274e+00 
       1.537887697392e-02       4.085930788400e+00 
       1.660572938023e-02       4.043918248084e+00 
       1.793045412706e-02       3.961432255778e+00 
       1.936085890181e-02       3.834401980918e+00 
       2.090537352463e-02       3.659568122646e+00 
       2.257309535333e-02       3.434892982459e+00 
       2.437382002918e-02       3.160289007841e+00 
       2.631799944462e-02       2.838336529393e+00 
       2.841644545389e-02       2.475263006055e+00 
       3.067933355377e-02       2.081720020325e+00 
       3.311368470740e-02       1.673508973302e+00 
       3.571840443502e-02       1.271563900638e+00 
       3.847720348444e-02       9.004028895061e-01 
       4.135335538431e-02       5.837657175073e-01 
       4.429361667738e-02       3.379221682464e-01 
       4.724366439141e-02       1.669432134178e-01 
       5.016480835311e-02       6.334504326963e-02 
       5.303989620246e-02       1.295024210338e-02 
       5.586870669566e-02       1.475079932014e-05 
       5.866042680613e-02       1.023039449635e-02 
       6.142798932958e-02       3.186154369950e-02 
       6.418496440164e-02       5.601643708267e-02 
       6.694418833788e-02       7.646073038655e-02 
       6.971731106057e-02       8.942006814683e-02 
       7.251476155766e-02       9.325141507896e-02 
       7.534587671527e-02       8.811269877671e-02 
       7.821907666265e-02       7.574012195397e-02 
       8.114203772912e-02       5.864428865141e-02 
       8.412184535029e-02       3.995603283027e-02 
       8.716512279304e-02       2.273898201637e-02 
       9.027813695930e-02       9.496306844306e-03 
       9.346688431697e-02       1.819156184362e-03 
       9.673716028276e-02       1.141073468388e-04 
       1.000946150830e-01       3.573190937216e-03 
       1.035447986537e-01       1.037602938612e-02 
       1.070931966762e-01       1.812563677210e-02 
       1.107452594425e-01       2.438332722985e-02 
       1.145064249153e-01       2.728810523114e-02 
       1.183821370918e-01       2.602951152968e-02 
       1.223778605862e-01       2.104540340454e-02 
       1.264990921987e-01       1.389798427528e-02 
       1.307513701367e-01       6.761334744943e-03 
       1.351402814784e-01       1.714591571635e-03 
       1.396714684203e-01       4.325492839088e-07 
       1.443506338194e-01       1.575892068810e-03 
       1.491835465229e-01       5.138979739963e-03 
       1.541760469708e-01       8.678729872137e-03 
       1.593340535561e-01       1.034135081664e-02 
       1.646635702297e-01       9.321989129865e-03 
       1.701706958456e-01       6.200243032155e-03 
       1.758616357459e-01       2.609647980949e-03 
       1.817427160982e-01       3.241111971510e-04 
       1.878204015065e-01       2.263819011027e-04 
       1.941013164283e-01       1.813477779880e-03 
       2.005922709503e-01       3.585894834588e-03 
       2.073002914972e-01       4.099883392304e-03 
       2.142326570816e-01       3.012080475625e-03 
       2.213969417533e-01       1.226234873749e-03 
       2.288010639706e-01       8.752646444846e-05 
       2.364533437147e-01       2.470172487898e-04 
       2.443625682930e-01       1.147147095347e-03 
       2.525380679504e-01       1.660807422386e-03 
       2.609898026346e-01       1.241926379805e-03 
       2.697284615565e-01       3.950887866152e-04 
       2.787655775689e-01       1.051282679182e-07 
       2.881136588829e-01       2.728374275166e-04 
       2.977863412677e-01       6.277585332404e-04 
       3.077985646929e-01       5.188716646679e-04 
       3.181667794071e-01       1.392174369076e-04 
       3.289091877812e-01       5.557256777419e-06 
       3.400460299658e-01       1.687402054837e-04 
       3.515999236474e-01       2.399746289279e-04 
       3.635962711085e-01       9.334910678730e-05 
       3.760637506334e-01       6.198869843567e-08 
       3.890349143879e-01       6.288512249586e-05 
       4.025469216825e-01       8.237433422005e-05 
       4.166424456376e-01       1.568112789671e-05 
       4.313708035863e-01       7.308775489710e-06 
       4.467893782977e-01       3.142664342532e-05 
       4.629654199664e-01       1.041763125952e-05 
       4.799783501994e-01       1.687998416295e-06 
       4.979227319373e-01       1.052463403458e-05 
       5.169121270864e-01       1.491126106897e-06 
       5.370841404489e-01       2.194553164330e-06 
       5.586070464571e-01       1.922959294890e-06 
       5.816885094930e-01       2.264996149524e-07 
       6.065870144995e-01       7.739216847173e-07 
       6.336266468475e-01       8.558816459955e-08 
       6.632156059511e-01       1.322014408747e-07 
       6.958678639263e-01       7.993968817557e-08 
       7.322247985589e-01       1.732800009068e-09 
       7.730680195114e-01       4.133428760439e-09 
       8.193049553677e-01       1.413986566155e-09 
       8.718988016039e-01       3.830260516583e-10 
       9.317218031082e-01       8.866834662249e-11 
       9.993660908989e-01       3.812251377423e-10 
       1.075037110174e+00       4.513457692264e-10 
       1.158653485707e+00       1.994323239566e-11 
       1.250099157308e+00       1.017502838760e-10 
       1.349432401273e+00       6.339332045780e-10 
       1.456947457397e+00       1.599754509013e-10 
       1.573135111331e+00       1.347223077284e-12 
       1.698621895592e+00       9.433185827976e-12 
       1.834127512934e+00       1.985171123338e-12 
       1.980444934528e+00       1.594316059112e-10 
       2.138435191726e+00       3.734357890388e-12 
       2.309029199186e+00       2.384424666245e-10 
       2.493232377687e+00       4.577731563777e-11 
       2.692130395285e+00       1.674958026531e-12 
       2.906895534573e+00       4.612535282008e-12 
       3.138793597714e+00       1.526378444612e-10 
       3.389191366484e+00       4.817795242206e-12 
       3.659564657905e+00       3.114166531578e-12 
       3.951507022538e+00       8.470939409943e-11 
       4.266739136701e+00       6.413539577775e-14 
       4.607118943941e+00       6.638566543020e-12 
       4.974652605557e+00       1.899700430292e-14 
       5.371506324689e+00       7.610536657647e-16 
       5.800019113685e+00       3.370927078285e-12 
       6.262716579983e+00       9.330712290684e-13 
       6.762325811764e+00       1.857357042782e-11 
       7.301791451110e+00       6.806564645654e-11 
       7.884293049406e+00       5.798365565140e-13 
       8.513263807261e+00       8.982122904758e-12 
       9.192410809424e+00       2.995660113094e-11 
       9.925736873929e+00       1.788098485384e-12 
       1.071756414427e+01       1.338102625502e-16 
       1.157255956364e+01       9.765171574720e-15 
       1.249576238137e+01       3.879102693690e-13 
       1.349261385375e+01       2.001017745811e-12 
       1.456898931416e+01       6.087969979092e-12 
       1.573123280165e+01       2.658010353606e-12 
       1.698619445202e+01       1.086579122804e-14 
       1.834127087176e+01       1.147954031988e-13 
       1.980444873285e+01       5.301663452474e-13 
       2.138435184532e+01       2.596680889139e-14 
       2.309029198506e+01       1.739962348836e-15 
       2.493232377636e+01       4.258291479512e-18 
       2.692130395282e+01       6.858706237264e-14 
       2.906895534573e+01       1.058139394209e-14 
       3.138793597714e+01       5.334530660311e-14 
       3.389191366484e+01       2.231690187972e-16 
       3.659564657905e+01       3.904919912758e-14 
       3.951507022538e+01       2.943082972743e-16 
       4.266739136701e+01       7.987179059207e-15 
       4.607118943941e+01       3.498614853338e-15 
       4.974652605557e+01       5.281398709606e-17 
       5.371506324689e+01       7.287235804599e-17 
       5.800019113685e+01       3.764124934049e-16 
       6.262716579983e+01       4.008459850194e-17 
       6.762325811764e+01       1.494286426046e-16 
       7.301791451110e+01       1.090623757544e-17 
       7.884293049406e+01       1.334638283835e-16 
       8.513263807261e+01       3.725614368197e-17 
       9.192410809424e+01       6.700088351728e-17 
       9.925736873929e+01       1.167816149032e-15 
       1.071756414427e+02       1.047049880764e-17 
       1.157255956364e+02       1.275036203953e-17 
       1.249576238137e+02       4.111513669814e-16 
       1.349261385375e+02       5.942051899512e-17 
