# Matter power spectrum P(k) at redshift z=99
# for k=1.04775e-05 to 67.6233 h/Mpc,
# number of wavenumbers equal to 246
#    1:k (h/Mpc)              2:P (Mpc/h)^3        
       1.047750691338e-05       7.261927851255e-03 
       1.131335172818e-05       7.820331937538e-03 
       1.221587619877e-05       8.421676193679e-03 
       1.319039970550e-05       9.069258415727e-03 
       1.424266598317e-05       9.766638643477e-03 
       1.537887697396e-05       1.051764095481e-02 
       1.660572938097e-05       1.132639218906e-02 
       1.793045413791e-05       1.219733261274e-02 
       1.936085902737e-05       1.313524256522e-02 
       2.090537469909e-05       1.414527156491e-02 
       2.257310435923e-05       1.523296309581e-02 
       2.437387742372e-05       1.640429484787e-02 
       2.631830745176e-05       1.766569610514e-02 
       2.841785470091e-05       1.902408648255e-02 
       3.068489367268e-05       2.048693020901e-02 
       3.313278604643e-05       2.206225567542e-02 
       3.577595943165e-05       2.375870764538e-02 
       3.862999240274e-05       2.558560790525e-02 
       4.171170631739e-05       2.755297830397e-02 
       4.503926445983e-05       2.967162000010e-02 
       4.863227909323e-05       3.195316528493e-02 
       5.251192705226e-05       3.441013603736e-02 
       5.670107455699e-05       3.705601813099e-02 
       6.122441198393e-05       3.990533526545e-02 
       6.610859938837e-05       4.297372273396e-02 
       7.138242363583e-05       4.627802254761e-02 
       7.707696806873e-05       4.983636316102e-02 
       8.322579570814e-05       5.366826978125e-02 
       8.986514707061e-05       5.779476530922e-02 
       9.703415376577e-05       6.223848396725e-02 
       1.047750691338e-04       6.702380029417e-02 
       1.131335172818e-04       7.217695330149e-02 
       1.221587619877e-04       7.772619262531e-02 
       1.319039970550e-04       8.370193636927e-02 
       1.424266598317e-04       9.013692727008e-02 
       1.537887697396e-04       9.706641478994e-02 
       1.660572938097e-04       1.045283379719e-01 
       1.793045413791e-04       1.125635376370e-01 
       1.936085902737e-04       1.212159644413e-01 
       2.090537469909e-04       1.305329164340e-01 
       2.257310435923e-04       1.405652880200e-01 
       2.437387742372e-04       1.513678339090e-01 
       2.631830745176e-04       1.629994543855e-01 
       2.841785470091e-04       1.755234963373e-01 
       3.068489367268e-04       1.890080715654e-01 
       3.313278604643e-04       2.035264050956e-01 
       3.577595943165e-04       2.191571855676e-01 
       3.862999240274e-04       2.359849492531e-01 
       4.171170631739e-04       2.541004801150e-01 
       4.503926445983e-04       2.736012150278e-01 
       4.863227909323e-04       2.945916858884e-01 
       5.251192705226e-04       3.171839597684e-01 
       5.670107455699e-04       3.414980840798e-01 
       6.122441198393e-04       3.676625494727e-01 
       6.610859938837e-04       3.958147338582e-01 
       7.138242363583e-04       4.261013375474e-01 
       7.707696806873e-04       4.586787887225e-01 
       8.322579570814e-04       4.937136101020e-01 
       8.986514707061e-04       5.313826906184e-01 
       9.703415376577e-04       5.718735078483e-01 
       1.047750691338e-03       6.153841737664e-01 
       1.131335172818e-03       6.621233347874e-01 
       1.221587619877e-03       7.123098326859e-01 
       1.319039970550e-03       7.661720685868e-01 
       1.424266598317e-03       8.239546392714e-01 
       1.537887697396e-03       8.859011255145e-01 
       1.660572938097e-03       9.522588055319e-01 
       1.793045413791e-03       1.023280102198e+00 
       1.936085902737e-03       1.099216301772e+00 
       2.090537469909e-03       1.180312980261e+00 
       2.257310435923e-03       1.266804095311e+00 
       2.437387742372e-03       1.358904818693e+00 
       2.631830745176e-03       1.456802629052e+00 
       2.841785470091e-03       1.560646810104e+00 
       3.068489367268e-03       1.670535946492e+00 
       3.313278604643e-03       1.786503688018e+00 
       3.577595943165e-03       1.908502701848e+00 
       3.862999240274e-03       2.036387414314e+00 
       4.171170631739e-03       2.169895790864e+00 
       4.503926445983e-03       2.308631285625e+00 
       4.863227909323e-03       2.452046482558e+00 
       5.251192705226e-03       2.599429529828e+00 
       5.670107455699e-03       2.749895441273e+00 
       6.122441198393e-03       2.902384497575e+00 
       6.610859938837e-03       3.055666025397e+00 
       7.138242363583e-03       3.208352788064e+00 
       7.707696806873e-03       3.358918958889e+00 
       8.322579570814e-03       3.505718534329e+00 
       8.986514707061e-03       3.647000891971e+00 
       9.703415376577e-03       3.780911457017e+00 
       1.047750691338e-02       3.905475052767e+00 
       1.131335172818e-02       4.018566801170e+00 
       1.221587619877e-02       4.117874119876e+00 
       1.319039970550e-02       4.200879115218e+00 
       1.424266598317e-02       4.264894761641e+00 
       1.537887697392e-02       4.307156064136e+00 
       1.660572938023e-02       4.324987120621e+00 
       1.793045412706e-02       4.315958118352e+00 
       1.936085890181e-02       4.278096623898e+00 
       2.090537352463e-02       4.210036766327e+00 
       2.257309535333e-02       4.111213160158e+00 
       2.437382002918e-02       3.982164219879e+00 
       2.631799944462e-02       3.824832429907e+00 
       2.841644545389e-02       3.642880305668e+00 
       3.067933355377e-02       3.441713559071e+00 
       3.311368470740e-02       3.228645939647e+00 
       3.571840443502e-02       3.012819120700e+00 
       3.847720348444e-02       2.804457498263e+00 
       4.135335538431e-02       2.613443245505e+00 
       4.429361667738e-02       2.447021210006e+00 
       4.724366439141e-02       2.307984680012e+00 
       5.016480835311e-02       2.194714967564e+00 
       5.303989620246e-02       2.102831825342e+00 
       5.586870669566e-02       2.026796310259e+00 
       5.866042680613e-02       1.961361114335e+00 
       6.142798932958e-02       1.901874479125e+00 
       6.418496440164e-02       1.844464603677e+00 
       6.694418833788e-02       1.786082168722e+00 
       6.971731106057e-02       1.724516020683e+00 
       7.251476155766e-02       1.658368650688e+00 
       7.534587671527e-02       1.587123459010e+00 
       7.821907666265e-02       1.511031090451e+00 
       8.114203772912e-02       1.431111036708e+00 
       8.412184535029e-02       1.348991467341e+00 
       8.716512279304e-02       1.266730211993e+00 
       9.027813695930e-02       1.186610620762e+00 
       9.346688431697e-02       1.110875651178e+00 
       9.673716028276e-02       1.041499336987e+00 
       1.000946150830e-01       9.799753091547e-01 
       1.035447986537e-01       9.271456222036e-01 
       1.070931966762e-01       8.830923438643e-01 
       1.107452594425e-01       8.471269755724e-01 
       1.145064249153e-01       8.177704591109e-01 
       1.183821370918e-01       7.929048055039e-01 
       1.223778605862e-01       7.699366451031e-01 
       1.264990921987e-01       7.461684180060e-01 
       1.307513701367e-01       7.192137730322e-01 
       1.351402814784e-01       6.875231428847e-01 
       1.396714684203e-01       6.507753315302e-01 
       1.443506338194e-01       6.100171202480e-01 
       1.491835465229e-01       5.674666049575e-01 
       1.541760469708e-01       5.259731169987e-01 
       1.593340535561e-01       4.883234758299e-01 
       1.646635702297e-01       4.565181564632e-01 
       1.701706958456e-01       4.312937209478e-01 
       1.758616357459e-01       4.119234371300e-01 
       1.817427160982e-01       3.963951595715e-01 
       1.878204015065e-01       3.820861730630e-01 
       1.941013164283e-01       3.661757412979e-01 
       2.005922709503e-01       3.469025334509e-01 
       2.073002914972e-01       3.244159159216e-01 
       2.142326570816e-01       3.006184045160e-01 
       2.213969417533e-01       2.780467799702e-01 
       2.288010639706e-01       2.587093041371e-01 
       2.364533437147e-01       2.434104977428e-01 
       2.443625682930e-01       2.314416554126e-01 
       2.525380679504e-01       2.208237974819e-01 
       2.609898026346e-01       2.094928480524e-01 
       2.697284615565e-01       1.965193788901e-01 
       2.787655775689e-01       1.824744625105e-01 
       2.881136588829e-01       1.690110692058e-01 
       2.977863412677e-01       1.575850042867e-01 
       3.077985646929e-01       1.482895949258e-01 
       3.181667794071e-01       1.400938034256e-01 
       3.289091877812e-01       1.317328333681e-01 
       3.400460299658e-01       1.227501774103e-01 
       3.515999236474e-01       1.138297007507e-01 
       3.635962711085e-01       1.058408614888e-01 
       3.760637506334e-01       9.899969467182e-02 
       3.890349143879e-01       9.265432956070e-02 
       4.025469216825e-01       8.626086206443e-02 
       4.166424456376e-01       7.990909904048e-02 
       4.313708035863e-01       7.405572931885e-02 
       4.467893782977e-01       6.877919132878e-02 
       4.629654199664e-01       6.378861421362e-02 
       4.799783501994e-01       5.888487816075e-02 
       4.979227319373e-01       5.423929316040e-02 
       5.169121270864e-01       4.996786020823e-02 
       5.370841404489e-01       4.588636699683e-02 
       5.586070464571e-01       4.196315834891e-02 
       5.816885094930e-01       3.828088824481e-02 
       6.065870144995e-01       3.477894592958e-02 
       6.336266468475e-01       3.142912369503e-02 
       6.632156059511e-01       2.825459069393e-02 
       6.958678639263e-01       2.522018368838e-02 
       7.322247985589e-01       2.233542407887e-02 
       7.730680195114e-01       1.959005992105e-02 
       8.193049553677e-01       1.699496795082e-02 
       8.718988016039e-01       1.456294232048e-02 
       9.317218031082e-01       1.231886826105e-02 
       9.993660908989e-01       1.029141727073e-02 
       1.075037110174e+00       8.502902611118e-03 
       1.158653485707e+00       6.961016142985e-03 
       1.250099157308e+00       5.656643021080e-03 
       1.349432401273e+00       4.566793890169e-03 
       1.456947457397e+00       3.664053107758e-03 
       1.573135111331e+00       2.920861920094e-03 
       1.698621895592e+00       2.312209477208e-03 
       1.834127512934e+00       1.816323356721e-03 
       1.980444934528e+00       1.414562624184e-03 
       2.138435191726e+00       1.091103715142e-03 
       2.309029199186e+00       8.325111981462e-04 
       2.493232377687e+00       6.274427215462e-04 
       2.692130395285e+00       4.663056650379e-04 
       2.906895534573e+00       3.410291102883e-04 
       3.138793597714e+00       2.448146677351e-04 
       3.389191366484e+00       1.719736389565e-04 
       3.659564657905e+00       1.177502713788e-04 
       3.951507022538e+00       7.818351929037e-05 
       4.266739136701e+00       5.000107368520e-05 
       4.607118943941e+00       3.050529434785e-05 
       4.974652605557e+00       1.750685982285e-05 
       5.371506324689e+00       9.242763778665e-06 
       5.800019113685e+00       4.316536205913e-06 
       6.262716579983e+00       1.645472848856e-06 
       6.762325811764e+00       4.118788501452e-07 
       7.301791451110e+00       1.980955884361e-08 
       7.884293049406e+00       5.506386161240e-08 
       8.513263807261e+00       2.490873818271e-07 
       9.192410809424e+00       4.452868240363e-07 
       9.925736873929e+00       5.688788917740e-07 
       1.071756414427e+01       6.003201056001e-07 
       1.157255956364e+01       5.528784021584e-07 
       1.249576238137e+01       4.548948968751e-07 
       1.349261385375e+01       3.370464457876e-07 
       1.456898931416e+01       2.243360384717e-07 
       1.573123280165e+01       1.324178405759e-07 
       1.698619445202e+01       6.741776107272e-08 
       1.834127087176e+01       2.795298854646e-08 
       1.980444873285e+01       8.211297402433e-09 
       2.138435184532e+01       1.021071071801e-09 
       2.309029198506e+01       7.606517809964e-11 
       2.493232377636e+01       1.086110418943e-09 
       2.692130395282e+01       1.891188429034e-09 
       2.906895534573e+01       1.913202203146e-09 
       3.138793597714e+01       1.395556267766e-09 
       3.389191366484e+01       7.674992435759e-10 
       3.659564657905e+01       3.071651249248e-10 
       3.951507022538e+01       7.616333449054e-11 
       4.266739136701e+01       5.358601489732e-12 
       4.607118943941e+01       2.220757564933e-12 
       4.974652605557e+01       9.335668793415e-12 
       5.371506324689e+01       9.423845516903e-12 
       5.800019113685e+01       5.180796197281e-12 
       6.262716579983e+01       1.668068636754e-12 
       6.762325811764e+01       2.456245444082e-13 
