# Matter power spectrum P(k) at redshift z=99
# for k=1.04775e-05 to 213.844 h/Mpc,
# number of wavenumbers equal to 261
#    1:k (h/Mpc)              2:P (Mpc/h)^3        
       1.047750691338e-05       7.262505726281e-03 
       1.131335172818e-05       7.820954805339e-03 
       1.221587619877e-05       8.422346315313e-03 
       1.319039970550e-05       9.069980822648e-03 
       1.424266598317e-05       9.767414072725e-03 
       1.537887697396e-05       1.051847720848e-02 
       1.660572938097e-05       1.132729292449e-02 
       1.793045413791e-05       1.219830350985e-02 
       1.936085902737e-05       1.313628764895e-02 
       2.090537469909e-05       1.414639738971e-02 
       2.257310435923e-05       1.523417650376e-02 
       2.437387742372e-05       1.640560265784e-02 
       2.631830745176e-05       1.766709996635e-02 
       2.841785470091e-05       1.902560012530e-02 
       3.068489367268e-05       2.048855903010e-02 
       3.313278604643e-05       2.206400958280e-02 
       3.577595943165e-05       2.376059916149e-02 
       3.862999240274e-05       2.558764232038e-02 
       4.171170631739e-05       2.755516936304e-02 
       4.503926445983e-05       2.967398114688e-02 
       4.863227909323e-05       3.195570750847e-02 
       5.251192705226e-05       3.441287389392e-02 
       5.670107455699e-05       3.705896686454e-02 
       6.122441198393e-05       3.990850949262e-02 
       6.610859938837e-05       4.297714126634e-02 
       7.138242363583e-05       4.628170215716e-02 
       7.707696806873e-05       4.984032480434e-02 
       8.322579570814e-05       5.367253565061e-02 
       8.986514707061e-05       5.779935782558e-02 
       9.703415376577e-05       6.224342868104e-02 
       1.047750691338e-04       6.702912202745e-02 
       1.131335172818e-04       7.218268049347e-02 
       1.221587619877e-04       7.773235781287e-02 
       1.319039970550e-04       8.370857210148e-02 
       1.424266598317e-04       9.014406774517e-02 
       1.537887697396e-04       9.707409698189e-02 
       1.660572938097e-04       1.045366034997e-01 
       1.793045413791e-04       1.125724277818e-01 
       1.936085902737e-04       1.212255244782e-01 
       2.090537469909e-04       1.305431953964e-01 
       2.257310435923e-04       1.405763369408e-01 
       2.437387742372e-04       1.513797070104e-01 
       2.631830745176e-04       1.630122080520e-01 
       2.841785470091e-04       1.755371895838e-01 
       3.068489367268e-04       1.890227682586e-01 
       3.313278604643e-04       2.035421682218e-01 
       3.577595943165e-04       2.191740797165e-01 
       3.862999240274e-04       2.360030428902e-01 
       4.171170631739e-04       2.541198363875e-01 
       4.503926445983e-04       2.736219003791e-01 
       4.863227909323e-04       2.946137624138e-01 
       5.251192705226e-04       3.172074803258e-01 
       5.670107455699e-04       3.415230955031e-01 
       6.122441198393e-04       3.676890840034e-01 
       6.610859938837e-04       3.958428046663e-01 
       7.138242363583e-04       4.261309314266e-01 
       7.707696806873e-04       4.587098584678e-01 
       8.322579570814e-04       4.937460543873e-01 
       8.986514707061e-04       5.314163534855e-01 
       9.703415376577e-04       5.719081431273e-01 
       1.047750691338e-03       6.154194267986e-01 
       1.131335172818e-03       6.621587077294e-01 
       1.221587619877e-03       7.123446364959e-01 
       1.319039970550e-03       7.662053714269e-01 
       1.424266598317e-03       8.239852607599e-01 
       1.537887697396e-03       8.859272573589e-01 
       1.660572938097e-03       9.522780207050e-01 
       1.793045413791e-03       1.023289212109e+00 
       1.936085902737e-03       1.099211130942e+00 
       2.090537469909e-03       1.180288005788e+00 
       2.257310435923e-03       1.266752060511e+00 
       2.437387742372e-03       1.358816109166e+00 
       2.631830745176e-03       1.456664524555e+00 
       2.841785470091e-03       1.560442363236e+00 
       3.068489367268e-03       1.670242672170e+00 
       3.313278604643e-03       1.786091560512e+00 
       3.577595943165e-03       1.907931652970e+00 
       3.862999240274e-03       2.035603869945e+00 
       4.171170631739e-03       2.168827981245e+00 
       4.503926445983e-03       2.307182960814e+00 
       4.863227909323e-03       2.450088984286e+00 
       5.251192705226e-03       2.596790650042e+00 
       5.670107455699e-03       2.746343926761e+00 
       6.122441198393e-03       2.897613482006e+00 
       6.610859938837e-03       3.049269011876e+00 
       7.138242363583e-03       3.199793227599e+00 
       7.707696806873e-03       3.347491714792e+00 
       8.322579570814e-03       3.490504436667e+00 
       8.986514707061e-03       3.626807873955e+00 
       9.703415376577e-03       3.754207009504e+00 
       1.047750691338e-02       3.870304783424e+00 
       1.131335172818e-02       3.972452576468e+00 
       1.221587619877e-02       4.057701499739e+00 
       1.319039970550e-02       4.122766024906e+00 
       1.424266598317e-02       4.164034842375e+00 
       1.537887697392e-02       4.177666784231e+00 
       1.660572938023e-02       4.159737682653e+00 
       1.793045412706e-02       4.106454327740e+00 
       1.936085890181e-02       4.014367922636e+00 
       2.090537352463e-02       3.880631987216e+00 
       2.257309535333e-02       3.703314606889e+00 
       2.437382002918e-02       3.481895105007e+00 
       2.631799944462e-02       3.217757091023e+00 
       2.841644545389e-02       2.914854234879e+00 
       3.067933355377e-02       2.580170852730e+00 
       3.311368470740e-02       2.224228084478e+00 
       3.571840443502e-02       1.861345781340e+00 
       3.847720348444e-02       1.508875642114e+00 
       4.135335538431e-02       1.184790768756e+00 
       4.429361667738e-02       9.034384366443e-01 
       4.724366439141e-02       6.718945396336e-01 
       5.016480835311e-02       4.894223221439e-01 
       5.303989620246e-02       3.501487269602e-01 
       5.586870669566e-02       2.462540112419e-01 
       5.866042680613e-02       1.701388853414e-01 
       6.142798932958e-02       1.152587764150e-01 
       6.418496440164e-02       7.631455394200e-02 
       6.694418833788e-02       4.914561735528e-02 
       6.971731106057e-02       3.055607154632e-02 
       7.251476155766e-02       1.812735907669e-02 
       7.534587671527e-02       1.005720027526e-02 
       7.821907666265e-02       5.026899112002e-03 
       8.114203772912e-02       2.088705370985e-03 
       8.412184535029e-02       5.759852657672e-04 
       8.716512279304e-02       2.702658894880e-05 
       9.027813695930e-02       1.249507220962e-04 
       9.346688431697e-02       6.491715404771e-04 
       9.673716028276e-02       1.437707622963e-03 
       1.000946150830e-01       2.359322651951e-03 
       1.035447986537e-01       3.295931324986e-03 
       1.070931966762e-01       4.135335814219e-03 
       1.107452594425e-01       4.773821172276e-03 
       1.145064249153e-01       5.126844982171e-03 
       1.183821370918e-01       5.144384832520e-03 
       1.223778605862e-01       4.825153098693e-03 
       1.264990921987e-01       4.221144527153e-03 
       1.307513701367e-01       3.430909095608e-03 
       1.351402814784e-01       2.577223170826e-03 
       1.396714684203e-01       1.777719174146e-03 
       1.443506338194e-01       1.117569516709e-03 
       1.491835465229e-01       6.347829661101e-04 
       1.541760469708e-01       3.223387829083e-04 
       1.593340535561e-01       1.440503956760e-04 
       1.646635702297e-01       5.464414482115e-05 
       1.701706958456e-01       1.561266293046e-05 
       1.758616357459e-01       1.832981306654e-06 
       1.817427160982e-01       5.874174719446e-07 
       1.878204015065e-01       7.333582004943e-06 
       1.941013164283e-01       2.133480179377e-05 
       2.005922709503e-01       3.999726373086e-05 
       2.073002914972e-01       5.728774997064e-05 
       2.142326570816e-01       6.693599801274e-05 
       2.213969417533e-01       6.442269789044e-05 
       2.288010639706e-01       5.011002652569e-05 
       2.364533437147e-01       3.146129985656e-05 
       2.443625682930e-01       1.631876312774e-05 
       2.525380679504e-01       7.022030143673e-06 
       2.609898026346e-01       2.585277914604e-06 
       2.697284615565e-01       9.107309317990e-07 
       2.787655775689e-01       2.158047294267e-07 
       2.881136588829e-01       2.143639772643e-09 
       2.977863412677e-01       3.109939641145e-07 
       3.077985646929e-01       1.046530584315e-06 
       3.181667794071e-01       1.608448599635e-06 
       3.289091877812e-01       1.516661300398e-06 
       3.400460299658e-01       1.061474382645e-06 
       3.515999236474e-01       5.874574619526e-07 
       3.635962711085e-01       3.470681539656e-07 
       3.760637506334e-01       1.934603819522e-07 
       3.890349143879e-01       8.940437724660e-08 
       4.025469216825e-01       1.416738055281e-08 
       4.166424456376e-01       2.209674616887e-10 
       4.313708035863e-01       8.644569897343e-09 
       4.467893782977e-01       9.518926814956e-09 
       4.629654199664e-01       7.512442383186e-09 
       4.799783501994e-01       6.190278875575e-09 
       4.979227319373e-01       2.143768265024e-09 
       5.169121270864e-01       3.346876819666e-11 
       5.370841404489e-01       3.533668944750e-10 
       5.586070464571e-01       1.043239357625e-09 
       5.816885094930e-01       1.664395466512e-09 
       6.065870144995e-01       1.585195184195e-09 
       6.336266468475e-01       1.070001095849e-09 
       6.632156059511e-01       6.840134179926e-10 
       6.958678639263e-01       4.414278814140e-10 
       7.322247985589e-01       2.299700762921e-10 
       7.730680195114e-01       1.725234400427e-10 
       8.193049553677e-01       9.709074627913e-11 
       8.718988016039e-01       7.747772766170e-11 
       9.317218031082e-01       8.723260946683e-11 
       9.993660908989e-01       6.295224486184e-11 
       1.075037110174e+00       2.417214892649e-11 
       1.158653485707e+00       1.577176668314e-11 
       1.250099157308e+00       1.028253204050e-11 
       1.349432401273e+00       3.813923028214e-12 
       1.456947457397e+00       4.009556845134e-12 
       1.573135111331e+00       2.456440135497e-12 
       1.698621895592e+00       3.352995758824e-12 
       1.834127512934e+00       1.985849878145e-12 
       1.980444934528e+00       1.992067841924e-12 
       2.138435191726e+00       4.200378029398e-13 
       2.309029199186e+00       1.252083876360e-13 
       2.493232377687e+00       3.715785446699e-13 
       2.692130395285e+00       8.032167526193e-14 
       2.906895534573e+00       1.387810375747e-13 
       3.138793597714e+00       1.689409087630e-13 
       3.389191366484e+00       9.903937292845e-15 
       3.659564657905e+00       3.613858868615e-13 
       3.951507022538e+00       9.920581716882e-16 
       4.266739136701e+00       1.250464372766e-12 
       4.607118943941e+00       2.384255808636e-13 
       4.974652605557e+00       6.192922274185e-14 
       5.371506324689e+00       1.570186535910e-13 
       5.800019113685e+00       1.754233983346e-13 
       6.262716579983e+00       4.462492136451e-12 
       6.762325811764e+00       7.855834528560e-13 
       7.301791451110e+00       1.842806445554e-13 
       7.884293049406e+00       5.854758369617e-14 
       8.513263807261e+00       1.262930102270e-13 
       9.192410809424e+00       2.717032028008e-12 
       9.925736873929e+00       2.162983548548e-14 
       1.071756414427e+01       2.525366935976e-15 
       1.157255956364e+01       2.828903375768e-13 
       1.249576238137e+01       1.764761971696e-11 
       1.349261385375e+01       2.165625958314e-13 
       1.456898931416e+01       6.466047982079e-18 
       1.573123280165e+01       4.495619759787e-11 
       1.698619445202e+01       3.649138093386e-14 
       1.834127087176e+01       1.465468850302e-12 
       1.980444873285e+01       1.965069005170e-12 
       2.138435184532e+01       3.207765973311e-13 
       2.309029198506e+01       1.942599965297e-11 
       2.493232377636e+01       1.221368152628e-14 
       2.692130395282e+01       9.953244217325e-12 
       2.906895534573e+01       8.848835270855e-15 
       3.138793597714e+01       3.524118098546e-12 
       3.389191366484e+01       3.286841576812e-13 
       3.659564657905e+01       1.953483867096e-13 
       3.951507022538e+01       2.666355835024e-11 
       4.266739136701e+01       8.585066696516e-16 
       4.607118943941e+01       5.013935497568e-13 
       4.974652605557e+01       2.083178133652e-12 
       5.371506324689e+01       4.284144694113e-12 
       5.800019113685e+01       9.281539602359e-13 
       6.262716579983e+01       3.534105073571e-11 
       6.762325811764e+01       1.830607579938e-12 
       7.301791451110e+01       2.159933358535e-11 
       7.884293049406e+01       3.978508929670e-13 
       8.513263807261e+01       4.036495214587e-12 
       9.192410809424e+01       2.999653482193e-11 
       9.925736873929e+01       1.165729929022e-10 
       1.071756414427e+02       8.315382548988e-14 
       1.157255956364e+02       1.185781569925e-10 
       1.249576238137e+02       9.873891345146e-11 
       1.349261385375e+02       2.544549247226e-11 
       1.456898931416e+02       4.331243800103e-12 
       1.573123280165e+02       1.436507091449e-09 
       1.698619445202e+02       4.577534699854e-11 
       1.834127087176e+02       7.242857798902e-12 
       1.980444873285e+02       7.342361079903e-11 
       2.138435184532e+02       7.232196843697e-12 
