# Matter power spectrum P(k) at redshift z=99
# for k=1.04775e-05 to 134.926 h/Mpc,
# number of wavenumbers equal to 255
#    1:k (h/Mpc)              2:P (Mpc/h)^3        
       1.047750691338e-05       7.261927107611e-03 
       1.131335172818e-05       7.820332164031e-03 
       1.221587619877e-05       8.421675396607e-03 
       1.319039970550e-05       9.069257753379e-03 
       1.424266598317e-05       9.766636467679e-03 
       1.537887697396e-05       1.051763975425e-02 
       1.660572938097e-05       1.132639252671e-02 
       1.793045413791e-05       1.219733203566e-02 
       1.936085902737e-05       1.313524189429e-02 
       2.090537469909e-05       1.414527087372e-02 
       2.257310435923e-05       1.523296547074e-02 
       2.437387742372e-05       1.640429657419e-02 
       2.631830745176e-05       1.766569606270e-02 
       2.841785470091e-05       1.902408714373e-02 
       3.068489367268e-05       2.048692970896e-02 
       3.313278604643e-05       2.206225471261e-02 
       3.577595943165e-05       2.375870887797e-02 
       3.862999240274e-05       2.558560674153e-02 
       4.171170631739e-05       2.755297677241e-02 
       4.503926445983e-05       2.967161938486e-02 
       4.863227909323e-05       3.195316461104e-02 
       5.251192705226e-05       3.441013471911e-02 
       5.670107455699e-05       3.705601748061e-02 
       6.122441198393e-05       3.990533419781e-02 
       6.610859938837e-05       4.297372249923e-02 
       7.138242363583e-05       4.627802063113e-02 
       7.707696806873e-05       4.983636168503e-02 
       8.322579570814e-05       5.366826796023e-02 
       8.986514707061e-05       5.779476329562e-02 
       9.703415376577e-05       6.223848232369e-02 
       1.047750691338e-04       6.702379836363e-02 
       1.131335172818e-04       7.217695043054e-02 
       1.221587619877e-04       7.772619043453e-02 
       1.319039970550e-04       8.370193394504e-02 
       1.424266598317e-04       9.013692521813e-02 
       1.537887697396e-04       9.706641146744e-02 
       1.660572938097e-04       1.045283344874e-01 
       1.793045413791e-04       1.125635331079e-01 
       1.936085902737e-04       1.212159593564e-01 
       2.090537469909e-04       1.305329109624e-01 
       2.257310435923e-04       1.405652821718e-01 
       2.437387742372e-04       1.513678277592e-01 
       2.631830745176e-04       1.629994477756e-01 
       2.841785470091e-04       1.755234893398e-01 
       3.068489367268e-04       1.890080648434e-01 
       3.313278604643e-04       2.035263980792e-01 
       3.577595943165e-04       2.191571781648e-01 
       3.862999240274e-04       2.359849427121e-01 
       4.171170631739e-04       2.541004717132e-01 
       4.503926445983e-04       2.736012065573e-01 
       4.863227909323e-04       2.945916779354e-01 
       5.251192705226e-04       3.171839512883e-01 
       5.670107455699e-04       3.414980774445e-01 
       6.122441198393e-04       3.676625421962e-01 
       6.610859938837e-04       3.958147278854e-01 
       7.138242363583e-04       4.261013338376e-01 
       7.707696806873e-04       4.586787887477e-01 
       8.322579570814e-04       4.937136119742e-01 
       8.986514707061e-04       5.313826969256e-01 
       9.703415376577e-04       5.718735184187e-01 
       1.047750691338e-03       6.153841933760e-01 
       1.131335172818e-03       6.621233630652e-01 
       1.221587619877e-03       7.123098751054e-01 
       1.319039970550e-03       7.661721270857e-01 
       1.424266598317e-03       8.239547187894e-01 
       1.537887697396e-03       8.859012288501e-01 
       1.660572938097e-03       9.522589499865e-01 
       1.793045413791e-03       1.023280284904e+00 
       1.936085902737e-03       1.099216541935e+00 
       2.090537469909e-03       1.180313284355e+00 
       2.257310435923e-03       1.266804485415e+00 
       2.437387742372e-03       1.358905326087e+00 
       2.631830745176e-03       1.456803282234e+00 
       2.841785470091e-03       1.560647657497e+00 
       3.068489367268e-03       1.670537002572e+00 
       3.313278604643e-03       1.786505028300e+00 
       3.577595943165e-03       1.908504394287e+00 
       3.862999240274e-03       2.036389446858e+00 
       4.171170631739e-03       2.169898222739e+00 
       4.503926445983e-03       2.308634494425e+00 
       4.863227909323e-03       2.452050643557e+00 
       5.251192705226e-03       2.599434666780e+00 
       5.670107455699e-03       2.749900871781e+00 
       6.122441198393e-03       2.902390021883e+00 
       6.610859938837e-03       3.055671227190e+00 
       7.138242363583e-03       3.208359517420e+00 
       7.707696806873e-03       3.358926222832e+00 
       8.322579570814e-03       3.505727649208e+00 
       8.986514707061e-03       3.647012212839e+00 
       9.703415376577e-03       3.780925181532e+00 
       1.047750691338e-02       3.905491770038e+00 
       1.131335172818e-02       4.018588222402e+00 
       1.221587619877e-02       4.117900978833e+00 
       1.319039970550e-02       4.200915197802e+00 
       1.424266598317e-02       4.264940452217e+00 
       1.537887697392e-02       4.307215397855e+00 
       1.660572938023e-02       4.325056910947e+00 
       1.793045412706e-02       4.316053277756e+00 
       1.936085890181e-02       4.278219816081e+00 
       2.090537352463e-02       4.210193040637e+00 
       2.257309535333e-02       4.111404267646e+00 
       2.437382002918e-02       3.982402767535e+00 
       2.631799944462e-02       3.825146111661e+00 
       2.841644545389e-02       3.643254221783e+00 
       3.067933355377e-02       3.442164815590e+00 
       3.311368470740e-02       3.229195391571e+00 
       3.571840443502e-02       3.013467087152e+00 
       3.847720348444e-02       2.805226289533e+00 
       4.135335538431e-02       2.614342944418e+00 
       4.429361667738e-02       2.448057971320e+00 
       4.724366439141e-02       2.309153418867e+00 
       5.016480835311e-02       2.196016897165e+00 
       5.303989620246e-02       2.104263209647e+00 
       5.586870669566e-02       2.028346772145e+00 
       5.866042680613e-02       1.963030769076e+00 
       6.142798932958e-02       1.903647026198e+00 
       6.418496440164e-02       1.846339010994e+00 
       6.694418833788e-02       1.788050516717e+00 
       6.971731106057e-02       1.726562525553e+00 
       7.251476155766e-02       1.660495843502e+00 
       7.534587671527e-02       1.589306627144e+00 
       7.821907666265e-02       1.513269272688e+00 
       8.114203772912e-02       1.433397917328e+00 
       8.412184535029e-02       1.351318263413e+00 
       8.716512279304e-02       1.269097010453e+00 
       9.027813695930e-02       1.189013040293e+00 
       9.346688431697e-02       1.113318277433e+00 
       9.673716028276e-02       1.043988347431e+00 
       1.000946150830e-01       9.825164409350e-01 
       1.035447986537e-01       9.297429602565e-01 
       1.070931966762e-01       8.857591164979e-01 
       1.107452594425e-01       8.498659871025e-01 
       1.145064249153e-01       8.205920960282e-01 
       1.183821370918e-01       7.958069706600e-01 
       1.223778605862e-01       7.729224211562e-01 
       1.264990921987e-01       7.492223242564e-01 
       1.307513701367e-01       7.223239718276e-01 
       1.351402814784e-01       6.906724181417e-01 
       1.396714684203e-01       6.539431219764e-01 
       1.443506338194e-01       6.131883086227e-01 
       1.491835465229e-01       5.706303009063e-01 
       1.541760469708e-01       5.291273163676e-01 
       1.593340535561e-01       4.914733372702e-01 
       1.646635702297e-01       4.596818847478e-01 
       1.701706958456e-01       4.344875171563e-01 
       1.758616357459e-01       4.151636260821e-01 
       1.817427160982e-01       3.996884126308e-01 
       1.878204015065e-01       3.854306521026e-01 
       1.941013164283e-01       3.695546971834e-01 
       2.005922709503e-01       3.502908617354e-01 
       2.073002914972e-01       3.277872979504e-01 
       2.142326570816e-01       3.039612100765e-01 
       2.213969417533e-01       2.813609106252e-01 
       2.288010639706e-01       2.620072374875e-01 
       2.364533437147e-01       2.467116019005e-01 
       2.443625682930e-01       2.347615311875e-01 
       2.525380679504e-01       2.241643959986e-01 
       2.609898026346e-01       2.128399888596e-01 
       2.697284615565e-01       1.998487195227e-01 
       2.787655775689e-01       1.857695473321e-01 
       2.881136588829e-01       1.722691306645e-01 
       2.977863412677e-01       1.608193086404e-01 
       3.077985646929e-01       1.515146269370e-01 
       3.181667794071e-01       1.433133141433e-01 
       3.289091877812e-01       1.349363671837e-01 
       3.400460299658e-01       1.259213146531e-01 
       3.515999236474e-01       1.169615507434e-01 
       3.635962711085e-01       1.089387980359e-01 
       3.760637506334e-01       1.020729120233e-01 
       3.890349143879e-01       9.570260709030e-02 
       4.025469216825e-01       8.927482908053e-02 
       4.166424456376e-01       8.288164865027e-02 
       4.313708035863e-01       7.698797856241e-02 
       4.467893782977e-01       7.167542037663e-02 
       4.629654199664e-01       6.664631907794e-02 
       4.799783501994e-01       6.169774909491e-02 
       4.979227319373e-01       5.700549684753e-02 
       5.169121270864e-01       5.268904769411e-02 
       5.370841404489e-01       4.855913220765e-02 
       5.586070464571e-01       4.458362049375e-02 
       5.816885094930e-01       4.084810148149e-02 
       6.065870144995e-01       3.728976215627e-02 
       6.336266468475e-01       3.388003405471e-02 
       6.632156059511e-01       3.064241061382e-02 
       6.958678639263e-01       2.754050437617e-02 
       7.322247985589e-01       2.458399330996e-02 
       7.730680195114e-01       2.176134244070e-02 
       8.193049553677e-01       1.908323224958e-02 
       8.718988016039e-01       1.656210566406e-02 
       9.317218031082e-01       1.422310916855e-02 
       9.993660908989e-01       1.209591740279e-02 
       1.075037110174e+00       1.020429756523e-02 
       1.158653485707e+00       8.558077905431e-03 
       1.250099157308e+00       7.149513630127e-03 
       1.349432401273e+00       5.956849160545e-03 
       1.456947457397e+00       4.953459677611e-03 
       1.573135111331e+00       4.112200675683e-03 
       1.698621895592e+00       3.408431462350e-03 
       1.834127512934e+00       2.820671188623e-03 
       1.980444934528e+00       2.330471011051e-03 
       2.138435191726e+00       1.922239672079e-03 
       2.309029199186e+00       1.582737080616e-03 
       2.493232377687e+00       1.300801691209e-03 
       2.692130395285e+00       1.066991200431e-03 
       2.906895534573e+00       8.733830843971e-04 
       3.138793597714e+00       7.132966522318e-04 
       3.389191366484e+00       5.811359961348e-04 
       3.659564657905e+00       4.722066797497e-04 
       3.951507022538e+00       3.825853817456e-04 
       4.266739136701e+00       3.089795325902e-04 
       4.607118943941e+00       2.486503343014e-04 
       4.974652605557e+00       1.993136585140e-04 
       5.371506324689e+00       1.590650176393e-04 
       5.800019113685e+00       1.263172023974e-04 
       6.262716579983e+00       9.975542266417e-05 
       6.762325811764e+00       7.828511407145e-05 
       7.301791451110e+00       6.099973146243e-05 
       7.884293049406e+00       4.714670137674e-05 
       8.513263807261e+00       3.610401517569e-05 
       9.192410809424e+00       2.735491434841e-05 
       9.925736873929e+00       2.047360411218e-05 
       1.071756414427e+01       1.510669199673e-05 
       1.157255956364e+01       1.096331010494e-05 
       1.249576238137e+01       7.801614982598e-06 
       1.349261385375e+01       5.424123599385e-06 
       1.456898931416e+01       3.666704373352e-06 
       1.573123280165e+01       2.394546934082e-06 
       1.698619445202e+01       1.497424959542e-06 
       1.834127087176e+01       8.851663682812e-07 
       1.980444873285e+01       4.847575857354e-07 
       2.138435184532e+01       2.376346929549e-07 
       2.309029198506e+01       9.744002420552e-08 
       2.493232377636e+01       2.822195762879e-08 
       2.692130395282e+01       2.741456808888e-09 
       2.906895534573e+01       1.361160321517e-09 
       3.138793597714e+01       1.047674799763e-08 
       3.389191366484e+01       2.150133583493e-08 
       3.659564657905e+01       2.973288653650e-08 
       3.951507022538e+01       3.332795974646e-08 
       4.266739136701e+01       3.235588055901e-08 
       4.607118943941e+01       2.796871964583e-08 
       4.974652605557e+01       2.175783522564e-08 
       5.371506324689e+01       1.521861955209e-08 
       5.800019113685e+01       9.463631066837e-09 
       6.262716579983e+01       5.104186708272e-09 
       6.762325811764e+01       2.267780433259e-09 
       7.301791451110e+01       7.366442720877e-10 
       7.884293049406e+01       1.172891576838e-10 
       8.513263807261e+01       9.440323341493e-13 
       9.192410809424e+01       7.085095334566e-11 
       9.925736873929e+01       1.444954750192e-10 
       1.071756414427e+02       1.583881620559e-10 
       1.157255956364e+02       1.220834116389e-10 
       1.249576238137e+02       7.015048062924e-11 
       1.349261385375e+02       2.893006679120e-11 
