# Matter power spectrum P(k) at redshift z=0
# for k=1.04775e-05 to 213.844 h/Mpc,
# number of wavenumbers equal to 261
#    1:k (h/Mpc)              2:P (Mpc/h)^3        
       1.047750691338e-05       5.020963906806e+01 
       1.131335172818e-05       5.407048937180e+01 
       1.221587619877e-05       5.822820724035e+01 
       1.319039970550e-05       6.270562047452e+01 
       1.424266598317e-05       6.752731476101e+01 
       1.537887697396e-05       7.271975715403e+01 
       1.660572938097e-05       7.831147101229e+01 
       1.793045413791e-05       8.433312302123e+01 
       1.936085902737e-05       9.081780130649e+01 
       2.090537469909e-05       9.780107395094e+01 
       2.257310435923e-05       1.053212938597e+02 
       2.437387742372e-05       1.134197268470e+02 
       2.631830745176e-05       1.221408285753e+02 
       2.841785470091e-05       1.315324590475e+02 
       3.068489367268e-05       1.416461664346e+02 
       3.313278604643e-05       1.525374476414e+02 
       3.577595943165e-05       1.642660514110e+02 
       3.862999240274e-05       1.768963429091e+02 
       4.171170631739e-05       1.904975997773e+02 
       4.503926445983e-05       2.051444243233e+02 
       4.863227909323e-05       2.209171412027e+02 
       5.251192705226e-05       2.379022266261e+02 
       5.670107455699e-05       2.561927841221e+02 
       6.122441198393e-05       2.758890478248e+02 
       6.610859938837e-05       2.970989214279e+02 
       7.138242363583e-05       3.199385559931e+02 
       7.707696806873e-05       3.445329727003e+02 
       8.322579570814e-05       3.710167323902e+02 
       8.986514707061e-05       3.995346444159e+02 
       9.703415376577e-05       4.302425389351e+02 
       1.047750691338e-04       4.633080773458e+02 
       1.131335172818e-04       4.989116277050e+02 
       1.221587619877e-04       5.372471938775e+02 
       1.319039970550e-04       5.785234116862e+02 
       1.424266598317e-04       6.229645933320e+02 
       1.537887697396e-04       6.708118487411e+02 
       1.660572938097e-04       7.223242657675e+02 
       1.793045413791e-04       7.777801570868e+02 
       1.936085902737e-04       8.374783640700e+02 
       2.090537469909e-04       9.017396292009e+02 
       2.257310435923e-04       9.709080297650e+02 
       2.437387742372e-04       1.045352453367e+03 
       2.631830745176e-04       1.125468127720e+03 
       2.841785470091e-04       1.211678185927e+03 
       3.068489367268e-04       1.304435256065e+03 
       3.313278604643e-04       1.404223062925e+03 
       3.577595943165e-04       1.511558029577e+03 
       3.862999240274e-04       1.626990852554e+03 
       4.171170631739e-04       1.751108045598e+03 
       4.503926445983e-04       1.884533404748e+03 
       4.863227909323e-04       2.027929406956e+03 
       5.251192705226e-04       2.181998483907e+03 
       5.670107455699e-04       2.347484146065e+03 
       6.122441198393e-04       2.525171925184e+03 
       6.610859938837e-04       2.715890054961e+03 
       7.138242363583e-04       2.920509779301e+03 
       7.707696806873e-04       3.139945208016e+03 
       8.322579570814e-04       3.375152476965e+03 
       8.986514707061e-04       3.627128020389e+03 
       9.703415376577e-04       3.896905669438e+03 
       1.047750691338e-03       4.185552452469e+03 
       1.131335172818e-03       4.494162775353e+03 
       1.221587619877e-03       4.823851150281e+03 
       1.319039970550e-03       5.175743278264e+03 
       1.424266598317e-03       5.551020298026e+03 
       1.537887697396e-03       5.950789184461e+03 
       1.660572938097e-03       6.376124148628e+03 
       1.793045413791e-03       6.828075234510e+03 
       1.936085902737e-03       7.307627048040e+03 
       2.090537469909e-03       7.815673954710e+03 
       2.257310435923e-03       8.352992916743e+03 
       2.437387742372e-03       8.920214297276e+03 
       2.631830745176e-03       9.517787154015e+03 
       2.841785470091e-03       1.014594128873e+04 
       3.068489367268e-03       1.080465133941e+04 
       3.313278604643e-03       1.149358235939e+04 
       3.577595943165e-03       1.221204581855e+04 
       3.862999240274e-03       1.295893659511e+04 
       4.171170631739e-03       1.373267328919e+04 
       4.503926445983e-03       1.453113486595e+04 
       4.863227909323e-03       1.535157096734e+04 
       5.251192705226e-03       1.619066144043e+04 
       5.670107455699e-03       1.704433712148e+04 
       6.122441198393e-03       1.790758143873e+04 
       6.610859938837e-03       1.877462008647e+04 
       7.138242363583e-03       1.963874350678e+04 
       7.707696806873e-03       2.049217095122e+04 
       8.322579570814e-03       2.132608604663e+04 
       8.986514707061e-03       2.213056772549e+04 
       9.703415376577e-03       2.289447058736e+04 
       1.047750691338e-02       2.360549160250e+04 
       1.131335172818e-02       2.425023508936e+04 
       1.221587619877e-02       2.481424053334e+04 
       1.319039970550e-02       2.528219118682e+04 
       1.424266598317e-02       2.563814072639e+04 
       1.537887697392e-02       2.586606123863e+04 
       1.660572938023e-02       2.595025275288e+04 
       1.793045412706e-02       2.587633116983e+04 
       1.936085890181e-02       2.563216636203e+04 
       2.090537352463e-02       2.520932256490e+04 
       2.257309535333e-02       2.460440417144e+04 
       2.437382002918e-02       2.382082961042e+04 
       2.631799944462e-02       2.287037127110e+04 
       2.841644545389e-02       2.177439868653e+04 
       3.067933355377e-02       2.056545231390e+04 
       3.311368470740e-02       1.928716838735e+04 
       3.571840443502e-02       1.799385165324e+04 
       3.847720348444e-02       1.674663591955e+04 
       4.135335538431e-02       1.560436223049e+04 
       4.429361667738e-02       1.461009531493e+04 
       4.724366439141e-02       1.378026037287e+04 
       5.016480835311e-02       1.310472259374e+04 
       5.303989620246e-02       1.255681592204e+04 
       5.586870669566e-02       1.210384360230e+04 
       5.866042680613e-02       1.171422809433e+04 
       6.142798932958e-02       1.136001771014e+04 
       6.418496440164e-02       1.101807287141e+04 
       6.694418833788e-02       1.067017067572e+04 
       6.971731106057e-02       1.030306056153e+04 
       7.251476155766e-02       9.908469110777e+03 
       7.534587671527e-02       9.483172812718e+03 
       7.821907666265e-02       9.028924799922e+03 
       8.114203772912e-02       8.551726533140e+03 
       8.412184535029e-02       8.061297942302e+03 
       8.716512279304e-02       7.570165949299e+03 
       9.027813695930e-02       7.091872804901e+03 
       9.346688431697e-02       6.639895756200e+03 
       9.673716028276e-02       6.226071011628e+03 
       1.000946150830e-01       5.859283707350e+03 
       1.035447986537e-01       5.544605458407e+03 
       1.070931966762e-01       5.282461713080e+03 
       1.107452594425e-01       5.068728356026e+03 
       1.145064249153e-01       4.894534351022e+03 
       1.183821370918e-01       4.747105083087e+03 
       1.223778605862e-01       4.610961017390e+03 
       1.264990921987e-01       4.469813078027e+03 
       1.307513701367e-01       4.309460861312e+03 
       1.351402814784e-01       4.120571084933e+03 
       1.396714684203e-01       3.901246266502e+03 
       1.443506338194e-01       3.657841889647e+03 
       1.491835465229e-01       3.403682107822e+03 
       1.541760469708e-01       3.155855439458e+03 
       1.593340535561e-01       2.931145664776e+03 
       1.646635702297e-01       2.741558436381e+03 
       1.701706958456e-01       2.591430769579e+03 
       1.758616357459e-01       2.476402917190e+03 
       1.817427160982e-01       2.384332577125e+03 
       1.878204015065e-01       2.299503293485e+03 
       1.941013164283e-01       2.204886568128e+03 
       2.005922709503e-01       2.089949207229e+03 
       2.073002914972e-01       1.955591358877e+03 
       2.142326570816e-01       1.813336278144e+03 
       2.213969417533e-01       1.678429529533e+03 
       2.288010639706e-01       1.562994086536e+03 
       2.364533437147e-01       1.471833194508e+03 
       2.443625682930e-01       1.400666220325e+03 
       2.525380679504e-01       1.337554361511e+03 
       2.609898026346e-01       1.270041286767e+03 
       2.697284615565e-01       1.192527990974e+03 
       2.787655775689e-01       1.108491630451e+03 
       2.881136588829e-01       1.027930688888e+03 
       2.977863412677e-01       9.596479291984e+02 
       3.077985646929e-01       9.041920732537e+02 
       3.181667794071e-01       8.553158609726e+02 
       3.289091877812e-01       8.053628127203e+02 
       3.400460299658e-01       7.515748835717e+02 
       3.515999236474e-01       6.981147745976e+02 
       3.635962711085e-01       6.502648032918e+02 
       3.760637506334e-01       6.093284017936e+02 
       3.890349143879e-01       5.713462295762e+02 
       4.025469216825e-01       5.330048045190e+02 
       4.166424456376e-01       4.948649372646e+02 
       4.313708035863e-01       4.597108434050e+02 
       4.467893782977e-01       4.280282887755e+02 
       4.629654199664e-01       3.980339292661e+02 
       4.799783501994e-01       3.685140142210e+02 
       4.979227319373e-01       3.405229468163e+02 
       5.169121270864e-01       3.147781453052e+02 
       5.370841404489e-01       2.901416585460e+02 
       5.586070464571e-01       2.664243131251e+02 
       5.816885094930e-01       2.441412550103e+02 
       6.065870144995e-01       2.229128646658e+02 
       6.336266468475e-01       2.025696920959e+02 
       6.632156059511e-01       1.832527607804e+02 
       6.958678639263e-01       1.647452392057e+02 
       7.322247985589e-01       1.471031968932e+02 
       7.730680195114e-01       1.302595824957e+02 
       8.193049553677e-01       1.142761179732e+02 
       8.718988016039e-01       9.922723323466e+01 
       9.317218031082e-01       8.526502842602e+01 
       9.993660908989e-01       7.256468683422e+01 
       1.075037110174e+00       6.126911013384e+01 
       1.158653485707e+00       5.143581139841e+01 
       1.250099157308e+00       4.302006900217e+01 
       1.349432401273e+00       3.589179805269e+01 
       1.456947457397e+00       2.989263294065e+01 
       1.573135111331e+00       2.486062871530e+01 
       1.698621895592e+00       2.064862959793e+01 
       1.834127512934e+00       1.712881144359e+01 
       1.980444934528e+00       1.419102796370e+01 
       2.138435191726e+00       1.174253777572e+01 
       2.309029199186e+00       9.704193993299e+00 
       2.493232377687e+00       8.009507124510e+00 
       2.692130395285e+00       6.602137100121e+00 
       2.906895534573e+00       5.434802089980e+00 
       3.138793597714e+00       4.467727149446e+00 
       3.389191366484e+00       3.667484160573e+00 
       3.659564657905e+00       3.006111723540e+00 
       3.951507022538e+00       2.460158617821e+00 
       4.266739136701e+00       2.010053251278e+00 
       4.607118943941e+00       1.639421917415e+00 
       4.974652605557e+00       1.334639437894e+00 
       5.371506324689e+00       1.084339124862e+00 
       5.800019113685e+00       8.790750977151e-01 
       6.262716579983e+00       7.109955678302e-01 
       6.762325811764e+00       5.735830495496e-01 
       7.301791451110e+00       4.614332517731e-01 
       7.884293049406e+00       3.700696910485e-01 
       8.513263807261e+00       2.957916606156e-01 
       9.192410809424e+00       2.355354266538e-01 
       9.925736873929e+00       1.867733664286e-01 
       1.071756414427e+01       1.474218503952e-01 
       1.157255956364e+01       1.157582953550e-01 
       1.249576238137e+01       9.036971518377e-02 
       1.349261385375e+01       7.009090058192e-02 
       1.456898931416e+01       5.396379845318e-02 
       1.573123280165e+01       4.120440040631e-02 
       1.698619445202e+01       3.116597470667e-02 
       1.834127087176e+01       2.332148912426e-02 
       1.980444873285e+01       1.723874884195e-02 
       2.138435184532e+01       1.256316944879e-02 
       2.309029198506e+01       9.006940585065e-03 
       2.493232377636e+01       6.335018330848e-03 
       2.692130395282e+01       4.355962027238e-03 
       2.906895534573e+01       2.915457584169e-03 
       3.138793597714e+01       1.888085998718e-03 
       3.389191366484e+01       1.173857940009e-03 
       3.659564657905e+01       6.925814866353e-04 
       3.951507022538e+01       3.810441413866e-04 
       4.266739136701e+01       1.898809058296e-04 
       4.607118943941e+01       8.109867946662e-05 
       4.974652605557e+01       2.614994478674e-05 
       5.371506324689e+01       4.080871411267e-06 
       5.800019113685e+01       1.274859520003e-07 
       6.262716579983e+01       4.401383552604e-06 
       6.762325811764e+01       1.079930870570e-05 
       7.301791451110e+01       1.598631560309e-05 
       7.884293049406e+01       1.861541831234e-05 
       8.513263807261e+01       1.858843959091e-05 
       9.192410809424e+01       1.650811166399e-05 
       9.925736873929e+01       1.324146401837e-05 
       1.071756414427e+02       9.633064844538e-06 
       1.157255956364e+02       6.337467586535e-06 
       1.249576238137e+02       3.713193248654e-06 
       1.349261385375e+02       1.886145089085e-06 
       1.456898931416e+02       7.848660420521e-07 
       1.573123280165e+02       2.350760125766e-07 
       1.698619445202e+02       3.157334627033e-08 
       1.834127087176e+02       1.273136177794e-09 
       1.980444873285e+02       2.685337902056e-08 
       2.138435184532e+02       4.888060909385e-08 
