# Matter power spectrum P(k) at redshift z=99
# for k=1.04775e-05 to 134.926 h/Mpc,
# number of wavenumbers equal to 255
#    1:k (h/Mpc)              2:P (Mpc/h)^3        
       1.047750691338e-05       7.261927344035e-03 
       1.131335172818e-05       7.820332418667e-03 
       1.221587619877e-05       8.421675670478e-03 
       1.319039970550e-05       9.069258048315e-03 
       1.424266598317e-05       9.766636785205e-03 
       1.537887697396e-05       1.051764009636e-02 
       1.660572938097e-05       1.132639289498e-02 
       1.793045413791e-05       1.219733242896e-02 
       1.936085902737e-05       1.313524232143e-02 
       2.090537469909e-05       1.414527133286e-02 
       2.257310435923e-05       1.523296596602e-02 
       2.437387742372e-05       1.640429710693e-02 
       2.631830745176e-05       1.766569663502e-02 
       2.841785470091e-05       1.902408776055e-02 
       3.068489367268e-05       2.048693037083e-02 
       3.313278604643e-05       2.206225542550e-02 
       3.577595943165e-05       2.375870963375e-02 
       3.862999240274e-05       2.558560756975e-02 
       4.171170631739e-05       2.755297767392e-02 
       4.503926445983e-05       2.967162035501e-02 
       4.863227909323e-05       3.195316565403e-02 
       5.251192705226e-05       3.441013581935e-02 
       5.670107455699e-05       3.705601870713e-02 
       6.122441198393e-05       3.990533549430e-02 
       6.610859938837e-05       4.297372397077e-02 
       7.138242363583e-05       4.627802247135e-02 
       7.707696806873e-05       4.983636332168e-02 
       8.322579570814e-05       5.366826971989e-02 
       8.986514707061e-05       5.779476517728e-02 
       9.703415376577e-05       6.223848434182e-02 
       1.047750691338e-04       6.702380054017e-02 
       1.131335172818e-04       7.217695233284e-02 
       1.221587619877e-04       7.772619292291e-02 
       1.319039970550e-04       8.370193660400e-02 
       1.424266598317e-04       9.013692815341e-02 
       1.537887697396e-04       9.706641458730e-02 
       1.660572938097e-04       1.045283378640e-01 
       1.793045413791e-04       1.125635367344e-01 
       1.936085902737e-04       1.212159632473e-01 
       2.090537469909e-04       1.305329151519e-01 
       2.257310435923e-04       1.405652866862e-01 
       2.437387742372e-04       1.513678325936e-01 
       2.631830745176e-04       1.629994529841e-01 
       2.841785470091e-04       1.755234949285e-01 
       3.068489367268e-04       1.890080708403e-01 
       3.313278604643e-04       2.035264045086e-01 
       3.577595943165e-04       2.191571850535e-01 
       3.862999240274e-04       2.359849500960e-01 
       4.171170631739e-04       2.541004796106e-01 
       4.503926445983e-04       2.736012149985e-01 
       4.863227909323e-04       2.945916869425e-01 
       5.251192705226e-04       3.171839608834e-01 
       5.670107455699e-04       3.414980876458e-01 
       6.122441198393e-04       3.676625530168e-01 
       6.610859938837e-04       3.958147393291e-01 
       7.138242363583e-04       4.261013458963e-01 
       7.707696806873e-04       4.586788014058e-01 
       8.322579570814e-04       4.937136251889e-01 
       8.986514707061e-04       5.313827106307e-01 
       9.703415376577e-04       5.718735325044e-01 
       1.047750691338e-03       6.153842076968e-01 
       1.131335172818e-03       6.621233774149e-01 
       1.221587619877e-03       7.123098891966e-01 
       1.319039970550e-03       7.661721405294e-01 
       1.424266598317e-03       8.239547313123e-01 
       1.537887697396e-03       8.859012396152e-01 
       1.660572938097e-03       9.522589576911e-01 
       1.793045413791e-03       1.023280287827e+00 
       1.936085902737e-03       1.099216537791e+00 
       2.090537469909e-03       1.180313270099e+00 
       2.257310435923e-03       1.266804457004e+00 
       2.437387742372e-03       1.358905278113e+00 
       2.631830745176e-03       1.456803207509e+00 
       2.841785470091e-03       1.560647551425e+00 
       3.068489367268e-03       1.670536850140e+00 
       3.313278604643e-03       1.786504785256e+00 
       3.577595943165e-03       1.908504094167e+00 
       3.862999240274e-03       2.036389111741e+00 
       4.171170631739e-03       2.169897845503e+00 
       4.503926445983e-03       2.308633822507e+00 
       4.863227909323e-03       2.452049506082e+00 
       5.251192705226e-03       2.599433224032e+00 
       5.670107455699e-03       2.749898775005e+00 
       6.122441198393e-03       2.902387030400e+00 
       6.610859938837e-03       3.055667902622e+00 
       7.138242363583e-03       3.208354248645e+00 
       7.707696806873e-03       3.358919152307e+00 
       8.322579570814e-03       3.505718162291e+00 
       8.986514707061e-03       3.646999389986e+00 
       9.703415376577e-03       3.780908142573e+00 
       1.047750691338e-02       3.905469924065e+00 
       1.131335172818e-02       4.018558224790e+00 
       1.221587619877e-02       4.117861099680e+00 
       1.319039970550e-02       4.200862742774e+00 
       1.424266598317e-02       4.264871705285e+00 
       1.537887697392e-02       4.307125765904e+00 
       1.660572938023e-02       4.324940545750e+00 
       1.793045412706e-02       4.315903166033e+00 
       1.936085890181e-02       4.278026317154e+00 
       2.090537352463e-02       4.209947341268e+00 
       2.257309535333e-02       4.111093010651e+00 
       2.437382002918e-02       3.982011247913e+00 
       2.631799944462e-02       3.824658015064e+00 
       2.841644545389e-02       3.642651011273e+00 
       3.067933355377e-02       3.441425150203e+00 
       3.311368470740e-02       3.228300026808e+00 
       3.571840443502e-02       3.012390072541e+00 
       3.847720348444e-02       2.803951650723e+00 
       4.135335538431e-02       2.612848595062e+00 
       4.429361667738e-02       2.446339532919e+00 
       4.724366439141e-02       2.307203528902e+00 
       5.016480835311e-02       2.193841354284e+00 
       5.303989620246e-02       2.101864176218e+00 
       5.586870669566e-02       2.025729874422e+00 
       5.866042680613e-02       1.960204371639e+00 
       6.142798932958e-02       1.900619902251e+00 
       6.418496440164e-02       1.843125385755e+00 
       6.694418833788e-02       1.784659898479e+00 
       6.971731106057e-02       1.723008683715e+00 
       7.251476155766e-02       1.656791287728e+00 
       7.534587671527e-02       1.585465328664e+00 
       7.821907666265e-02       1.509302419103e+00 
       8.114203772912e-02       1.429314311900e+00 
       8.412184535029e-02       1.347127692659e+00 
       8.716512279304e-02       1.264802117282e+00 
       9.027813695930e-02       1.184615917244e+00 
       9.346688431697e-02       1.108814597700e+00 
       9.673716028276e-02       1.039372546088e+00 
       1.000946150830e-01       9.777686062752e-01 
       1.035447986537e-01       9.248583432317e-01 
       1.070931966762e-01       8.807201151311e-01 
       1.107452594425e-01       8.446529504362e-01 
       1.145064249153e-01       8.151955547660e-01 
       1.183821370918e-01       7.902209392730e-01 
       1.223778605862e-01       7.671495453004e-01 
       1.264990921987e-01       7.432764968053e-01 
       1.307513701367e-01       7.162290638088e-01 
       1.351402814784e-01       6.844591155586e-01 
       1.396714684203e-01       6.476440667868e-01 
       1.443506338194e-01       6.068323935107e-01 
       1.491835465229e-01       5.642359023363e-01 
       1.541760469708e-01       5.226984334630e-01 
       1.593340535561e-01       4.849975014147e-01 
       1.646635702297e-01       4.531304363842e-01 
       1.701706958456e-01       4.278263317331e-01 
       1.758616357459e-01       4.083594860199e-01 
       1.817427160982e-01       3.927231615076e-01 
       1.878204015065e-01       3.783092272199e-01 
       1.941013164283e-01       3.623070947604e-01 
       2.005922709503e-01       3.429673324954e-01 
       2.073002914972e-01       3.204391166486e-01 
       2.142326570816e-01       2.966138071289e-01 
       2.213969417533e-01       2.740170899833e-01 
       2.288010639706e-01       2.546396485248e-01 
       2.364533437147e-01       2.392796073723e-01 
       2.443625682930e-01       2.272304861322e-01 
       2.525380679504e-01       2.165314927633e-01 
       2.609898026346e-01       2.051358918444e-01 
       2.697284615565e-01       1.921232812868e-01 
       2.787655775689e-01       1.780612345908e-01 
       2.881136588829e-01       1.645856878505e-01 
       2.977863412677e-01       1.531322072034e-01 
       3.077985646929e-01       1.437909895299e-01 
       3.181667794071e-01       1.355444331206e-01 
       3.289091877812e-01       1.271473717977e-01 
       3.400460299658e-01       1.181513295106e-01 
       3.515999236474e-01       1.092287299499e-01 
       3.635962711085e-01       1.012316333117e-01 
       3.760637506334e-01       9.437059436212e-02 
       3.890349143879e-01       8.800698635374e-02 
       4.025469216825e-01       8.160990605843e-02 
       4.166424456376e-01       7.526709772267e-02 
       4.313708035863e-01       6.942165354770e-02 
       4.467893782977e-01       6.415011175154e-02 
       4.629654199664e-01       5.916893668414e-02 
       4.799783501994e-01       5.428645615118e-02 
       4.979227319373e-01       4.966724069181e-02 
       5.169121270864e-01       4.542232363935e-02 
       5.370841404489e-01       4.137481704971e-02 
       5.586070464571e-01       3.749455557725e-02 
       5.816885094930e-01       3.386009676046e-02 
       6.065870144995e-01       3.041373324195e-02 
       6.336266468475e-01       2.712981479317e-02 
       6.632156059511e-01       2.402981211576e-02 
       6.958678639263e-01       2.108237176198e-02 
       7.322247985589e-01       1.829768458929e-02 
       7.730680195114e-01       1.566826187945e-02 
       8.193049553677e-01       1.320710211131e-02 
       8.718988016039e-01       1.092925042032e-02 
       9.317218031082e-01       8.860881575622e-03 
       9.993660908989e-01       7.030354008735e-03 
       1.075037110174e+00       5.457490684827e-03 
       1.158653485707e+00       4.146120362892e-03 
       1.250099157308e+00       3.082233272693e-03 
       1.349432401273e+00       2.238516372040e-03 
       1.456947457397e+00       1.583355247993e-03 
       1.573135111331e+00       1.085440122307e-03 
       1.698621895592e+00       7.161178892285e-04 
       1.834127512934e+00       4.501989497585e-04 
       1.980444934528e+00       2.655922030188e-04 
       2.138435191726e+00       1.435872562073e-04 
       2.309029199186e+00       6.815498195914e-05 
       2.493232377687e+00       2.596246451538e-05 
       2.692130395285e+00       6.145161587803e-06 
       2.906895534573e+00       1.447393621059e-07 
       3.138793597714e+00       1.517866400348e-06 
       3.389191366484e+00       5.732752887813e-06 
       3.659564657905e+00       9.914830302539e-06 
       3.951507022538e+00       1.255340949215e-05 
       4.266739136701e+00       1.317954356417e-05 
       4.607118943941e+00       1.203048629773e-05 
       4.974652605557e+00       9.717254916699e-06 
       5.371506324689e+00       6.961877626490e-06 
       5.800019113685e+00       4.372530026225e-06 
       6.262716579983e+00       2.337749434628e-06 
       6.762325811764e+00       9.999523654736e-07 
       7.301791451110e+00       2.916494778892e-07 
       7.884293049406e+00       3.031761264404e-08 
       8.513263807261e+00       7.449977142942e-09 
       9.192410809424e+00       5.880328042598e-08 
       9.925736873929e+00       9.395136826498e-08 
       1.071756414427e+01       8.937321927327e-08 
       1.157255956364e+01       5.977118164221e-08 
       1.249576238137e+01       2.826532069954e-08 
       1.349261385375e+01       8.321163272936e-09 
       1.456898931416e+01       8.287894272970e-10 
       1.573123280165e+01       1.383641032871e-10 
       1.698619445202e+01       9.128087782144e-10 
       1.834127087176e+01       9.894706710337e-10 
       1.980444873285e+01       5.238191700098e-10 
       2.138435184532e+01       1.349480720280e-10 
       2.309029198506e+01       6.620049009014e-12 
       2.493232377636e+01       5.006779923342e-12 
       2.692130395282e+01       1.060912807357e-11 
       2.906895534573e+01       4.413350263948e-12 
       3.138793597714e+01       3.033773747689e-13 
       3.389191366484e+01       1.862491641193e-13 
       3.659564657905e+01       4.659798786142e-13 
       3.951507022538e+01       2.591011054905e-13 
       4.266739136701e+01       7.168196943502e-14 
       4.607118943941e+01       2.112477935923e-14 
       4.974652605557e+01       1.649174473748e-14 
       5.371506324689e+01       1.874813001383e-14 
       5.800019113685e+01       1.741813761794e-14 
       6.262716579983e+01       1.331403834542e-14 
       6.762325811764e+01       9.240419399777e-15 
       7.301791451110e+01       6.573583215856e-15 
       7.884293049406e+01       4.958849124176e-15 
       8.513263807261e+01       3.453506769593e-15 
       9.192410809424e+01       2.478257998648e-15 
       9.925736873929e+01       1.833984051692e-15 
       1.071756414427e+02       1.093615707591e-15 
       1.157255956364e+02       8.251289113477e-16 
       1.249576238137e+02       5.450421244878e-16 
       1.349261385375e+02       3.774715932861e-16 
