# Matter power spectrum P(k) at redshift z=0
# for k=1.04775e-05 to 213.844 h/Mpc,
# number of wavenumbers equal to 261
#    1:k (h/Mpc)              2:P (Mpc/h)^3        
       1.047750691338e-05       5.020963398181e+01 
       1.131335172818e-05       5.407047696302e+01 
       1.221587619877e-05       5.822820357192e+01 
       1.319039970550e-05       6.270562382582e+01 
       1.424266598317e-05       6.752731181048e+01 
       1.537887697396e-05       7.271975600798e+01 
       1.660572938097e-05       7.831146265280e+01 
       1.793045413791e-05       8.433312224792e+01 
       1.936085902737e-05       9.081779305152e+01 
       2.090537469909e-05       9.780106926858e+01 
       2.257310435923e-05       1.053212735650e+02 
       2.437387742372e-05       1.134197136550e+02 
       2.631830745176e-05       1.221408139065e+02 
       2.841785470091e-05       1.315324463928e+02 
       3.068489367268e-05       1.416461560603e+02 
       3.313278604643e-05       1.525374336579e+02 
       3.577595943165e-05       1.642660469368e+02 
       3.862999240274e-05       1.768963372732e+02 
       4.171170631739e-05       1.904975943039e+02 
       4.503926445983e-05       2.051444204140e+02 
       4.863227909323e-05       2.209171354231e+02 
       5.251192705226e-05       2.379022228600e+02 
       5.670107455699e-05       2.561927812782e+02 
       6.122441198393e-05       2.758890482159e+02 
       6.610859938837e-05       2.970989216747e+02 
       7.138242363583e-05       3.199385566779e+02 
       7.707696806873e-05       3.445329743901e+02 
       8.322579570814e-05       3.710167319465e+02 
       8.986514707061e-05       3.995346456600e+02 
       9.703415376577e-05       4.302425397886e+02 
       1.047750691338e-04       4.633080772129e+02 
       1.131335172818e-04       4.989116279109e+02 
       1.221587619877e-04       5.372471942056e+02 
       1.319039970550e-04       5.785234111870e+02 
       1.424266598317e-04       6.229645928057e+02 
       1.537887697396e-04       6.708118468308e+02 
       1.660572938097e-04       7.223242638728e+02 
       1.793045413791e-04       7.777801542471e+02 
       1.936085902737e-04       8.374783566490e+02 
       2.090537469909e-04       9.017396197380e+02 
       2.257310435923e-04       9.709080165871e+02 
       2.437387742372e-04       1.045352430075e+03 
       2.631830745176e-04       1.125468096026e+03 
       2.841785470091e-04       1.211678140048e+03 
       3.068489367268e-04       1.304435190272e+03 
       3.313278604643e-04       1.404222967832e+03 
       3.577595943165e-04       1.511557891211e+03 
       3.862999240274e-04       1.626990654160e+03 
       4.171170631739e-04       1.751107761147e+03 
       4.503926445983e-04       1.884532993352e+03 
       4.863227909323e-04       2.027928813080e+03 
       5.251192705226e-04       2.181997627686e+03 
       5.670107455699e-04       2.347482919087e+03 
       6.122441198393e-04       2.525170153937e+03 
       6.610859938837e-04       2.715887508905e+03 
       7.138242363583e-04       2.920506116504e+03 
       7.707696806873e-04       3.139939912681e+03 
       8.322579570814e-04       3.375144944565e+03 
       8.986514707061e-04       3.627117208354e+03 
       9.703415376577e-04       3.896890154898e+03 
       1.047750691338e-03       4.185530240264e+03 
       1.131335172818e-03       4.494131078914e+03 
       1.221587619877e-03       4.823805942664e+03 
       1.319039970550e-03       5.175678978950e+03 
       1.424266598317e-03       5.550928195668e+03 
       1.537887697396e-03       5.950657791161e+03 
       1.660572938097e-03       6.375936764856e+03 
       1.793045413791e-03       6.827809085308e+03 
       1.936085902737e-03       7.307250435078e+03 
       2.090537469909e-03       7.815142547779e+03 
       2.257310435923e-03       8.352244482972e+03 
       2.437387742372e-03       8.919163608942e+03 
       2.631830745176e-03       9.516315422035e+03 
       2.841785470091e-03       1.014388644096e+04 
       3.068489367268e-03       1.080178832145e+04 
       3.313278604643e-03       1.148960618129e+04 
       3.577595943165e-03       1.220653966188e+04 
       3.862999240274e-03       1.295133531369e+04 
       4.171170631739e-03       1.372221424155e+04 
       4.503926445983e-03       1.451678463014e+04 
       4.863227909323e-03       1.533194882351e+04 
       5.251192705226e-03       1.616391724221e+04 
       5.670107455699e-03       1.700802638315e+04 
       6.122441198393e-03       1.785844999047e+04 
       6.610859938837e-03       1.870840699808e+04 
       7.138242363583e-03       1.954983287572e+04 
       7.707696806873e-03       2.037327874456e+04 
       8.322579570814e-03       2.116778816976e+04 
       8.986514707061e-03       2.192060464851e+04 
       9.703415376577e-03       2.261727011315e+04 
       1.047750691338e-02       2.324123569424e+04 
       1.131335172818e-02       2.377394606664e+04 
       1.221587619877e-02       2.419455487121e+04 
       1.319039970550e-02       2.448029449623e+04 
       1.424266598317e-02       2.460633196644e+04 
       1.537887697392e-02       2.454667034882e+04 
       1.660572938023e-02       2.427410859380e+04 
       1.793045412706e-02       2.376221577152e+04 
       1.936085890181e-02       2.298676631343e+04 
       2.090537352463e-02       2.192780039418e+04 
       2.257309535333e-02       2.057325574741e+04 
       2.437382002918e-02       1.892247431911e+04 
       2.631799944462e-02       1.699122459202e+04 
       2.841644545389e-02       1.481646677375e+04 
       3.067933355377e-02       1.246140951292e+04 
       3.311368470740e-02       1.002013308564e+04 
       3.571840443502e-02       7.617235079566e+03 
       3.847720348444e-02       5.398488651649e+03 
       4.135335538431e-02       3.505038970344e+03 
       4.429361667738e-02       2.033931572567e+03 
       4.724366439141e-02       1.009410830180e+03 
       5.016480835311e-02       3.866907309721e+02 
       5.303989620246e-02       8.147265001355e+01 
       5.586870669566e-02       2.773621597972e-03 
       5.866042680613e-02       5.717485566264e+01 
       6.142798932958e-02       1.833291682315e+02 
       6.418496440164e-02       3.254628478867e+02 
       6.694418833788e-02       4.466661244624e+02 
       6.971731106057e-02       5.242164386874e+02 
       7.251476155766e-02       5.483252618188e+02 
       7.534587671527e-02       5.198783555565e+02 
       7.821907666265e-02       4.482060469058e+02 
       8.114203772912e-02       3.486393396205e+02 
       8.412184535029e-02       2.390911218572e+02 
       8.716512279304e-02       1.375217143915e+02 
       9.027813695930e-02       5.878831289053e+01 
       9.346688431697e-02       1.218876938376e+01 
       9.673716028276e-02       3.364696483540e-01 
       1.000946150830e-01       1.873643845805e+01 
       1.035447986537e-01       5.703717969185e+01 
       1.070931966762e-01       1.013757888798e+02 
       1.107452594425e-01       1.377562851686e+02 
       1.145064249153e-01       1.552894950296e+02 
       1.183821370918e-01       1.490959105051e+02 
       1.223778605862e-01       1.214803798852e+02 
       1.264990921987e-01       8.111870211576e+01 
       1.307513701367e-01       4.029849969648e+01 
       1.351402814784e-01       1.086098013060e+01 
       1.396714684203e-01       2.044145613663e-02 
       1.443506338194e-01       7.802585432358e+00 
       1.491835465229e-01       2.715468284508e+01 
       1.541760469708e-01       4.687522105111e+01 
       1.593340535561e-01       5.672512535313e+01 
       1.646635702297e-01       5.178909670980e+01 
       1.701706958456e-01       3.503397967861e+01 
       1.758616357459e-01       1.530228404286e+01 
       1.817427160982e-01       2.207512127906e+00 
       1.878204015065e-01       8.949226515039e-01 
       1.941013164283e-01       8.938004087099e+00 
       2.005922709503e-01       1.844524839471e+01 
       2.073002914972e-01       2.162373189913e+01 
       2.142326570816e-01       1.631201708051e+01 
       2.213969417533e-01       6.985599055939e+00 
       2.288010639706e-01       6.532734890074e-01 
       2.364533437147e-01       1.000397227403e+00 
       2.443625682930e-01       5.431786491412e+00 
       2.525380679504e-01       8.255347734030e+00 
       2.609898026346e-01       6.455958174543e+00 
       2.697284615565e-01       2.242994834595e+00 
       2.787655775689e-01       1.876824346483e-02 
       2.881136588829e-01       1.127140047031e+00 
       2.977863412677e-01       2.896721925909e+00 
       3.077985646929e-01       2.546458015377e+00 
       3.181667794071e-01       7.812199978936e-01 
       3.289091877812e-01       4.841624947182e-03 
       3.400460299658e-01       6.771531886858e-01 
       3.515999236474e-01       1.074541773437e+00 
       3.635962711085e-01       4.823059221031e-01 
       3.760637506334e-01       2.911117694892e-03 
       3.890349143879e-01       2.264049013521e-01 
       4.025469216825e-01       3.491489191162e-01 
       4.166424456376e-01       8.854303682206e-02 
       4.313708035863e-01       1.594743577201e-02 
       4.467893782977e-01       1.167887666135e-01 
       4.629654199664e-01       5.179432928220e-02 
       4.799783501994e-01       2.365061985296e-03 
       4.979227319373e-01       3.643810895421e-02 
       5.169121270864e-01       8.843123298397e-03 
       5.370841404489e-01       4.523279287964e-03 
       5.586070464571e-01       8.047805227286e-03 
       5.816885094930e-01       1.196619376529e-04 
       6.065870144995e-01       2.205260538721e-03 
       6.336266468475e-01       2.006723345516e-05 
       6.632156059511e-01       4.920869841965e-04 
       6.958678639263e-01       6.335382617780e-05 
       7.322247985589e-01       4.029187406713e-06 
       7.730680195114e-01       2.262965537873e-05 
       8.193049553677e-01       2.745780607387e-05 
       8.718988016039e-01       9.414109979615e-06 
       9.317218031082e-01       1.660660159539e-08 
       9.993660908989e-01       1.632352123557e-07 
       1.075037110174e+00       3.673523602167e-08 
       1.158653485707e+00       4.479618914528e-06 
       1.250099157308e+00       7.685654095473e-07 
       1.349432401273e+00       1.461075058775e-06 
       1.456947457397e+00       1.134401581588e-07 
       1.573135111331e+00       1.573711987585e-06 
       1.698621895592e+00       8.973324155276e-07 
       1.834127512934e+00       3.930130224332e-06 
       1.980444934528e+00       4.488556062703e-07 
       2.138435191726e+00       5.729189141255e-07 
       2.309029199186e+00       8.295616749574e-09 
       2.493232377687e+00       9.828836941112e-06 
       2.692130395285e+00       4.600251071032e-08 
       2.906895534573e+00       1.826489532337e-09 
       3.138793597714e+00       4.929656505304e-07 
       3.389191366484e+00       2.220680000968e-06 
       3.659564657905e+00       1.079027297096e-07 
       3.951507022538e+00       3.440102848253e-06 
       4.266739136701e+00       2.203338514641e-06 
       4.607118943941e+00       2.343949542533e-07 
       4.974652605557e+00       5.448901812040e-09 
       5.371506324689e+00       2.509987357859e-07 
       5.800019113685e+00       6.375502536029e-07 
       6.262716579983e+00       9.019012165483e-07 
       6.762325811764e+00       3.099392519437e-06 
       7.301791451110e+00       2.455838424590e-08 
       7.884293049406e+00       9.483585627226e-08 
       8.513263807261e+00       3.218085345005e-06 
       9.192410809424e+00       6.566344142991e-09 
       9.925736873929e+00       1.965907829453e-07 
       1.071756414427e+01       5.645845618885e-07 
       1.157255956364e+01       4.882891990351e-08 
       1.249576238137e+01       5.869338067115e-09 
       1.349261385375e+01       2.942833287386e-08 
       1.456898931416e+01       2.358237733747e-09 
       1.573123280165e+01       8.857615850099e-10 
       1.698619445202e+01       2.159783895053e-09 
       1.834127087176e+01       9.273645509090e-10 
       1.980444873285e+01       4.840969477109e-09 
       2.138435184532e+01       1.561699662969e-07 
       2.309029198506e+01       2.254120182431e-08 
       2.493232377636e+01       1.751987125727e-08 
       2.692130395282e+01       7.688898814573e-09 
       2.906895534573e+01       2.628270636201e-12 
       3.138793597714e+01       3.265307714773e-09 
       3.389191366484e+01       3.070509970486e-09 
       3.659564657905e+01       7.858967605969e-10 
       3.951507022538e+01       2.745792642903e-10 
       4.266739136701e+01       1.143150845777e-10 
       4.607118943941e+01       1.345108395740e-11 
       4.974652605557e+01       8.877691459785e-11 
       5.371506324689e+01       2.525422687155e-11 
       5.800019113685e+01       3.212146846041e-11 
       6.262716579983e+01       4.402147260525e-13 
       6.762325811764e+01       5.257660984250e-13 
       7.301791451110e+01       8.658598468307e-16 
       7.884293049406e+01       2.642236572043e-12 
       8.513263807261e+01       6.861600401725e-12 
       9.192410809424e+01       9.932883874888e-13 
       9.925736873929e+01       2.503272079424e-12 
       1.071756414427e+02       6.352500999514e-13 
       1.157255956364e+02       1.250854547495e-12 
       1.249576238137e+02       4.166102150838e-12 
       1.349261385375e+02       1.231592312803e-13 
       1.456898931416e+02       7.409679315610e-15 
       1.573123280165e+02       7.153661216462e-14 
       1.698619445202e+02       9.243538814043e-13 
       1.834127087176e+02       7.006059060323e-18 
       1.980444873285e+02       1.967191707685e-13 
       2.138435184532e+02       3.784490353812e-14 
