# Matter power spectrum P(k) at redshift z=99
# for k=1.04775e-05 to 134.926 h/Mpc,
# number of wavenumbers equal to 255
#    1:k (h/Mpc)              2:P (Mpc/h)^3        
       1.047750691338e-05       7.261927095237e-03 
       1.131335172818e-05       7.820332150704e-03 
       1.221587619877e-05       8.421675382274e-03 
       1.319039970550e-05       9.069257737943e-03 
       1.424266598317e-05       9.766636451061e-03 
       1.537887697396e-05       1.051763973634e-02 
       1.660572938097e-05       1.132639250744e-02 
       1.793045413791e-05       1.219733201501e-02 
       1.936085902737e-05       1.313524187195e-02 
       2.090537469909e-05       1.414527084969e-02 
       2.257310435923e-05       1.523296544483e-02 
       2.437387742372e-05       1.640429654631e-02 
       2.631830745176e-05       1.766569603276e-02 
       2.841785470091e-05       1.902408711152e-02 
       3.068489367268e-05       2.048692967433e-02 
       3.313278604643e-05       2.206225467537e-02 
       3.577595943165e-05       2.375870883840e-02 
       3.862999240274e-05       2.558560669810e-02 
       4.171170631739e-05       2.755297672495e-02 
       4.503926445983e-05       2.967161933399e-02 
       4.863227909323e-05       3.195316455641e-02 
       5.251192705226e-05       3.441013466119e-02 
       5.670107455699e-05       3.705601741685e-02 
       6.122441198393e-05       3.990533412817e-02 
       6.610859938837e-05       4.297372242511e-02 
       7.138242363583e-05       4.627802054829e-02 
       7.707696806873e-05       4.983636159864e-02 
       8.322579570814e-05       5.366826786908e-02 
       8.986514707061e-05       5.779476319706e-02 
       9.703415376577e-05       6.223848221807e-02 
       1.047750691338e-04       6.702379824990e-02 
       1.131335172818e-04       7.217695031046e-02 
       1.221587619877e-04       7.772619030327e-02 
       1.319039970550e-04       8.370193380003e-02 
       1.424266598317e-04       9.013692506628e-02 
       1.537887697396e-04       9.706641130358e-02 
       1.660572938097e-04       1.045283343107e-01 
       1.793045413791e-04       1.125635329181e-01 
       1.936085902737e-04       1.212159592305e-01 
       2.090537469909e-04       1.305329107431e-01 
       2.257310435923e-04       1.405652819356e-01 
       2.437387742372e-04       1.513678275071e-01 
       2.631830745176e-04       1.629994475128e-01 
       2.841785470091e-04       1.755234890474e-01 
       3.068489367268e-04       1.890080645295e-01 
       3.313278604643e-04       2.035263977427e-01 
       3.577595943165e-04       2.191571778040e-01 
       3.862999240274e-04       2.359849423256e-01 
       4.171170631739e-04       2.541004712998e-01 
       4.503926445983e-04       2.736012061155e-01 
       4.863227909323e-04       2.945916774639e-01 
       5.251192705226e-04       3.171839507860e-01 
       5.670107455699e-04       3.414980769104e-01 
       6.122441198393e-04       3.676625416297e-01 
       6.610859938837e-04       3.958147272861e-01 
       7.138242363583e-04       4.261013332062e-01 
       7.707696806873e-04       4.586787880847e-01 
       8.322579570814e-04       4.937136112819e-01 
       8.986514707061e-04       5.313826962076e-01 
       9.703415376577e-04       5.718735176804e-01 
       1.047750691338e-03       6.153841926251e-01 
       1.131335172818e-03       6.621233623125e-01 
       1.221587619877e-03       7.123098743658e-01 
       1.319039970550e-03       7.661721263793e-01 
       1.424266598317e-03       8.239547181311e-01 
       1.537887697396e-03       8.859012282828e-01 
       1.660572938097e-03       9.522589495766e-01 
       1.793045413791e-03       1.023280284738e+00 
       1.936085902737e-03       1.099216542129e+00 
       2.090537469909e-03       1.180313285063e+00 
       2.257310435923e-03       1.266804486838e+00 
       2.437387742372e-03       1.358905328496e+00 
       2.631830745176e-03       1.456803285987e+00 
       2.841785470091e-03       1.560647663078e+00 
       3.068489367268e-03       1.670537010622e+00 
       3.313278604643e-03       1.786505039689e+00 
       3.577595943165e-03       1.908504410174e+00 
       3.862999240274e-03       2.036389468819e+00 
       4.171170631739e-03       2.169898252867e+00 
       4.503926445983e-03       2.308634492036e+00 
       4.863227909323e-03       2.452050674842e+00 
       5.251192705226e-03       2.599434681195e+00 
       5.670107455699e-03       2.749901126517e+00 
       6.122441198393e-03       2.902390058367e+00 
       6.610859938837e-03       3.055671269844e+00 
       7.138242363583e-03       3.208360122832e+00 
       7.707696806873e-03       3.358926651306e+00 
       8.322579570814e-03       3.505726889761e+00 
       8.986514707061e-03       3.647012437690e+00 
       9.703415376577e-03       3.780926179119e+00 
       1.047750691338e-02       3.905492880384e+00 
       1.131335172818e-02       4.018589825645e+00 
       1.221587619877e-02       4.117902888267e+00 
       1.319039970550e-02       4.200917699696e+00 
       1.424266598317e-02       4.264943738070e+00 
       1.537887697392e-02       4.307219668557e+00 
       1.660572938023e-02       4.325062456379e+00 
       1.793045412706e-02       4.316060390109e+00 
       1.936085890181e-02       4.278228929091e+00 
       2.090537352463e-02       4.210204468506e+00 
       2.257309535333e-02       4.111418741131e+00 
       2.437382002918e-02       3.982420925547e+00 
       2.631799944462e-02       3.825168669250e+00 
       2.841644545389e-02       3.643282221747e+00 
       3.067933355377e-02       3.442198675024e+00 
       3.311368470740e-02       3.229241564429e+00 
       3.571840443502e-02       3.013516286718e+00 
       3.847720348444e-02       2.805283887442e+00 
       4.135335538431e-02       2.614410602472e+00 
       4.429361667738e-02       2.448132113385e+00 
       4.724366439141e-02       2.309240572899e+00 
       5.016480835311e-02       2.196115116555e+00 
       5.303989620246e-02       2.104369780013e+00 
       5.586870669566e-02       2.028462515724e+00 
       5.866042680613e-02       1.963155237990e+00 
       6.142798932958e-02       1.903779641888e+00 
       6.418496440164e-02       1.846479149724e+00 
       6.694418833788e-02       1.788197422047e+00 
       6.971731106057e-02       1.726715623346e+00 
       7.251476155766e-02       1.660654338835e+00 
       7.534587671527e-02       1.589469823891e+00 
       7.821907666265e-02       1.513436553429e+00 
       8.114203772912e-02       1.433568752951e+00 
       8.412184535029e-02       1.351492259756e+00 
       8.716512279304e-02       1.269273745262e+00 
       9.027813695930e-02       1.189193192030e+00 
       9.346688431697e-02       1.113501140171e+00 
       9.673716028276e-02       1.044174488604e+00 
       1.000946150830e-01       9.827060250759e-01 
       1.035447986537e-01       9.299407637871e-01 
       1.070931966762e-01       8.859585378529e-01 
       1.107452594425e-01       8.500711137494e-01 
       1.145064249153e-01       8.208033522320e-01 
       1.183821370918e-01       7.960242600950e-01 
       1.223778605862e-01       7.731454522153e-01 
       1.264990921987e-01       7.494517183510e-01 
       1.307513701367e-01       7.225568008696e-01 
       1.351402814784e-01       6.909081532994e-01 
       1.396714684203e-01       6.541804456123e-01 
       1.443506338194e-01       6.134260388950e-01 
       1.491835465229e-01       5.708673193765e-01 
       1.541760469708e-01       5.293639086523e-01 
       1.593340535561e-01       4.917104571928e-01 
       1.646635702297e-01       4.599195589653e-01 
       1.701706958456e-01       4.347274985394e-01 
       1.758616357459e-01       4.154073883889e-01 
       1.817427160982e-01       3.999369163181e-01 
       1.878204015065e-01       3.856820580619e-01 
       1.941013164283e-01       3.698088811170e-01 
       2.005922709503e-01       3.505458011163e-01 
       2.073002914972e-01       3.280425641643e-01 
       2.142326570816e-01       3.042133083617e-01 
       2.213969417533e-01       2.816111114347e-01 
       2.288010639706e-01       2.622563292776e-01 
       2.364533437147e-01       2.469612803113e-01 
       2.443625682930e-01       2.350125621699e-01 
       2.525380679504e-01       2.244172480591e-01 
       2.609898026346e-01       2.130931325902e-01 
       2.697284615565e-01       2.001015665215e-01 
       2.787655775689e-01       1.860196290274e-01 
       2.881136588829e-01       1.725166613653e-01 
       2.977863412677e-01       1.610654352558e-01 
       3.077985646929e-01       1.517602989240e-01 
       3.181667794071e-01       1.435587923704e-01 
       3.289091877812e-01       1.351811266228e-01 
       3.400460299658e-01       1.261638575554e-01 
       3.515999236474e-01       1.172014405795e-01 
       3.635962711085e-01       1.091764007283e-01 
       3.760637506334e-01       1.023090040971e-01 
       3.890349143879e-01       9.593727503844e-02 
       4.025469216825e-01       8.950729349140e-02 
       4.166424456376e-01       8.311124316406e-02 
       4.313708035863e-01       7.721498024751e-02 
       4.467893782977e-01       7.190013723624e-02 
       4.629654199664e-01       6.686856666709e-02 
       4.799783501994e-01       6.191703750054e-02 
       4.979227319373e-01       5.722172318993e-02 
       5.169121270864e-01       5.290239631402e-02 
       5.370841404489e-01       4.876929102223e-02 
       5.586070464571e-01       4.479022873264e-02 
       5.816885094930e-01       4.105142079469e-02 
       6.065870144995e-01       3.748944558869e-02 
       6.336266468475e-01       3.407574576605e-02 
       6.632156059511e-01       3.083407489576e-02 
       6.958678639263e-01       2.772791293175e-02 
       7.322247985589e-01       2.476670508092e-02 
       7.730680195114e-01       2.193917957253e-02 
       8.193049553677e-01       1.925573270742e-02 
       8.718988016039e-01       1.672891015337e-02 
       9.317218031082e-01       1.438378696889e-02 
       9.993660908989e-01       1.225028186109e-02 
       1.075037110174e+00       1.035222646845e-02 
       1.158653485707e+00       8.699314615072e-03 
       1.250099157308e+00       7.284233991481e-03 
       1.349432401273e+00       6.085116320646e-03 
       1.456947457397e+00       5.075402707033e-03 
       1.573135111331e+00       4.227985777881e-03 
       1.698621895592e+00       3.518234165142e-03 
       1.834127512934e+00       2.924679969231e-03 
       1.980444934528e+00       2.428872987409e-03 
       2.138435191726e+00       2.015229180048e-03 
       2.309029199186e+00       1.670505129648e-03 
       2.493232377687e+00       1.383532145847e-03 
       2.692130395285e+00       1.144880195635e-03 
       2.906895534573e+00       9.466146305943e-04 
       3.138793597714e+00       7.820557284362e-04 
       3.389191366484e+00       6.455971635623e-04 
       3.659564657905e+00       5.325525164269e-04 
       3.951507022538e+00       4.389754986491e-04 
       4.266739136701e+00       3.615910541590e-04 
       4.607118943941e+00       2.976357776840e-04 
       4.974652605557e+00       2.448287228527e-04 
       5.371506324689e+00       2.012596790574e-04 
       5.800019113685e+00       1.653355773265e-04 
       6.262716579983e+00       1.357392533966e-04 
       6.762325811764e+00       1.113721502659e-04 
       7.301791451110e+00       9.132410495414e-05 
       7.884293049406e+00       7.484050204707e-05 
       8.513263807261e+00       6.129630967224e-05 
       9.192410809424e+00       5.017402911922e-05 
       9.925736873929e+00       4.104650253962e-05 
       1.071756414427e+01       3.356003700381e-05 
       1.157255956364e+01       2.742332451419e-05 
       1.249576238137e+01       2.239573678569e-05 
       1.349261385375e+01       1.827915417329e-05 
       1.456898931416e+01       1.491056387951e-05 
       1.573123280165e+01       1.215523745921e-05 
       1.698619445202e+01       9.902781753010e-06 
       1.834127087176e+01       8.062477773436e-06 
       1.980444873285e+01       6.559675293360e-06 
       2.138435184532e+01       5.333059314277e-06 
       2.309029198506e+01       4.332474090824e-06 
       2.493232377636e+01       3.516651791057e-06 
       2.692130395282e+01       2.851878652491e-06 
       2.906895534573e+01       2.310457569447e-06 
       3.138793597714e+01       1.869783583362e-06 
       3.389191366484e+01       1.511318939818e-06 
       3.659564657905e+01       1.219893660004e-06 
       3.951507022538e+01       9.831830614785e-07 
       4.266739136701e+01       7.910253434418e-07 
       4.607118943941e+01       6.351543770386e-07 
       4.974652605557e+01       5.088521341043e-07 
       5.371506324689e+01       4.066178411607e-07 
       5.800019113685e+01       3.239551033901e-07 
       6.262716579983e+01       2.572065310439e-07 
       6.762325811764e+01       2.033998286580e-07 
       7.301791451110e+01       1.601076579294e-07 
       7.884293049406e+01       1.253514785721e-07 
       8.513263807261e+01       9.752698916799e-08 
       9.192410809424e+01       7.532202014635e-08 
       9.925736873929e+01       5.767204972462e-08 
       1.071756414427e+02       4.371181568428e-08 
       1.157255956364e+02       3.273529860550e-08 
       1.249576238137e+02       2.416950094127e-08 
       1.349261385375e+02       1.754560921288e-08 
