# Matter power spectrum P(k) at redshift z=0
# for k=1.04775e-05 to 134.926 h/Mpc,
# number of wavenumbers equal to 255
#    1:k (h/Mpc)              2:P (Mpc/h)^3        
       1.047750691338e-05       5.020963910407e+01 
       1.131335172818e-05       5.407048701555e+01 
       1.221587619877e-05       5.822819374744e+01 
       1.319039970550e-05       6.270561691444e+01 
       1.424266598317e-05       6.752731532723e+01 
       1.537887697396e-05       7.271976848042e+01 
       1.660572938097e-05       7.831146972903e+01 
       1.793045413791e-05       8.433312570041e+01 
       1.936085902737e-05       9.081779486707e+01 
       2.090537469909e-05       9.780107693529e+01 
       2.257310435923e-05       1.053212938561e+02 
       2.437387742372e-05       1.134197179268e+02 
       2.631830745176e-05       1.221408285480e+02 
       2.841785470091e-05       1.315324590812e+02 
       3.068489367268e-05       1.416461666722e+02 
       3.313278604643e-05       1.525374417583e+02 
       3.577595943165e-05       1.642660549239e+02 
       3.862999240274e-05       1.768963436713e+02 
       4.171170631739e-05       1.904975981645e+02 
       4.503926445983e-05       2.051444243401e+02 
       4.863227909323e-05       2.209171413025e+02 
       5.251192705226e-05       2.379022263992e+02 
       5.670107455699e-05       2.561927819577e+02 
       6.122441198393e-05       2.758890477869e+02 
       6.610859938837e-05       2.970989213622e+02 
       7.138242363583e-05       3.199385571434e+02 
       7.707696806873e-05       3.445329734600e+02 
       8.322579570814e-05       3.710167325030e+02 
       8.986514707061e-05       3.995346445826e+02 
       9.703415376577e-05       4.302425392885e+02 
       1.047750691338e-04       4.633080764386e+02 
       1.131335172818e-04       4.989116273958e+02 
       1.221587619877e-04       5.372471938789e+02 
       1.319039970550e-04       5.785234116388e+02 
       1.424266598317e-04       6.229645932922e+02 
       1.537887697396e-04       6.708118479038e+02 
       1.660572938097e-04       7.223242668624e+02 
       1.793045413791e-04       7.777801572012e+02 
       1.936085902737e-04       8.374783637542e+02 
       2.090537469909e-04       9.017396282606e+02 
       2.257310435923e-04       9.709080291313e+02 
       2.437387742372e-04       1.045352452309e+03 
       2.631830745176e-04       1.125468127600e+03 
       2.841785470091e-04       1.211678185345e+03 
       3.068489367268e-04       1.304435254262e+03 
       3.313278604643e-04       1.404223060122e+03 
       3.577595943165e-04       1.511558026375e+03 
       3.862999240274e-04       1.626990851600e+03 
       4.171170631739e-04       1.751108043714e+03 
       4.503926445983e-04       1.884533401623e+03 
       4.863227909323e-04       2.027929403131e+03 
       5.251192705226e-04       2.181998478647e+03 
       5.670107455699e-04       2.347484137313e+03 
       6.122441198393e-04       2.525171915622e+03 
       6.610859938837e-04       2.715890037753e+03 
       7.138242363583e-04       2.920509754329e+03 
       7.707696806873e-04       3.139945179596e+03 
       8.322579570814e-04       3.375152435176e+03 
       8.986514707061e-04       3.627127956373e+03 
       9.703415376577e-04       3.896905578756e+03 
       1.047750691338e-03       4.185552331581e+03 
       1.131335172818e-03       4.494162602063e+03 
       1.221587619877e-03       4.823850897443e+03 
       1.319039970550e-03       5.175742921377e+03 
       1.424266598317e-03       5.551019772151e+03 
       1.537887697396e-03       5.950788406361e+03 
       1.660572938097e-03       6.376122976820e+03 
       1.793045413791e-03       6.828073515046e+03 
       1.936085902737e-03       7.307624525634e+03 
       2.090537469909e-03       7.815670278274e+03 
       2.257310435923e-03       8.352987629737e+03 
       2.437387742372e-03       8.920206640594e+03 
       2.631830745176e-03       9.517776100297e+03 
       2.841785470091e-03       1.014592627295e+04 
       3.068489367268e-03       1.080462922846e+04 
       3.313278604643e-03       1.149355089459e+04 
       3.577595943165e-03       1.221200165640e+04 
       3.862999240274e-03       1.295887555688e+04 
       4.171170631739e-03       1.373258831964e+04 
       4.503926445983e-03       1.453101573141e+04 
       4.863227909323e-03       1.535140423116e+04 
       5.251192705226e-03       1.619043189503e+04 
       5.670107455699e-03       1.704402057623e+04 
       6.122441198393e-03       1.790714642831e+04 
       6.610859938837e-03       1.877403050083e+04 
       7.138242363583e-03       1.963793672830e+04 
       7.707696806873e-03       2.049107907726e+04 
       8.322579570814e-03       2.132461047883e+04 
       8.986514707061e-03       2.212858131637e+04 
       9.703415376577e-03       2.289181284430e+04 
       1.047750691338e-02       2.360195338718e+04 
       1.131335172818e-02       2.424552925867e+04 
       1.221587619877e-02       2.480801194213e+04 
       1.319039970550e-02       2.527398361356e+04 
       1.424266598317e-02       2.562738123904e+04 
       1.537887697392e-02       2.585201566446e+04 
       1.660572938023e-02       2.593209845169e+04 
       1.793045412706e-02       2.585277740598e+04 
       1.936085890181e-02       2.560191602446e+04 
       2.090537352463e-02       2.517069122098e+04 
       2.257309535333e-02       2.455543494574e+04 
       2.437382002918e-02       2.375919516044e+04 
       2.631799944462e-02       2.279328901101e+04 
       2.841644545389e-02       2.167899383408e+04 
       3.067933355377e-02       2.044835817041e+04 
       3.311368470740e-02       1.914500240115e+04 
       3.571840443502e-02       1.782297664818e+04 
       3.847720348444e-02       1.654394652565e+04 
       4.135335538431e-02       1.536727022292e+04 
       4.429361667738e-02       1.433691390033e+04 
       4.724366439141e-02       1.347015089096e+04 
       5.016480835311e-02       1.275794844436e+04 
       5.303989620246e-02       1.217401129690e+04 
       5.586870669566e-02       1.168619330792e+04 
       5.866042680613e-02       1.126307076621e+04 
       6.142798932958e-02       1.087701023869e+04 
       6.418496440164e-02       1.050504048776e+04 
       6.694418833788e-02       1.012919673874e+04 
       6.971731106057e-02       9.736310483502e+03 
       7.251476155766e-02       9.318221632575e+03 
       7.534587671527e-02       8.871694599027e+03 
       7.821907666265e-02       8.398291555728e+03 
       8.114203772912e-02       7.903790816615e+03 
       8.412184535029e-02       7.397526958476e+03 
       8.716512279304e-02       6.891545144284e+03 
       9.027813695930e-02       6.398836447279e+03 
       9.346688431697e-02       5.932258530545e+03 
       9.673716028276e-02       5.502991538674e+03 
       1.000946150830e-01       5.119258797915e+03 
       1.035447986537e-01       4.785689538543e+03 
       1.070931966762e-01       4.502622831835e+03 
       1.107452594425e-01       4.265933805048e+03 
       1.145064249153e-01       4.067375902217e+03 
       1.183821370918e-01       3.895290231278e+03 
       1.223778605862e-01       3.735690941954e+03 
       1.264990921987e-01       3.573999532698e+03 
       1.307513701367e-01       3.397618718601e+03 
       1.351402814784e-01       3.198380001479e+03 
       1.396714684203e-01       2.974758091973e+03 
       1.443506338194e-01       2.732418112502e+03 
       1.491835465229e-01       2.483039419195e+03 
       1.541760469708e-01       2.241418170906e+03 
       1.593340535561e-01       2.021627456143e+03 
       1.646635702297e-01       1.833446363890e+03 
       1.701706958456e-01       1.680118898416e+03 
       1.758616357459e-01       1.557706717555e+03 
       1.817427160982e-01       1.456404151723e+03 
       1.878204015065e-01       1.363942223332e+03 
       1.941013164283e-01       1.267327388978e+03 
       2.005922709503e-01       1.158660550769e+03 
       2.073002914972e-01       1.038785293937e+03 
       2.142326570816e-01       9.162437103090e+02 
       2.213969417533e-01       8.019860923675e+02 
       2.288010639706e-01       7.040975086566e+02 
       2.364533437147e-01       6.253743926456e+02 
       2.443625682930e-01       5.625711272313e+02 
       2.525380679504e-01       5.079262085524e+02 
       2.609898026346e-01       4.537006858144e+02 
       2.697284615565e-01       3.966237755716e+02 
       2.787655775689e-01       3.387636224236e+02 
       2.881136588829e-01       2.856335882972e+02 
       2.977863412677e-01       2.415855544635e+02 
       3.077985646929e-01       2.064760112513e+02 
       3.181667794071e-01       1.769724522456e+02 
       3.289091877812e-01       1.494290048540e+02 
       3.400460299658e-01       1.226113769129e+02 
       3.515999236474e-01       9.816485674487e+01 
       3.635962711085e-01       7.787295720121e+01 
       3.760637506334e-01       6.186541383204e+01 
       3.890349143879e-01       4.857496774943e+01 
       4.025469216825e-01       3.686393432884e+01 
       4.166424456376e-01       2.677792756796e+01 
       4.313708035863e-01       1.881435578380e+01 
       4.467893782977e-01       1.282126880656e+01 
       4.629654199664e-01       8.256866234155e+00 
       4.799783501994e-01       4.781099165479e+00 
       4.979227319373e-01       2.383099879568e+00 
       5.169121270864e-01       9.407026545990e-01 
       5.370841404489e-01       1.957613594340e-01 
       5.586070464571e-01       1.862689807927e-03 
       5.816885094930e-01       2.194282544212e-01 
       6.065870144995e-01       7.023348935290e-01 
       6.336266468475e-01       1.329792435685e+00 
       6.632156059511e-01       1.970485043762e+00 
       6.958678639263e-01       2.531095779555e+00 
       7.322247985589e-01       2.914461261544e+00 
       7.730680195114e-01       3.062300436868e+00 
       8.193049553677e-01       2.938806299820e+00 
       8.718988016039e-01       2.561935122400e+00 
       9.317218031082e-01       1.999937207618e+00 
       9.993660908989e-01       1.368339004095e+00 
       1.075037110174e+00       7.950139113572e-01 
       1.158653485707e+00       3.716396292123e-01 
       1.250099157308e+00       1.233917363712e-01 
       1.349432401273e+00       1.912994536578e-02 
       1.456947457397e+00       3.057025905667e-04 
       1.573135111331e+00       1.291518698293e-02 
       1.698621895592e+00       2.419899670836e-02 
       1.834127512934e+00       2.394195624415e-02 
       1.980444934528e+00       1.583794492639e-02 
       2.138435191726e+00       7.070523300088e-03 
       2.309029199186e+00       1.798466920529e-03 
       2.493232377687e+00       9.332135092192e-05 
       2.692130395285e+00       1.049114952015e-04 
       2.906895534573e+00       3.125772406189e-04 
       3.138793597714e+00       2.615070140267e-04 
       3.389191366484e+00       1.063195953775e-04 
       3.659564657905e+00       1.655555966671e-05 
       3.951507022538e+00       2.165874070320e-08 
       4.266739136701e+00       3.311343113727e-06 
       4.607118943941e+00       2.642157377405e-06 
       4.974652605557e+00       5.045819253821e-07 
       5.371506324689e+00       3.404059803090e-09 
       5.800019113685e+00       1.344329082923e-07 
       6.262716579983e+00       1.035233852129e-07 
       6.762325811764e+00       2.955151366139e-08 
       7.301791451110e+00       5.326737407062e-09 
       7.884293049406e+00       2.673387952501e-09 
       8.513263807261e+00       3.843668414658e-09 
       9.192410809424e+00       4.383368660594e-09 
       9.925736873929e+00       3.435008757284e-09 
       1.071756414427e+01       2.425832931498e-09 
       1.157255956364e+01       1.729592782841e-09 
       1.249576238137e+01       1.284308096891e-09 
       1.349261385375e+01       1.021598789474e-09 
       1.456898931416e+01       6.927707006857e-10 
       1.573123280165e+01       4.170692625726e-10 
       1.698619445202e+01       3.678231968073e-10 
       1.834127087176e+01       2.535731728099e-10 
       1.980444873285e+01       2.046749103222e-10 
       2.138435184532e+01       1.351723794857e-10 
       2.309029198506e+01       9.575454871736e-11 
       2.493232377636e+01       7.891620179431e-11 
       2.692130395282e+01       5.168663870636e-11 
       2.906895534573e+01       3.552043973787e-11 
       3.138793597714e+01       2.037732122092e-11 
       3.389191366484e+01       2.188269689562e-11 
       3.659564657905e+01       1.247140870834e-11 
       3.951507022538e+01       2.330048255860e-13 
       4.266739136701e+01       4.648374124133e-13 
       4.607118943941e+01       7.320598380064e-12 
       4.974652605557e+01       6.146857503187e-12 
       5.371506324689e+01       3.037582905729e-11 
       5.800019113685e+01       1.692325170395e-12 
       6.262716579983e+01       7.447605209607e-13 
       6.762325811764e+01       1.350499310590e-14 
       7.301791451110e+01       5.246530251532e-13 
       7.884293049406e+01       9.499093173504e-13 
       8.513263807261e+01       3.119933382290e-12 
       9.192410809424e+01       9.383700358806e-13 
       9.925736873929e+01       3.868484190286e-13 
       1.071756414427e+02       2.683455552373e-14 
       1.157255956364e+02       1.249000390776e-12 
       1.249576238137e+02       1.126524410999e-13 
       1.349261385375e+02       5.074217967493e-15 
