# Matter power spectrum P(k) at redshift z=0
# for k=1.04775e-05 to 134.926 h/Mpc,
# number of wavenumbers equal to 255
#    1:k (h/Mpc)              2:P (Mpc/h)^3        
       1.047750691338e-05       5.020964026306e+01 
       1.131335172818e-05       5.407048567811e+01 
       1.221587619877e-05       5.822819422864e+01 
       1.319039970550e-05       6.270560970519e+01 
       1.424266598317e-05       6.752730405158e+01 
       1.537887697396e-05       7.271974625478e+01 
       1.660572938097e-05       7.831144917668e+01 
       1.793045413791e-05       8.433310798197e+01 
       1.936085902737e-05       9.081777842100e+01 
       2.090537469909e-05       9.780106149314e+01 
       2.257310435923e-05       1.053212791529e+02 
       2.437387742372e-05       1.134197105299e+02 
       2.631830745176e-05       1.221408078689e+02 
       2.841785470091e-05       1.315324466289e+02 
       3.068489367268e-05       1.416461529464e+02 
       3.313278604643e-05       1.525374316365e+02 
       3.577595943165e-05       1.642660415639e+02 
       3.862999240274e-05       1.768963332734e+02 
       4.171170631739e-05       1.904975880755e+02 
       4.503926445983e-05       2.051444174630e+02 
       4.863227909323e-05       2.209171326725e+02 
       5.251192705226e-05       2.379022213465e+02 
       5.670107455699e-05       2.561927795617e+02 
       6.122441198393e-05       2.758890467975e+02 
       6.610859938837e-05       2.970989217775e+02 
       7.138242363583e-05       3.199385568680e+02 
       7.707696806873e-05       3.445329738712e+02 
       8.322579570814e-05       3.710167318972e+02 
       8.986514707061e-05       3.995346443547e+02 
       9.703415376577e-05       4.302425385531e+02 
       1.047750691338e-04       4.633080761662e+02 
       1.131335172818e-04       4.989116258741e+02 
       1.221587619877e-04       5.372471915098e+02 
       1.319039970550e-04       5.785234089135e+02 
       1.424266598317e-04       6.229645882781e+02 
       1.537887697396e-04       6.708118423269e+02 
       1.660572938097e-04       7.223242587708e+02 
       1.793045413791e-04       7.777801463444e+02 
       1.936085902737e-04       8.374783469795e+02 
       2.090537469909e-04       9.017396065810e+02 
       2.257310435923e-04       9.709079986246e+02 
       2.437387742372e-04       1.045352412115e+03 
       2.631830745176e-04       1.125468071631e+03 
       2.841785470091e-04       1.211678114429e+03 
       3.068489367268e-04       1.304435152064e+03 
       3.313278604643e-04       1.404222920018e+03 
       3.577595943165e-04       1.511557829226e+03 
       3.862999240274e-04       1.626990580368e+03 
       4.171170631739e-04       1.751107665113e+03 
       4.503926445983e-04       1.884532869329e+03 
       4.863227909323e-04       2.027928668070e+03 
       5.251192705226e-04       2.181997443503e+03 
       5.670107455699e-04       2.347482688363e+03 
       6.122441198393e-04       2.525169847750e+03 
       6.610859938837e-04       2.715887156026e+03 
       7.138242363583e-04       2.920505626809e+03 
       7.707696806873e-04       3.139939350987e+03 
       8.322579570814e-04       3.375144115317e+03 
       8.986514707061e-04       3.627116205568e+03 
       9.703415376577e-04       3.896888874463e+03 
       1.047750691338e-03       4.185528764066e+03 
       1.131335172818e-03       4.494129098619e+03 
       1.221587619877e-03       4.823803377986e+03 
       1.319039970550e-03       5.175675700837e+03 
       1.424266598317e-03       5.550923989788e+03 
       1.537887697396e-03       5.950652330532e+03 
       1.660572938097e-03       6.375929866497e+03 
       1.793045413791e-03       6.827800554243e+03 
       1.936085902737e-03       7.307239366224e+03 
       2.090537469909e-03       7.815128041298e+03 
       2.257310435923e-03       8.352225894190e+03 
       2.437387742372e-03       8.919139860637e+03 
       2.631830745176e-03       9.516284252698e+03 
       2.841785470091e-03       1.014384639320e+04 
       3.068489367268e-03       1.080173721782e+04 
       3.313278604643e-03       1.148953896793e+04 
       3.577595943165e-03       1.220645205797e+04 
       3.862999240274e-03       1.295122665880e+04 
       4.171170631739e-03       1.372207198294e+04 
       4.503926445983e-03       1.451660427792e+04 
       4.863227909323e-03       1.533171304750e+04 
       5.251192705226e-03       1.616361736649e+04 
       5.670107455699e-03       1.700763054679e+04 
       6.122441198393e-03       1.785795701967e+04 
       6.610859938837e-03       1.870764179426e+04 
       7.138242363583e-03       1.954884661397e+04 
       7.707696806873e-03       2.037217301047e+04 
       8.322579570814e-03       2.116643704345e+04 
       8.986514707061e-03       2.191885502875e+04 
       9.703415376577e-03       2.261503288442e+04 
       1.047750691338e-02       2.323838592868e+04 
       1.131335172818e-02       2.377034217544e+04 
       1.221587619877e-02       2.419015250788e+04 
       1.319039970550e-02       2.447465024819e+04 
       1.424266598317e-02       2.459928210886e+04 
       1.537887697392e-02       2.453788939051e+04 
       1.660572938023e-02       2.426324812092e+04 
       1.793045412706e-02       2.374911766259e+04 
       1.936085890181e-02       2.297075204561e+04 
       2.090537352463e-02       2.190855080714e+04 
       2.257309535333e-02       2.055043353167e+04 
       2.437382002918e-02       1.889594371689e+04 
       2.631799944462e-02       1.696057522032e+04 
       2.841644545389e-02       1.478196519691e+04 
       3.067933355377e-02       1.242350707315e+04 
       3.311368470740e-02       9.979711320142e+03 
       3.571840443502e-02       7.575871182466e+03 
       3.847720348444e-02       5.358255358062e+03 
       4.135335538431e-02       3.468275117728e+03 
       4.429361667738e-02       2.002706772868e+03 
       4.724366439141e-02       9.855365753814e+02 
       5.016480835311e-02       3.710710866601e+02 
       5.303989620246e-02       7.412832934931e+01 
       5.586870669566e-02       2.259929698503e-01 
       5.866042680613e-02       6.371653241744e+01 
       6.142798932958e-02       1.944733770807e+02 
       6.418496440164e-02       3.394668653617e+02 
       6.694418833788e-02       4.614775781909e+02 
       6.971731106057e-02       5.381428879458e+02 
       7.251476155766e-02       5.601307340624e+02 
       7.534587671527e-02       5.285239178242e+02 
       7.821907666265e-02       4.532417373680e+02 
       8.114203772912e-02       3.502060265892e+02 
       8.412184535029e-02       2.380085683528e+02 
       8.716512279304e-02       1.348551141221e+02 
       9.027813695930e-02       5.585015738619e+01 
       9.346688431697e-02       1.039875595420e+01 
       9.673716028276e-02       8.234636720623e-01 
       1.000946150830e-01       2.212614886465e+01 
       1.035447986537e-01       6.334000614112e+01 
       1.070931966762e-01       1.099257907331e+02 
       1.107452594425e-01       1.473371347589e+02 
       1.145064249153e-01       1.644335039937e+02 
       1.183821370918e-01       1.564326652768e+02 
       1.223778605862e-01       1.261339455268e+02 
       1.264990921987e-01       8.298057606564e+01 
       1.307513701367e-01       4.012429332796e+01 
       1.351402814784e-01       9.996900482963e+00 
       1.396714684203e-01       1.025639510272e-02 
       1.443506338194e-01       9.777310685239e+00 
       1.491835465229e-01       3.136310297626e+01 
       1.541760469708e-01       5.257553961475e+01 
       1.593340535561e-01       6.244812495572e+01 
       1.646635702297e-01       5.611925653272e+01 
       1.701706958456e-01       3.713023880264e+01 
       1.758616357459e-01       1.548469690642e+01 
       1.817427160982e-01       1.861279716003e+00 
       1.878204015065e-01       1.432843655563e+00 
       1.941013164283e-01       1.112361131534e+01 
       2.005922709503e-01       2.175929830182e+01 
       2.073002914972e-01       2.473423828913e+01 
       2.142326570816e-01       1.807758702457e+01 
       2.213969417533e-01       7.285208565403e+00 
       2.288010639706e-01       4.889236284734e-01 
       2.364533437147e-01       1.556632904594e+00 
       2.443625682930e-01       7.011347233600e+00 
       2.525380679504e-01       1.005109637030e+01 
       2.609898026346e-01       7.454889944535e+00 
       2.697284615565e-01       2.338812153476e+00 
       2.787655775689e-01       6.703802372689e-06 
       2.881136588829e-01       1.695502154093e+00 
       2.977863412677e-01       3.826146557887e+00 
       3.077985646929e-01       3.124230453566e+00 
       3.181667794071e-01       8.129747755712e-01 
       3.289091877812e-01       3.986891967135e-02 
       3.400460299658e-01       1.043872116298e+00 
       3.515999236474e-01       1.451587867639e+00 
       3.635962711085e-01       5.519104772999e-01 
       3.760637506334e-01       1.138061031508e-03 
       3.890349143879e-01       3.899069165157e-01 
       4.025469216825e-01       4.896972079259e-01 
       4.166424456376e-01       9.067028956889e-02 
       4.313708035863e-01       4.628707572834e-02 
       4.467893782977e-01       1.942355143538e-01 
       4.629654199664e-01       6.091706159361e-02 
       4.799783501994e-01       1.152207542223e-02 
       4.979227319373e-01       6.447869979812e-02 
       5.169121270864e-01       8.403296180334e-03 
       5.370841404489e-01       1.366532652665e-02 
       5.586070464571e-01       1.144372182560e-02 
       5.816885094930e-01       1.600426097337e-03 
       6.065870144995e-01       4.468176685113e-03 
       6.336266468475e-01       5.368156790245e-04 
       6.632156059511e-01       7.084902162056e-04 
       6.958678639263e-01       4.657285160561e-04 
       7.322247985589e-01       1.054325906220e-05 
       7.730680195114e-01       8.492662987920e-06 
       8.193049553677e-01       1.155157947588e-05 
       8.718988016039e-01       4.691801031101e-06 
       9.317218031082e-01       1.637335293085e-06 
       9.993660908989e-01       6.247250756763e-07 
       1.075037110174e+00       5.396085502451e-07 
       1.158653485707e+00       1.025533974231e-06 
       1.250099157308e+00       1.667594979411e-07 
       1.349432401273e+00       1.032849672002e-06 
       1.456947457397e+00       8.898133960246e-07 
       1.573135111331e+00       1.294666911435e-07 
       1.698621895592e+00       2.231576112034e-06 
       1.834127512934e+00       4.933295482333e-08 
       1.980444934528e+00       1.462339186396e-06 
       2.138435191726e+00       1.159832233298e-06 
       2.309029199186e+00       6.345341000821e-07 
       2.493232377687e+00       1.474221527647e-07 
       2.692130395285e+00       2.453931042505e-09 
       2.906895534573e+00       1.522734321988e-11 
       3.138793597714e+00       5.240057915703e-09 
       3.389191366484e+00       7.814463697302e-11 
       3.659564657905e+00       2.943047077110e-11 
       3.951507022538e+00       2.604002359228e-09 
       4.266739136701e+00       1.230031318204e-07 
       4.607118943941e+00       3.156128458802e-08 
       4.974652605557e+00       1.547187511288e-10 
       5.371506324689e+00       7.054913524292e-09 
       5.800019113685e+00       6.780990938170e-09 
       6.262716579983e+00       2.659760720492e-10 
       6.762325811764e+00       2.165222221811e-10 
       7.301791451110e+00       6.398159994811e-10 
       7.884293049406e+00       8.672726078091e-11 
       8.513263807261e+00       5.129916165177e-10 
       9.192410809424e+00       3.174283776730e-11 
       9.925736873929e+00       6.733201083534e-10 
       1.071756414427e+01       2.662466615242e-10 
       1.157255956364e+01       3.047357665455e-12 
       1.249576238137e+01       3.434489262276e-12 
       1.349261385375e+01       3.814396127646e-12 
       1.456898931416e+01       4.182526479187e-12 
       1.573123280165e+01       6.289816684861e-13 
       1.698619445202e+01       9.853076325775e-12 
       1.834127087176e+01       2.915908950291e-11 
       1.980444873285e+01       3.323545698607e-13 
       2.138435184532e+01       5.656942851242e-14 
       2.309029198506e+01       4.267038107930e-13 
       2.493232377636e+01       3.102449464412e-14 
       2.692130395282e+01       8.407541495932e-15 
       2.906895534573e+01       9.000321064879e-17 
       3.138793597714e+01       1.726999230588e-23 
       3.389191366484e+01       4.754943174066e-16 
       3.659564657905e+01       3.109884695786e-17 
       3.951507022538e+01       1.425371492294e-16 
       4.266739136701e+01       8.728423695152e-17 
       4.607118943941e+01       1.189846470689e-16 
       4.974652605557e+01       9.205346397972e-18 
       5.371506324689e+01       1.122563274705e-16 
       5.800019113685e+01       3.235686963749e-16 
       6.262716579983e+01       2.124755161800e-17 
       6.762325811764e+01       2.729768501296e-18 
       7.301791451110e+01       9.590968739677e-19 
       7.884293049406e+01       4.954874303168e-17 
       8.513263807261e+01       5.977698409085e-16 
       9.192410809424e+01       5.576306623758e-17 
       9.925736873929e+01       5.047639101475e-17 
       1.071756414427e+02       4.465092736872e-16 
       1.157255956364e+02       9.288867160359e-18 
       1.249576238137e+02       4.410173048982e-20 
       1.349261385375e+02       1.930284566615e-17 
