# Matter power spectrum P(k) at redshift z=0
# for k=1.04775e-05 to 134.926 h/Mpc,
# number of wavenumbers equal to 255
#    1:k (h/Mpc)              2:P (Mpc/h)^3        
       1.047750691338e-05       5.020963906804e+01 
       1.131335172818e-05       5.407048937148e+01 
       1.221587619877e-05       5.822820724029e+01 
       1.319039970550e-05       6.270562047246e+01 
       1.424266598317e-05       6.752731476098e+01 
       1.537887697396e-05       7.271975715395e+01 
       1.660572938097e-05       7.831147101246e+01 
       1.793045413791e-05       8.433312302135e+01 
       1.936085902737e-05       9.081780130646e+01 
       2.090537469909e-05       9.780107449036e+01 
       2.257310435923e-05       1.053212938596e+02 
       2.437387742372e-05       1.134197268469e+02 
       2.631830745176e-05       1.221408285623e+02 
       2.841785470091e-05       1.315324590474e+02 
       3.068489367268e-05       1.416461671360e+02 
       3.313278604643e-05       1.525374478889e+02 
       3.577595943165e-05       1.642660517254e+02 
       3.862999240274e-05       1.768963429380e+02 
       4.171170631739e-05       1.904975997820e+02 
       4.503926445983e-05       2.051444243234e+02 
       4.863227909323e-05       2.209171412050e+02 
       5.251192705226e-05       2.379022266145e+02 
       5.670107455699e-05       2.561927841238e+02 
       6.122441198393e-05       2.758890479474e+02 
       6.610859938837e-05       2.970989213978e+02 
       7.138242363583e-05       3.199385559930e+02 
       7.707696806873e-05       3.445329727006e+02 
       8.322579570814e-05       3.710167324011e+02 
       8.986514707061e-05       3.995346444121e+02 
       9.703415376577e-05       4.302425389349e+02 
       1.047750691338e-04       4.633080773457e+02 
       1.131335172818e-04       4.989116272168e+02 
       1.221587619877e-04       5.372471938794e+02 
       1.319039970550e-04       5.785234116886e+02 
       1.424266598317e-04       6.229645933129e+02 
       1.537887697396e-04       6.708118487512e+02 
       1.660572938097e-04       7.223242657765e+02 
       1.793045413791e-04       7.777801571274e+02 
       1.936085902737e-04       8.374783638365e+02 
       2.090537469909e-04       9.017396276790e+02 
       2.257310435923e-04       9.709080297651e+02 
       2.437387742372e-04       1.045352453376e+03 
       2.631830745176e-04       1.125468127721e+03 
       2.841785470091e-04       1.211678185928e+03 
       3.068489367268e-04       1.304435256065e+03 
       3.313278604643e-04       1.404223062921e+03 
       3.577595943165e-04       1.511558029577e+03 
       3.862999240274e-04       1.626990852555e+03 
       4.171170631739e-04       1.751108045603e+03 
       4.503926445983e-04       1.884533404755e+03 
       4.863227909323e-04       2.027929406956e+03 
       5.251192705226e-04       2.181998483913e+03 
       5.670107455699e-04       2.347484146066e+03 
       6.122441198393e-04       2.525171925196e+03 
       6.610859938837e-04       2.715890054979e+03 
       7.138242363583e-04       2.920509779320e+03 
       7.707696806873e-04       3.139945208052e+03 
       8.322579570814e-04       3.375152477019e+03 
       8.986514707061e-04       3.627128020463e+03 
       9.703415376577e-04       3.896905669506e+03 
       1.047750691338e-03       4.185552452614e+03 
       1.131335172818e-03       4.494162775571e+03 
       1.221587619877e-03       4.823851150593e+03 
       1.319039970550e-03       5.175743278709e+03 
       1.424266598317e-03       5.551020298680e+03 
       1.537887697396e-03       5.950789185431e+03 
       1.660572938097e-03       6.376124150054e+03 
       1.793045413791e-03       6.828075236594e+03 
       1.936085902737e-03       7.307627051064e+03 
       2.090537469909e-03       7.815673959073e+03 
       2.257310435923e-03       8.352992923014e+03 
       2.437387742372e-03       8.920214306401e+03 
       2.631830745176e-03       9.517787166766e+03 
       2.841785470091e-03       1.014594130681e+04 
       3.068489367268e-03       1.080465136492e+04 
       3.313278604643e-03       1.149358239527e+04 
       3.577595943165e-03       1.221204586879e+04 
       3.862999240274e-03       1.295893666522e+04 
       4.171170631739e-03       1.373267338658e+04 
       4.503926445983e-03       1.453113500089e+04 
       4.863227909323e-03       1.535157115386e+04 
       5.251192705226e-03       1.619066155442e+04 
       5.670107455699e-03       1.704433881542e+04 
       6.122441198393e-03       1.790758125372e+04 
       6.610859938837e-03       1.877461997496e+04 
       7.138242363583e-03       1.963874651517e+04 
       7.707696806873e-03       2.049217386621e+04 
       8.322579570814e-03       2.132608016612e+04 
       8.986514707061e-03       2.213056721280e+04 
       9.703415376577e-03       2.289447301942e+04 
       1.047750691338e-02       2.360549531547e+04 
       1.131335172818e-02       2.425024131702e+04 
       1.221587619877e-02       2.481424713308e+04 
       1.319039970550e-02       2.528219974090e+04 
       1.424266598317e-02       2.563815139695e+04 
       1.537887697392e-02       2.586607628451e+04 
       1.660572938023e-02       2.595027143159e+04 
       1.793045412706e-02       2.587635601919e+04 
       1.936085890181e-02       2.563219827491e+04 
       2.090537352463e-02       2.520936182799e+04 
       2.257309535333e-02       2.460445497565e+04 
       2.437382002918e-02       2.382087896610e+04 
       2.631799944462e-02       2.287044963875e+04 
       2.841644545389e-02       2.177450185279e+04 
       3.067933355377e-02       2.056556956570e+04 
       3.311368470740e-02       1.928731652778e+04 
       3.571840443502e-02       1.799402274137e+04 
       3.847720348444e-02       1.674684430716e+04 
       4.135335538431e-02       1.560459988610e+04 
       4.429361667738e-02       1.461038134668e+04 
       4.724366439141e-02       1.378056225592e+04 
       5.016480835311e-02       1.310505854080e+04 
       5.303989620246e-02       1.255717828290e+04 
       5.586870669566e-02       1.210424453416e+04 
       5.866042680613e-02       1.171465782060e+04 
       6.142798932958e-02       1.136047526665e+04 
       6.418496440164e-02       1.101855688058e+04 
       6.694418833788e-02       1.067067910755e+04 
       6.971731106057e-02       1.030357899715e+04 
       7.251476155766e-02       9.909000484643e+03 
       7.534587671527e-02       9.483736365920e+03 
       7.821907666265e-02       9.029501347837e+03 
       8.114203772912e-02       8.552314889999e+03 
       8.412184535029e-02       8.061931367393e+03 
       8.716512279304e-02       7.570772328688e+03 
       9.027813695930e-02       7.092490731934e+03 
       9.346688431697e-02       6.640524966671e+03 
       9.673716028276e-02       6.226710598077e+03 
       1.000946150830e-01       5.859935986966e+03 
       1.035447986537e-01       5.545269598730e+03 
       1.070931966762e-01       5.283145907561e+03 
       1.107452594425e-01       5.069432264181e+03 
       1.145064249153e-01       4.895258729567e+03 
       1.183821370918e-01       4.747846670649e+03 
       1.223778605862e-01       4.611723361333e+03 
       1.264990921987e-01       4.470623978223e+03 
       1.307513701367e-01       4.310258532427e+03 
       1.351402814784e-01       4.121373352960e+03 
       1.396714684203e-01       3.902058078621e+03 
       1.443506338194e-01       3.658650253336e+03 
       1.491835465229e-01       3.404493730232e+03 
       1.541760469708e-01       3.156667542032e+03 
       1.593340535561e-01       2.931953012672e+03 
       1.646635702297e-01       2.742368094335e+03 
       1.701706958456e-01       2.592248694271e+03 
       1.758616357459e-01       2.477233573587e+03 
       1.817427160982e-01       2.385174937926e+03 
       1.878204015065e-01       2.300358977220e+03 
       1.941013164283e-01       2.205750330832e+03 
       2.005922709503e-01       2.090810482455e+03 
       2.073002914972e-01       1.956457856437e+03 
       2.142326570816e-01       1.814185594355e+03 
       2.213969417533e-01       1.679276775415e+03 
       2.288010639706e-01       1.563836393667e+03 
       2.364533437147e-01       1.472676677029e+03 
       2.443625682930e-01       1.401514024263e+03 
       2.525380679504e-01       1.338406849408e+03 
       2.609898026346e-01       1.270894908552e+03 
       2.697284615565e-01       1.193377419178e+03 
       2.787655775689e-01       1.109332640148e+03 
       2.881136588829e-01       1.028760782863e+03 
       2.977863412677e-01       9.604733886654e+02 
       3.077985646929e-01       9.050151460174e+02 
       3.181667794071e-01       8.561384122192e+02 
       3.289091877812e-01       8.061806527842e+02 
       3.400460299658e-01       7.523847585286e+02 
       3.515999236474e-01       6.989155261994e+02 
       3.635962711085e-01       6.510541134123e+02 
       3.760637506334e-01       6.101144556717e+02 
       3.890349143879e-01       5.721253711454e+02 
       4.025469216825e-01       5.337755834351e+02 
       4.166424456376e-01       4.956254989417e+02 
       4.313708035863e-01       4.604613013746e+02 
       4.467893782977e-01       4.287696249189e+02 
       4.629654199664e-01       3.987662573777e+02 
       4.799783501994e-01       3.692348155275e+02 
       4.979227319373e-01       3.412330643786e+02 
       5.169121270864e-01       3.154771551030e+02 
       5.370841404489e-01       2.908293655848e+02 
       5.586070464571e-01       2.670994217644e+02 
       5.816885094930e-01       2.448037009554e+02 
       6.065870144995e-01       2.235618108631e+02 
       6.336266468475e-01       2.032043587957e+02 
       6.632156059511e-01       1.838726732981e+02 
       6.958678639263e-01       1.653490529751e+02 
       7.322247985589e-01       1.476904555760e+02 
       7.730680195114e-01       1.308287812643e+02 
       8.193049553677e-01       1.148262408224e+02 
       8.718988016039e-01       9.975778655936e+01 
       9.317218031082e-01       8.577306804888e+01 
       9.993660908989e-01       7.305037163655e+01 
       1.075037110174e+00       6.173166571388e+01 
       1.158653485707e+00       5.187485481148e+01 
       1.250099157308e+00       4.343634818555e+01 
       1.349432401273e+00       3.628571109131e+01 
       1.456947457397e+00       3.026457877679e+01 
       1.573135111331e+00       2.521120273595e+01 
       1.698621895592e+00       2.097889382918e+01 
       1.834127512934e+00       1.743945180604e+01 
       1.980444934528e+00       1.448290468751e+01 
       2.138435191726e+00       1.201633142461e+01 
       2.309029199186e+00       9.960743601225e+00 
       2.493232377687e+00       8.249531902983e+00 
       2.692130395285e+00       6.826476542962e+00 
       2.906895534573e+00       5.644234519588e+00 
       3.138793597714e+00       4.663017281206e+00 
       3.389191366484e+00       3.849363610555e+00 
       3.659564657905e+00       3.175309909654e+00 
       3.951507022538e+00       2.617353223722e+00 
       4.266739136701e+00       2.155950108560e+00 
       4.607118943941e+00       1.774624421691e+00 
       4.974652605557e+00       1.459774746412e+00 
       5.371506324689e+00       1.200010259380e+00 
       5.800019113685e+00       9.858295641900e-01 
       6.262716579983e+00       8.093779178545e-01 
       6.762325811764e+00       6.641068643552e-01 
       7.301791451110e+00       5.445877768887e-01 
       7.884293049406e+00       4.463204642416e-01 
       8.513263807261e+00       3.655790450443e-01 
       9.192410809424e+00       2.992761767785e-01 
       9.925736873929e+00       2.448674132290e-01 
       1.071756414427e+01       2.002406119409e-01 
       1.157255956364e+01       1.636614717420e-01 
       1.249576238137e+01       1.336931732081e-01 
       1.349261385375e+01       1.091557477876e-01 
       1.456898931416e+01       8.907644921151e-02 
       1.573123280165e+01       7.265340707344e-02 
       1.698619445202e+01       5.922711263479e-02 
       1.834127087176e+01       4.825717471924e-02 
       1.980444873285e+01       3.929892354981e-02 
       2.138435184532e+01       3.198617490439e-02 
       2.309029198506e+01       2.602025733795e-02 
       2.493232377636e+01       2.115540606312e-02 
       2.692130395282e+01       1.718996221574e-02 
       2.906895534573e+01       1.395942615663e-02 
       3.138793597714e+01       1.132904513200e-02 
       3.389191366484e+01       9.188197672297e-03 
       3.659564657905e+01       7.446955193342e-03 
       3.951507022538e+01       6.031139547018e-03 
       4.266739136701e+01       4.880626528380e-03 
       4.607118943941e+01       3.946174543030e-03 
       4.974652605557e+01       3.187655714851e-03 
       5.371506324689e+01       2.572338603525e-03 
       5.800019113685e+01       2.073449999448e-03 
       6.262716579983e+01       1.669250134757e-03 
       6.762325811764e+01       1.342030170239e-03 
       7.301791451110e+01       1.077305338154e-03 
       7.884293049406e+01       8.633135178276e-04 
       8.513263807261e+01       6.905156310409e-04 
       9.192410809424e+01       5.511090416376e-04 
       9.925736873929e+01       4.387725568371e-04 
       1.071756414427e+02       3.483867534143e-04 
       1.157255956364e+02       2.757600461728e-04 
       1.249576238137e+02       2.175019519033e-04 
       1.349261385375e+02       1.708607176644e-04 
