# Matter power spectrum P(k) at redshift z=0
# for k=1.04775e-05 to 213.844 h/Mpc,
# number of wavenumbers equal to 261
#    1:k (h/Mpc)              2:P (Mpc/h)^3        
       1.047750691338e-05       5.020963906804e+01 
       1.131335172818e-05       5.407048937148e+01 
       1.221587619877e-05       5.822820724029e+01 
       1.319039970550e-05       6.270562047247e+01 
       1.424266598317e-05       6.752731476098e+01 
       1.537887697396e-05       7.271975715395e+01 
       1.660572938097e-05       7.831147101246e+01 
       1.793045413791e-05       8.433312302135e+01 
       1.936085902737e-05       9.081780130646e+01 
       2.090537469909e-05       9.780107449234e+01 
       2.257310435923e-05       1.053212938596e+02 
       2.437387742372e-05       1.134197268468e+02 
       2.631830745176e-05       1.221408285624e+02 
       2.841785470091e-05       1.315324590474e+02 
       3.068489367268e-05       1.416461671358e+02 
       3.313278604643e-05       1.525374478895e+02 
       3.577595943165e-05       1.642660517237e+02 
       3.862999240274e-05       1.768963429378e+02 
       4.171170631739e-05       1.904975997820e+02 
       4.503926445983e-05       2.051444243234e+02 
       4.863227909323e-05       2.209171412049e+02 
       5.251192705226e-05       2.379022266146e+02 
       5.670107455699e-05       2.561927841239e+02 
       6.122441198393e-05       2.758890479561e+02 
       6.610859938837e-05       2.970989213980e+02 
       7.138242363583e-05       3.199385559930e+02 
       7.707696806873e-05       3.445329727006e+02 
       8.322579570814e-05       3.710167324011e+02 
       8.986514707061e-05       3.995346444121e+02 
       9.703415376577e-05       4.302425389349e+02 
       1.047750691338e-04       4.633080773458e+02 
       1.131335172818e-04       4.989116271545e+02 
       1.221587619877e-04       5.372471938794e+02 
       1.319039970550e-04       5.785234116883e+02 
       1.424266598317e-04       6.229645933130e+02 
       1.537887697396e-04       6.708118487511e+02 
       1.660572938097e-04       7.223242657765e+02 
       1.793045413791e-04       7.777801571271e+02 
       1.936085902737e-04       8.374783638365e+02 
       2.090537469909e-04       9.017396276764e+02 
       2.257310435923e-04       9.709080297651e+02 
       2.437387742372e-04       1.045352453376e+03 
       2.631830745176e-04       1.125468127721e+03 
       2.841785470091e-04       1.211678185928e+03 
       3.068489367268e-04       1.304435256065e+03 
       3.313278604643e-04       1.404223062921e+03 
       3.577595943165e-04       1.511558029577e+03 
       3.862999240274e-04       1.626990852555e+03 
       4.171170631739e-04       1.751108045602e+03 
       4.503926445983e-04       1.884533404755e+03 
       4.863227909323e-04       2.027929406956e+03 
       5.251192705226e-04       2.181998483913e+03 
       5.670107455699e-04       2.347484146066e+03 
       6.122441198393e-04       2.525171925196e+03 
       6.610859938837e-04       2.715890054979e+03 
       7.138242363583e-04       2.920509779320e+03 
       7.707696806873e-04       3.139945208051e+03 
       8.322579570814e-04       3.375152477019e+03 
       8.986514707061e-04       3.627128020462e+03 
       9.703415376577e-04       3.896905669504e+03 
       1.047750691338e-03       4.185552452613e+03 
       1.131335172818e-03       4.494162775570e+03 
       1.221587619877e-03       4.823851150591e+03 
       1.319039970550e-03       5.175743278705e+03 
       1.424266598317e-03       5.551020298675e+03 
       1.537887697396e-03       5.950789185423e+03 
       1.660572938097e-03       6.376124150043e+03 
       1.793045413791e-03       6.828075236577e+03 
       1.936085902737e-03       7.307627051040e+03 
       2.090537469909e-03       7.815673959039e+03 
       2.257310435923e-03       8.352992922964e+03 
       2.437387742372e-03       8.920214306330e+03 
       2.631830745176e-03       9.517787166665e+03 
       2.841785470091e-03       1.014594130667e+04 
       3.068489367268e-03       1.080465136472e+04 
       3.313278604643e-03       1.149358239499e+04 
       3.577595943165e-03       1.221204586839e+04 
       3.862999240274e-03       1.295893666467e+04 
       4.171170631739e-03       1.373267338581e+04 
       4.503926445983e-03       1.453113499982e+04 
       4.863227909323e-03       1.535157115226e+04 
       5.251192705226e-03       1.619066155160e+04 
       5.670107455699e-03       1.704433881261e+04 
       6.122441198393e-03       1.790758125042e+04 
       6.610859938837e-03       1.877461997006e+04 
       7.138242363583e-03       1.963874650978e+04 
       7.707696806873e-03       2.049217385675e+04 
       8.322579570814e-03       2.132608016028e+04 
       8.986514707061e-03       2.213056719171e+04 
       9.703415376577e-03       2.289447300338e+04 
       1.047750691338e-02       2.360549528463e+04 
       1.131335172818e-02       2.425024126519e+04 
       1.221587619877e-02       2.481424708350e+04 
       1.319039970550e-02       2.528219971883e+04 
       1.424266598317e-02       2.563815132531e+04 
       1.537887697392e-02       2.586607622475e+04 
       1.660572938023e-02       2.595027125616e+04 
       1.793045412706e-02       2.587635580999e+04 
       1.936085890181e-02       2.563219801925e+04 
       2.090537352463e-02       2.520936235451e+04 
       2.257309535333e-02       2.460445464566e+04 
       2.437382002918e-02       2.382088527681e+04 
       2.631799944462e-02       2.287044904212e+04 
       2.841644545389e-02       2.177449027531e+04 
       3.067933355377e-02       2.056556853570e+04 
       3.311368470740e-02       1.928731547602e+04 
       3.571840443502e-02       1.799402116688e+04 
       3.847720348444e-02       1.674684263651e+04 
       4.135335538431e-02       1.560459809416e+04 
       4.429361667738e-02       1.461037920196e+04 
       4.724366439141e-02       1.378055997843e+04 
       5.016480835311e-02       1.310505579639e+04 
       5.303989620246e-02       1.255718179895e+04 
       5.586870669566e-02       1.210423930159e+04 
       5.866042680613e-02       1.171465492614e+04 
       6.142798932958e-02       1.136047218618e+04 
       6.418496440164e-02       1.101855298947e+04 
       6.694418833788e-02       1.067067441799e+04 
       6.971731106057e-02       1.030358454605e+04 
       7.251476155766e-02       9.909011317969e+03 
       7.534587671527e-02       9.483731626498e+03 
       7.821907666265e-02       9.029497741710e+03 
       8.114203772912e-02       8.552309973902e+03 
       8.412184535029e-02       8.061893335632e+03 
       8.716512279304e-02       7.570759558107e+03 
       9.027813695930e-02       7.092487550917e+03 
       9.346688431697e-02       6.640519683479e+03 
       9.673716028276e-02       6.226705295662e+03 
       1.000946150830e-01       5.859930422163e+03 
       1.035447986537e-01       5.545263640851e+03 
       1.070931966762e-01       5.283140304679e+03 
       1.107452594425e-01       5.069426959286e+03 
       1.145064249153e-01       4.895251523072e+03 
       1.183821370918e-01       4.747840458883e+03 
       1.223778605862e-01       4.611721594525e+03 
       1.264990921987e-01       4.470608046853e+03 
       1.307513701367e-01       4.310252261200e+03 
       1.351402814784e-01       4.121362292569e+03 
       1.396714684203e-01       3.902052155358e+03 
       1.443506338194e-01       3.658648306999e+03 
       1.491835465229e-01       3.404488881241e+03 
       1.541760469708e-01       3.156661585293e+03 
       1.593340535561e-01       2.931946537802e+03 
       1.646635702297e-01       2.742361794176e+03 
       1.701706958456e-01       2.592240489748e+03 
       1.758616357459e-01       2.477222326375e+03 
       1.817427160982e-01       2.385168118321e+03 
       1.878204015065e-01       2.300352171135e+03 
       1.941013164283e-01       2.205743482526e+03 
       2.005922709503e-01       2.090804018061e+03 
       2.073002914972e-01       1.956451254135e+03 
       2.142326570816e-01       1.814183638270e+03 
       2.213969417533e-01       1.679269375714e+03 
       2.288010639706e-01       1.563829735415e+03 
       2.364533437147e-01       1.472669985790e+03 
       2.443625682930e-01       1.401507197645e+03 
       2.525380679504e-01       1.338399893491e+03 
       2.609898026346e-01       1.270888219620e+03 
       2.697284615565e-01       1.193368593134e+03 
       2.787655775689e-01       1.109328093174e+03 
       2.881136588829e-01       1.028755200745e+03 
       2.977863412677e-01       9.604668023206e+02 
       3.077985646929e-01       9.050091220867e+02 
       3.181667794071e-01       8.561314310481e+02 
       3.289091877812e-01       8.061734081030e+02 
       3.400460299658e-01       7.523775450938e+02 
       3.515999236474e-01       6.989090796480e+02 
       3.635962711085e-01       6.510496080189e+02 
       3.760637506334e-01       6.101084285843e+02 
       3.890349143879e-01       5.721181324433e+02 
       4.025469216825e-01       5.337692289604e+02 
       4.166424456376e-01       4.956193036628e+02 
       4.313708035863e-01       4.604561485532e+02 
       4.467893782977e-01       4.287633617944e+02 
       4.629654199664e-01       3.987592587883e+02 
       4.799783501994e-01       3.692298082673e+02 
       4.979227319373e-01       3.412274443009e+02 
       5.169121270864e-01       3.154714224668e+02 
       5.370841404489e-01       2.908244019177e+02 
       5.586070464571e-01       2.670940713124e+02 
       5.816885094930e-01       2.447981074313e+02 
       6.065870144995e-01       2.235565890135e+02 
       6.336266468475e-01       2.031991884359e+02 
       6.632156059511e-01       1.838676131270e+02 
       6.958678639263e-01       1.653441638326e+02 
       7.322247985589e-01       1.476853583556e+02 
       7.730680195114e-01       1.308240794455e+02 
       8.193049553677e-01       1.148216859003e+02 
       8.718988016039e-01       9.975357415807e+01 
       9.317218031082e-01       8.576877420799e+01 
       9.993660908989e-01       7.304620168563e+01 
       1.075037110174e+00       6.172777592635e+01 
       1.158653485707e+00       5.187118123944e+01 
       1.250099157308e+00       4.343285024430e+01 
       1.349432401273e+00       3.628238012945e+01 
       1.456947457397e+00       3.026141588307e+01 
       1.573135111331e+00       2.520824798863e+01 
       1.698621895592e+00       2.097599639416e+01 
       1.834127512934e+00       1.743673555143e+01 
       1.980444934528e+00       1.448029574184e+01 
       2.138435191726e+00       1.201391534363e+01 
       2.309029199186e+00       9.958459761820e+00 
       2.493232377687e+00       8.247377338764e+00 
       2.692130395285e+00       6.824438116599e+00 
       2.906895534573e+00       5.642333343826e+00 
       3.138793597714e+00       4.661217420194e+00 
       3.389191366484e+00       3.847652780743e+00 
       3.659564657905e+00       3.173702865627e+00 
       3.951507022538e+00       2.615839319732e+00 
       4.266739136701e+00       2.154525523108e+00 
       4.607118943941e+00       1.773282269799e+00 
       4.974652605557e+00       1.458509977210e+00 
       5.371506324689e+00       1.198813793626e+00 
       5.800019113685e+00       9.847070957521e-01 
       6.262716579983e+00       8.083219873388e-01 
       6.762325811764e+00       6.631128073896e-01 
       7.301791451110e+00       5.436513969102e-01 
       7.884293049406e+00       4.454389841073e-01 
       8.513263807261e+00       3.647490361452e-01 
       9.192410809424e+00       2.984942904321e-01 
       9.925736873929e+00       2.441283775056e-01 
       1.071756414427e+01       1.995460619214e-01 
       1.157255956364e+01       1.630051667260e-01 
       1.249576238137e+01       1.330767813428e-01 
       1.349261385375e+01       1.085749372028e-01 
       1.456898931416e+01       8.852878646132e-02 
       1.573123280165e+01       7.213781131072e-02 
       1.698619445202e+01       5.874106847853e-02 
       1.834127087176e+01       4.779940979132e-02 
       1.980444873285e+01       3.886734471518e-02 
       2.138435184532e+01       3.157975671889e-02 
       2.309029198506e+01       2.563753107964e-02 
       2.493232377636e+01       2.079496360169e-02 
       2.692130395282e+01       1.685111651350e-02 
       2.906895534573e+01       1.364081024585e-02 
       3.138793597714e+01       1.102955884083e-02 
       3.389191366484e+01       8.907079702223e-03 
       3.659564657905e+01       7.182980153449e-03 
       3.951507022538e+01       5.783694997756e-03 
       4.266739136701e+01       4.648900538940e-03 
       4.607118943941e+01       3.729300415271e-03 
       4.974652605557e+01       2.985249693584e-03 
       5.371506324689e+01       2.383651143208e-03 
       5.800019113685e+01       1.897881818857e-03 
       6.262716579983e+01       1.506273091589e-03 
       6.762325811764e+01       1.191087019392e-03 
       7.301791451110e+01       9.378966391256e-04 
       7.884293049406e+01       7.349698285778e-04 
       8.513263807261e+01       5.727644196729e-04 
       9.192410809424e+01       4.435403514062e-04 
       9.925736873929e+01       3.409488830013e-04 
       1.071756414427e+02       2.598603573836e-04 
       1.157255956364e+02       1.961180598822e-04 
       1.249576238137e+02       1.463214391482e-04 
       1.349261385375e+02       1.077129143521e-04 
       1.456898931416e+02       7.805112094309e-05 
       1.573123280165e+02       5.551424275514e-05 
       1.698619445202e+02       3.861758272927e-05 
       1.834127087176e+02       2.615414474490e-05 
       1.980444873285e+02       1.714387010548e-05 
       2.138435184532e+02       1.078887237685e-05 
