# Matter power spectrum P(k) at redshift z=0
# for k=1.04775e-05 to 134.926 h/Mpc,
# number of wavenumbers equal to 255
#    1:k (h/Mpc)              2:P (Mpc/h)^3        
       1.047750691338e-05       5.020964438559e+01 
       1.131335172818e-05       5.407048114993e+01 
       1.221587619877e-05       5.822821650292e+01 
       1.319039970550e-05       6.270563655400e+01 
       1.424266598317e-05       6.752730215202e+01 
       1.537887697396e-05       7.271976996866e+01 
       1.660572938097e-05       7.831147806573e+01 
       1.793045413791e-05       8.433312178182e+01 
       1.936085902737e-05       9.081779243962e+01 
       2.090537469909e-05       9.780106783284e+01 
       2.257310435923e-05       1.053213061430e+02 
       2.437387742372e-05       1.134197324018e+02 
       2.631830745176e-05       1.221408212482e+02 
       2.841785470091e-05       1.315324492643e+02 
       3.068489367268e-05       1.416461553039e+02 
       3.313278604643e-05       1.525374356591e+02 
       3.577595943165e-05       1.642660425833e+02 
       3.862999240274e-05       1.768963340208e+02 
       4.171170631739e-05       1.904975921370e+02 
       4.503926445983e-05       2.051444188498e+02 
       4.863227909323e-05       2.209171353434e+02 
       5.251192705226e-05       2.379022257015e+02 
       5.670107455699e-05       2.561927780227e+02 
       6.122441198393e-05       2.758890468229e+02 
       6.610859938837e-05       2.970989238110e+02 
       7.138242363583e-05       3.199385564065e+02 
       7.707696806873e-05       3.445329730414e+02 
       8.322579570814e-05       3.710167327151e+02 
       8.986514707061e-05       3.995346456240e+02 
       9.703415376577e-05       4.302425390670e+02 
       1.047750691338e-04       4.633080776181e+02 
       1.131335172818e-04       4.989116277954e+02 
       1.221587619877e-04       5.372471948903e+02 
       1.319039970550e-04       5.785234120121e+02 
       1.424266598317e-04       6.229645933010e+02 
       1.537887697396e-04       6.708118472321e+02 
       1.660572938097e-04       7.223242649253e+02 
       1.793045413791e-04       7.777801540337e+02 
       1.936085902737e-04       8.374783569744e+02 
       2.090537469909e-04       9.017396199155e+02 
       2.257310435923e-04       9.709080171529e+02 
       2.437387742372e-04       1.045352434363e+03 
       2.631830745176e-04       1.125468099869e+03 
       2.841785470091e-04       1.211678145595e+03 
       3.068489367268e-04       1.304435195810e+03 
       3.313278604643e-04       1.404222978095e+03 
       3.577595943165e-04       1.511557908269e+03 
       3.862999240274e-04       1.626990678180e+03 
       4.171170631739e-04       1.751107793564e+03 
       4.503926445983e-04       1.884533040535e+03 
       4.863227909323e-04       2.027928880281e+03 
       5.251192705226e-04       2.181997720727e+03 
       5.670107455699e-04       2.347483052187e+03 
       6.122441198393e-04       2.525170348923e+03 
       6.610859938837e-04       2.715887784792e+03 
       7.138242363583e-04       2.920506516778e+03 
       7.707696806873e-04       3.139940510897e+03 
       8.322579570814e-04       3.375145735623e+03 
       8.986514707061e-04       3.627118345293e+03 
       9.703415376577e-04       3.896891816649e+03 
       1.047750691338e-03       4.185532646522e+03 
       1.131335172818e-03       4.494134463094e+03 
       1.221587619877e-03       4.823810767843e+03 
       1.319039970550e-03       5.175685758607e+03 
       1.424266598317e-03       5.550938006376e+03 
       1.537887697396e-03       5.950671506187e+03 
       1.660572938097e-03       6.375956463221e+03 
       1.793045413791e-03       6.827837109083e+03 
       1.936085902737e-03       7.307289797359e+03 
       2.090537469909e-03       7.815197647368e+03 
       2.257310435923e-03       8.352322224039e+03 
       2.437387742372e-03       8.919272027076e+03 
       2.631830745176e-03       9.516467464027e+03 
       2.841785470091e-03       1.014409833874e+04 
       3.068489367268e-03       1.080208256768e+04 
       3.313278604643e-03       1.149001392555e+04 
       3.577595943165e-03       1.220710445811e+04 
       3.862999240274e-03       1.295211339967e+04 
       4.171170631739e-03       1.372328169136e+04 
       4.503926445983e-03       1.451824727367e+04 
       4.863227909323e-03       1.533394389755e+04 
       5.251192705226e-03       1.616663719516e+04 
       5.670107455699e-03       1.701170475889e+04 
       6.122441198393e-03       1.786341916346e+04 
       6.610859938837e-03       1.871508246766e+04 
       7.138242363583e-03       1.955877146871e+04 
       7.707696806873e-03       2.038519061275e+04 
       8.322579570814e-03       2.118358236555e+04 
       8.986514707061e-03       2.194151555483e+04 
       9.703415376577e-03       2.264474295275e+04 
       1.047750691338e-02       2.327718382444e+04 
       1.131335172818e-02       2.382070722690e+04 
       1.221587619877e-02       2.425504623356e+04 
       1.319039970550e-02       2.455807635851e+04 
       1.424266598317e-02       2.470571292760e+04 
       1.537887697392e-02       2.467271271532e+04 
       1.660572938023e-02       2.443264437545e+04 
       1.793045412706e-02       2.395996250435e+04 
       1.936085890181e-02       2.323100069151e+04 
       2.090537352463e-02       2.222614936711e+04 
       2.257309535333e-02       2.093307743089e+04 
       2.437382002918e-02       1.935022896155e+04 
       2.631799944462e-02       1.749099832443e+04 
       2.841644545389e-02       1.538845298063e+04 
       3.067933355377e-02       1.310012399716e+04 
       3.311368470740e-02       1.071181697541e+04 
       3.571840443502e-02       8.338586047271e+03 
       3.847720348444e-02       6.116438293895e+03 
       4.135335538431e-02       4.179663834709e+03 
       4.429361667738e-02       2.625071678564e+03 
       4.724366439141e-02       1.484229440033e+03 
       5.016480835311e-02       7.250697214428e+02 
       5.303989620246e-02       2.774502177393e+02 
       5.586870669566e-02       6.068313868500e+01 
       5.866042680613e-02       1.026740373938e-01 
       6.142798932958e-02       3.358846766304e+01 
       6.418496440164e-02       1.127691203918e+02 
       6.694418833788e-02       2.022135564007e+02 
       6.971731106057e-02       2.780171022440e+02 
       7.251476155766e-02       3.263102808854e+02 
       7.534587671527e-02       3.416214250016e+02 
       7.821907666265e-02       3.252595740013e+02 
       8.114203772912e-02       2.834370629205e+02 
       8.412184535029e-02       2.253770294600e+02 
       8.716512279304e-02       1.613931704617e+02 
       9.027813695930e-02       1.011815190595e+02 
       9.346688431697e-02       5.225961846154e+01 
       9.673716028276e-02       1.907796539213e+01 
       1.000946150830e-01       2.639005079259e+00 
       1.035447986537e-01       7.467863365865e-01 
       1.070931966762e-01       8.873782776482e+00 
       1.107452594425e-01       2.140260648223e+01 
       1.145064249153e-01       3.298769635211e+01 
       1.183821370918e-01       3.975066063621e+01 
       1.223778605862e-01       3.996665165196e+01 
       1.264990921987e-01       3.418336768310e+01 
       1.307513701367e-01       2.465081969102e+01 
       1.351402814784e-01       1.438255290137e+01 
       1.396714684203e-01       6.066054516590e+00 
       1.443506338194e-01       1.246801049966e+00 
       1.491835465229e-01       1.295913642009e-02 
       1.541760469708e-01       1.248785880862e+00 
       1.593340535561e-01       3.295932215750e+00 
       1.646635702297e-01       4.713501678855e+00 
       1.701706958456e-01       4.808352054056e+00 
       1.758616357459e-01       3.730474669563e+00 
       1.817427160982e-01       2.152409394948e+00 
       1.878204015065e-01       8.165546904392e-01 
       1.941013164283e-01       1.135063934238e-01 
       2.005922709503e-01       2.028805961586e-02 
       2.073002914972e-01       2.254723948254e-01 
       2.142326570816e-01       4.107387767911e-01 
       2.213969417533e-01       4.225488621037e-01 
       2.288010639706e-01       2.862479197910e-01 
       2.364533437147e-01       1.233116650804e-01 
       2.443625682930e-01       2.500248486672e-02 
       2.525380679504e-01       3.690955162337e-05 
       2.609898026346e-01       1.341768508719e-02 
       2.697284615565e-01       2.590500377812e-02 
       2.787655775689e-01       2.409309638255e-02 
       2.881136588829e-01       1.410235555822e-02 
       2.977863412677e-01       4.432185483205e-03 
       3.077985646929e-01       4.099361334840e-04 
       3.181667794071e-01       1.433536211926e-04 
       3.289091877812e-01       8.193465234401e-04 
       3.400460299658e-01       8.921117441114e-04 
       3.515999236474e-01       5.688269765838e-04 
       3.635962711085e-01       1.641248190321e-04 
       3.760637506334e-01       9.624078390177e-06 
       3.890349143879e-01       1.337551249916e-05 
       4.025469216825e-01       6.397982461721e-05 
       4.166424456376e-01       8.860066532796e-05 
       4.313708035863e-01       3.273197725432e-05 
       4.467893782977e-01       1.147741822945e-05 
       4.629654199664e-01       5.610311319496e-07 
       4.799783501994e-01       9.602328631299e-07 
       4.979227319373e-01       9.974708617879e-07 
       5.169121270864e-01       8.110748076484e-07 
       5.370841404489e-01       4.944176960779e-07 
       5.586070464571e-01       6.700347174022e-07 
       5.816885094930e-01       6.689380594579e-07 
       6.065870144995e-01       2.226336907568e-07 
       6.336266468475e-01       1.743085862567e-07 
       6.632156059511e-01       9.678854148134e-08 
       6.958678639263e-01       1.294824925972e-06 
       7.322247985589e-01       3.029028893355e-07 
       7.730680195114e-01       7.952203825386e-09 
       8.193049553677e-01       1.682555987972e-07 
       8.718988016039e-01       1.460853961316e-07 
       9.317218031082e-01       6.034383354884e-07 
       9.993660908989e-01       4.776242540950e-06 
       1.075037110174e+00       7.880625330014e-07 
       1.158653485707e+00       3.493289751409e-07 
       1.250099157308e+00       8.502668607625e-08 
       1.349432401273e+00       7.024118968349e-08 
       1.456947457397e+00       1.227691507836e-06 
       1.573135111331e+00       8.620659759666e-07 
       1.698621895592e+00       3.747073586475e-12 
       1.834127512934e+00       1.129208581247e-06 
       1.980444934528e+00       1.039303989301e-06 
       2.138435191726e+00       1.934855662696e-06 
       2.309029199186e+00       1.433573894650e-08 
       2.493232377687e+00       9.005565813983e-08 
       2.692130395285e+00       6.018845613010e-06 
       2.906895534573e+00       1.033986893777e-05 
       3.138793597714e+00       8.874042222070e-07 
       3.389191366484e+00       1.011357342674e-05 
       3.659564657905e+00       7.101722199160e-08 
       3.951507022538e+00       1.370799017513e-06 
       4.266739136701e+00       1.306096473800e-05 
       4.607118943941e+00       3.837391523592e-07 
       4.974652605557e+00       3.381059967880e-06 
       5.371506324689e+00       2.182629706014e-06 
       5.800019113685e+00       1.122648201639e-06 
       6.262716579983e+00       1.313088982072e-06 
       6.762325811764e+00       4.505487084137e-06 
       7.301791451110e+00       1.246822915288e-05 
       7.884293049406e+00       3.202471604981e-06 
       8.513263807261e+00       5.062452592114e-08 
       9.192410809424e+00       4.523509753857e-06 
       9.925736873929e+00       7.826015190443e-07 
       1.071756414427e+01       1.528794522159e-09 
       1.157255956364e+01       1.012130976565e-07 
       1.249576238137e+01       6.968133838092e-08 
       1.349261385375e+01       1.448880117048e-09 
       1.456898931416e+01       1.658751078828e-09 
       1.573123280165e+01       7.940156092704e-10 
       1.698619445202e+01       1.253031715741e-08 
       1.834127087176e+01       5.016136193913e-12 
       1.980444873285e+01       3.272671938691e-09 
       2.138435184532e+01       1.815092836365e-08 
       2.309029198506e+01       2.782819388412e-08 
       2.493232377636e+01       2.262998000300e-10 
       2.692130395282e+01       5.579824358910e-08 
       2.906895534573e+01       2.090736744833e-10 
       3.138793597714e+01       1.471466160462e-11 
       3.389191366484e+01       1.812475631697e-10 
       3.659564657905e+01       3.625389255330e-10 
       3.951507022538e+01       2.858138485266e-10 
       4.266739136701e+01       5.597510989565e-09 
       4.607118943941e+01       1.126573082360e-08 
       4.974652605557e+01       8.699958675321e-10 
       5.371506324689e+01       1.126382182352e-09 
       5.800019113685e+01       2.996883469473e-11 
       6.262716579983e+01       1.006287199623e-12 
       6.762325811764e+01       1.265359751642e-10 
       7.301791451110e+01       1.045631970529e-10 
       7.884293049406e+01       7.010419666224e-10 
       8.513263807261e+01       1.572100918002e-11 
       9.192410809424e+01       1.896075739437e-10 
       9.925736873929e+01       6.924373204487e-11 
       1.071756414427e+02       1.249363107329e-11 
       1.157255956364e+02       8.979771719490e-12 
       1.249576238137e+02       1.784620655762e-12 
       1.349261385375e+02       4.709122600697e-11 
