# Matter power spectrum P(k) at redshift z=99
# for k=1.04775e-05 to 134.926 h/Mpc,
# number of wavenumbers equal to 255
#    1:k (h/Mpc)              2:P (Mpc/h)^3        
       1.047750691338e-05       7.261927095242e-03 
       1.131335172818e-05       7.820332150708e-03 
       1.221587619877e-05       8.421675382280e-03 
       1.319039970550e-05       9.069257737949e-03 
       1.424266598317e-05       9.766636451067e-03 
       1.537887697396e-05       1.051763973635e-02 
       1.660572938097e-05       1.132639250745e-02 
       1.793045413791e-05       1.219733201502e-02 
       1.936085902737e-05       1.313524187195e-02 
       2.090537469909e-05       1.414527084970e-02 
       2.257310435923e-05       1.523296544484e-02 
       2.437387742372e-05       1.640429654632e-02 
       2.631830745176e-05       1.766569603278e-02 
       2.841785470091e-05       1.902408711153e-02 
       3.068489367268e-05       2.048692967435e-02 
       3.313278604643e-05       2.206225467539e-02 
       3.577595943165e-05       2.375870883842e-02 
       3.862999240274e-05       2.558560669811e-02 
       4.171170631739e-05       2.755297672496e-02 
       4.503926445983e-05       2.967161933401e-02 
       4.863227909323e-05       3.195316455643e-02 
       5.251192705226e-05       3.441013466121e-02 
       5.670107455699e-05       3.705601741687e-02 
       6.122441198393e-05       3.990533412820e-02 
       6.610859938837e-05       4.297372242514e-02 
       7.138242363583e-05       4.627802054832e-02 
       7.707696806873e-05       4.983636159867e-02 
       8.322579570814e-05       5.366826786911e-02 
       8.986514707061e-05       5.779476319710e-02 
       9.703415376577e-05       6.223848221811e-02 
       1.047750691338e-04       6.702379824995e-02 
       1.131335172818e-04       7.217695031051e-02 
       1.221587619877e-04       7.772619030332e-02 
       1.319039970550e-04       8.370193380009e-02 
       1.424266598317e-04       9.013692506633e-02 
       1.537887697396e-04       9.706641130364e-02 
       1.660572938097e-04       1.045283343107e-01 
       1.793045413791e-04       1.125635329182e-01 
       1.936085902737e-04       1.212159592306e-01 
       2.090537469909e-04       1.305329107432e-01 
       2.257310435923e-04       1.405652819357e-01 
       2.437387742372e-04       1.513678275072e-01 
       2.631830745176e-04       1.629994475130e-01 
       2.841785470091e-04       1.755234890475e-01 
       3.068489367268e-04       1.890080645296e-01 
       3.313278604643e-04       2.035263977428e-01 
       3.577595943165e-04       2.191571778041e-01 
       3.862999240274e-04       2.359849423257e-01 
       4.171170631739e-04       2.541004712999e-01 
       4.503926445983e-04       2.736012061157e-01 
       4.863227909323e-04       2.945916774641e-01 
       5.251192705226e-04       3.171839507862e-01 
       5.670107455699e-04       3.414980769106e-01 
       6.122441198393e-04       3.676625416299e-01 
       6.610859938837e-04       3.958147272864e-01 
       7.138242363583e-04       4.261013332064e-01 
       7.707696806873e-04       4.586787880850e-01 
       8.322579570814e-04       4.937136112822e-01 
       8.986514707061e-04       5.313826962079e-01 
       9.703415376577e-04       5.718735176807e-01 
       1.047750691338e-03       6.153841926255e-01 
       1.131335172818e-03       6.621233623129e-01 
       1.221587619877e-03       7.123098743661e-01 
       1.319039970550e-03       7.661721263797e-01 
       1.424266598317e-03       8.239547181314e-01 
       1.537887697396e-03       8.859012282832e-01 
       1.660572938097e-03       9.522589495770e-01 
       1.793045413791e-03       1.023280284739e+00 
       1.936085902737e-03       1.099216542130e+00 
       2.090537469909e-03       1.180313285063e+00 
       2.257310435923e-03       1.266804486838e+00 
       2.437387742372e-03       1.358905328496e+00 
       2.631830745176e-03       1.456803285986e+00 
       2.841785470091e-03       1.560647663077e+00 
       3.068489367268e-03       1.670537010621e+00 
       3.313278604643e-03       1.786505039687e+00 
       3.577595943165e-03       1.908504410170e+00 
       3.862999240274e-03       2.036389468813e+00 
       4.171170631739e-03       2.169898252857e+00 
       4.503926445983e-03       2.308634492023e+00 
       4.863227909323e-03       2.452050674822e+00 
       5.251192705226e-03       2.599434681167e+00 
       5.670107455699e-03       2.749901126478e+00 
       6.122441198393e-03       2.902390058311e+00 
       6.610859938837e-03       3.055671269766e+00 
       7.138242363583e-03       3.208360122722e+00 
       7.707696806873e-03       3.358926651154e+00 
       8.322579570814e-03       3.505726889551e+00 
       8.986514707061e-03       3.647012437401e+00 
       9.703415376577e-03       3.780926178724e+00 
       1.047750691338e-02       3.905492879850e+00 
       1.131335172818e-02       4.018589824924e+00 
       1.221587619877e-02       4.117902887298e+00 
       1.319039970550e-02       4.200917698408e+00 
       1.424266598317e-02       4.264943736365e+00 
       1.537887697392e-02       4.307219666317e+00 
       1.660572938023e-02       4.325062453454e+00 
       1.793045412706e-02       4.316060386312e+00 
       1.936085890181e-02       4.278228924197e+00 
       2.090537352463e-02       4.210204462249e+00 
       2.257309535333e-02       4.111418733187e+00 
       2.437382002918e-02       3.982420915537e+00 
       2.631799944462e-02       3.825168656765e+00 
       2.841644545389e-02       3.643282205211e+00 
       3.067933355377e-02       3.442198656126e+00 
       3.311368470740e-02       3.229241543704e+00 
       3.571840443502e-02       3.013516259402e+00 
       3.847720348444e-02       2.805283855168e+00 
       4.135335538431e-02       2.614410564611e+00 
       4.429361667738e-02       2.448132071056e+00 
       4.724366439141e-02       2.309240524473e+00 
       5.016480835311e-02       2.196115060515e+00 
       5.303989620246e-02       2.104369683752e+00 
       5.586870669566e-02       2.028462389697e+00 
       5.866042680613e-02       1.963155083520e+00 
       6.142798932958e-02       1.903779465160e+00 
       6.418496440164e-02       1.846478958117e+00 
       6.694418833788e-02       1.788197223994e+00 
       6.971731106057e-02       1.726715432534e+00 
       7.251476155766e-02       1.660654161801e+00 
       7.534587671527e-02       1.589469675658e+00 
       7.821907666265e-02       1.513436416833e+00 
       8.114203772912e-02       1.433568639417e+00 
       8.412184535029e-02       1.351492161092e+00 
       8.716512279304e-02       1.269272972990e+00 
       9.027813695930e-02       1.189193102159e+00 
       9.346688431697e-02       1.113501049703e+00 
       9.673716028276e-02       1.044174397377e+00 
       1.000946150830e-01       9.827059328339e-01 
       1.035447986537e-01       9.299374346104e-01 
       1.070931966762e-01       8.859584426743e-01 
       1.107452594425e-01       8.500710165690e-01 
       1.145064249153e-01       8.208032530514e-01 
       1.183821370918e-01       7.960241748544e-01 
       1.223778605862e-01       7.731456033942e-01 
       1.264990921987e-01       7.494518656015e-01 
       1.307513701367e-01       7.225569563976e-01 
       1.351402814784e-01       6.909083015392e-01 
       1.396714684203e-01       6.541805630716e-01 
       1.443506338194e-01       6.134261271478e-01 
       1.491835465229e-01       5.708675269314e-01 
       1.541760469708e-01       5.293638111810e-01 
       1.593340535561e-01       4.917103609310e-01 
       1.646635702297e-01       4.599194633524e-01 
       1.701706958456e-01       4.347274040543e-01 
       1.758616357459e-01       4.154072938510e-01 
       1.817427160982e-01       3.999364257126e-01 
       1.878204015065e-01       3.856823737621e-01 
       1.941013164283e-01       3.698090072139e-01 
       2.005922709503e-01       3.505460637742e-01 
       2.073002914972e-01       3.280426291558e-01 
       2.142326570816e-01       3.042132354093e-01 
       2.213969417533e-01       2.816112115692e-01 
       2.288010639706e-01       2.622562687728e-01 
       2.364533437147e-01       2.469612299136e-01 
       2.443625682930e-01       2.350127088022e-01 
       2.525380679504e-01       2.244173197038e-01 
       2.609898026346e-01       2.130933041925e-01 
       2.697284615565e-01       2.001014639111e-01 
       2.787655775689e-01       1.860196595200e-01 
       2.881136588829e-01       1.725167369247e-01 
       2.977863412677e-01       1.610655229545e-01 
       3.077985646929e-01       1.517603525721e-01 
       3.181667794071e-01       1.435586882311e-01 
       3.289091877812e-01       1.351810384576e-01 
       3.400460299658e-01       1.261637979940e-01 
       3.515999236474e-01       1.172015153856e-01 
       3.635962711085e-01       1.091764121231e-01 
       3.760637506334e-01       1.023090907367e-01 
       3.890349143879e-01       9.593722716172e-02 
       4.025469216825e-01       8.950726026727e-02 
       4.166424456376e-01       8.311133347397e-02 
       4.313708035863e-01       7.721501933375e-02 
       4.467893782977e-01       7.190014971055e-02 
       4.629654199664e-01       6.686858051340e-02 
       4.799783501994e-01       6.191706644548e-02 
       4.979227319373e-01       5.722177059702e-02 
       5.169121270864e-01       5.290242419443e-02 
       5.370841404489e-01       4.876932685326e-02 
       5.586070464571e-01       4.479028096415e-02 
       5.816885094930e-01       4.105146524018e-02 
       6.065870144995e-01       3.748948614012e-02 
       6.336266468475e-01       3.407579422143e-02 
       6.632156059511e-01       3.083412474087e-02 
       6.958678639263e-01       2.772796920291e-02 
       7.322247985589e-01       2.476675680963e-02 
       7.730680195114e-01       2.193923435873e-02 
       8.193049553677e-01       1.925579315175e-02 
       8.718988016039e-01       1.672897302701e-02 
       9.317218031082e-01       1.438385368896e-02 
       9.993660908989e-01       1.225035264516e-02 
       1.075037110174e+00       1.035230217497e-02 
       1.158653485707e+00       8.699393767708e-03 
       1.250099157308e+00       7.284317273661e-03 
       1.349432401273e+00       6.085203053810e-03 
       1.456947457397e+00       5.075492710753e-03 
       1.573135111331e+00       4.228077732763e-03 
       1.698621895592e+00       3.518330574734e-03 
       1.834127512934e+00       2.924778779052e-03 
       1.980444934528e+00       2.428973863483e-03 
       2.138435191726e+00       2.015332240771e-03 
       2.309029199186e+00       1.670609546959e-03 
       2.493232377687e+00       1.383638106017e-03 
       2.692130395285e+00       1.144987249502e-03 
       2.906895534573e+00       9.467224129007e-04 
       3.138793597714e+00       7.821641887499e-04 
       3.389191366484e+00       6.457050768299e-04 
       3.659564657905e+00       5.326604532969e-04 
       3.951507022538e+00       4.390830481461e-04 
       4.266739136701e+00       3.616980813656e-04 
       4.607118943941e+00       2.977419545901e-04 
       4.974652605557e+00       2.449337962042e-04 
       5.371506324689e+00       2.013634617518e-04 
       5.800019113685e+00       1.654378122932e-04 
       6.262716579983e+00       1.358402215337e-04 
       6.762325811764e+00       1.114712847379e-04 
       7.301791451110e+00       9.142140313497e-05 
       7.884293049406e+00       7.493579179837e-05 
       8.513263807261e+00       6.138958982118e-05 
       9.192410809424e+00       5.026515077259e-05 
       9.925736873929e+00       4.113552298533e-05 
       1.071756414427e+01       3.364674006777e-05 
       1.157255956364e+01       2.750783087878e-05 
       1.249576238137e+01       2.247777933124e-05 
       1.349261385375e+01       1.835880601731e-05 
       1.456898931416e+01       1.498770885254e-05 
       1.573123280165e+01       1.223006616929e-05 
       1.698619445202e+01       9.975183410343e-06 
       1.834127087176e+01       8.132467640156e-06 
       1.980444873285e+01       6.627241225853e-06 
       2.138435184532e+01       5.398268310734e-06 
       2.309029198506e+01       4.395272448112e-06 
       2.493232377636e+01       3.577089055831e-06 
       2.692130395282e+01       2.909984591227e-06 
       2.906895534573e+01       2.366251902764e-06 
       3.138793597714e+01       1.923298533676e-06 
       3.389191366484e+01       1.562574032249e-06 
       3.659564657905e+01       1.268937048426e-06 
       3.951507022538e+01       1.030020828109e-06 
       4.266739136701e+01       8.357018938540e-07 
       4.607118943941e+01       6.777069544884e-07 
       4.974652605557e+01       5.493151623679e-07 
       5.371506324689e+01       4.450110602553e-07 
       5.800019113685e+01       3.603214837373e-07 
       6.262716579983e+01       2.915716884407e-07 
       6.762325811764e+01       2.358048035418e-07 
       7.301791451110e+01       1.905780952863e-07 
       7.884293049406e+01       1.539130798877e-07 
       8.513263807261e+01       1.242095591244e-07 
       9.192410809424e+01       1.001552000361e-07 
       9.925736873929e+01       8.068496295562e-08 
       1.071756414427e+02       6.493537644721e-08 
       1.157255956364e+02       5.220111883813e-08 
       1.249576238137e+02       4.191230073720e-08 
       1.349261385375e+02       3.360605354746e-08 
