# Matter power spectrum P(k) at redshift z=0
# for k=1.04775e-05 to 134.926 h/Mpc,
# number of wavenumbers equal to 255
#    1:k (h/Mpc)              2:P (Mpc/h)^3        
       1.047750691338e-05       5.020964856083e+01 
       1.131335172818e-05       5.407049101027e+01 
       1.221587619877e-05       5.822820477616e+01 
       1.319039970550e-05       6.270561966074e+01 
       1.424266598317e-05       6.752731586427e+01 
       1.537887697396e-05       7.271977181375e+01 
       1.660572938097e-05       7.831147738898e+01 
       1.793045413791e-05       8.433312566161e+01 
       1.936085902737e-05       9.081779096457e+01 
       2.090537469909e-05       9.780108061812e+01 
       2.257310435923e-05       1.053212944098e+02 
       2.437387742372e-05       1.134197273013e+02 
       2.631830745176e-05       1.221408240207e+02 
       2.841785470091e-05       1.315324596031e+02 
       3.068489367268e-05       1.416461652031e+02 
       3.313278604643e-05       1.525374471758e+02 
       3.577595943165e-05       1.642660541684e+02 
       3.862999240274e-05       1.768963430495e+02 
       4.171170631739e-05       1.904975996184e+02 
       4.503926445983e-05       2.051444260494e+02 
       4.863227909323e-05       2.209171397332e+02 
       5.251192705226e-05       2.379022260111e+02 
       5.670107455699e-05       2.561927816358e+02 
       6.122441198393e-05       2.758890478547e+02 
       6.610859938837e-05       2.970989214525e+02 
       7.138242363583e-05       3.199385560751e+02 
       7.707696806873e-05       3.445329733797e+02 
       8.322579570814e-05       3.710167323320e+02 
       8.986514707061e-05       3.995346446132e+02 
       9.703415376577e-05       4.302425394404e+02 
       1.047750691338e-04       4.633080764847e+02 
       1.131335172818e-04       4.989116269839e+02 
       1.221587619877e-04       5.372471941503e+02 
       1.319039970550e-04       5.785234109918e+02 
       1.424266598317e-04       6.229645933072e+02 
       1.537887697396e-04       6.708118486268e+02 
       1.660572938097e-04       7.223242658563e+02 
       1.793045413791e-04       7.777801568745e+02 
       1.936085902737e-04       8.374783630469e+02 
       2.090537469909e-04       9.017396284255e+02 
       2.257310435923e-04       9.709080279477e+02 
       2.437387742372e-04       1.045352451061e+03 
       2.631830745176e-04       1.125468125082e+03 
       2.841785470091e-04       1.211678182083e+03 
       3.068489367268e-04       1.304435249283e+03 
       3.313278604643e-04       1.404223054388e+03 
       3.577595943165e-04       1.511558018595e+03 
       3.862999240274e-04       1.626990838434e+03 
       4.171170631739e-04       1.751108024191e+03 
       4.503926445983e-04       1.884533373645e+03 
       4.863227909323e-04       2.027929365926e+03 
       5.251192705226e-04       2.181998421504e+03 
       5.670107455699e-04       2.347484055434e+03 
       6.122441198393e-04       2.525171797274e+03 
       6.610859938837e-04       2.715889867456e+03 
       7.138242363583e-04       2.920509511321e+03 
       7.707696806873e-04       3.139944819833e+03 
       8.322579570814e-04       3.375151925615e+03 
       8.986514707061e-04       3.627127224986e+03 
       9.703415376577e-04       3.896904529916e+03 
       1.047750691338e-03       4.185550818689e+03 
       1.131335172818e-03       4.494160443488e+03 
       1.221587619877e-03       4.823847833916e+03 
       1.319039970550e-03       5.175738551738e+03 
       1.424266598317e-03       5.551013319594e+03 
       1.537887697396e-03       5.950778811037e+03 
       1.660572938097e-03       6.376108846015e+03 
       1.793045413791e-03       6.828052861010e+03 
       1.936085902737e-03       7.307594579858e+03 
       2.090537469909e-03       7.815627120624e+03 
       2.257310435923e-03       8.352925817374e+03 
       2.437387742372e-03       8.920118556853e+03 
       2.631830745176e-03       9.517651215376e+03 
       2.841785470091e-03       1.014575002230e+04 
       3.068489367268e-03       1.080438145303e+04 
       3.313278604643e-03       1.149320407746e+04 
       3.577595943165e-03       1.221151789776e+04 
       3.862999240274e-03       1.295820288665e+04 
       4.171170631739e-03       1.373165715403e+04 
       4.503926445983e-03       1.452972981990e+04 
       4.863227909323e-03       1.534963493671e+04 
       5.251192705226e-03       1.618800544774e+04 
       5.670107455699e-03       1.704070418804e+04 
       6.122441198393e-03       1.790262891394e+04 
       6.610859938837e-03       1.876789731573e+04 
       7.138242363583e-03       1.962963807419e+04 
       7.707696806873e-03       2.047989452693e+04 
       8.322579570814e-03       2.130958375099e+04 
       8.986514707061e-03       2.210847669055e+04 
       9.703415376577e-03       2.286500226859e+04 
       1.047750691338e-02       2.356635003354e+04 
       1.131335172818e-02       2.419843862261e+04 
       1.221587619877e-02       2.474599789298e+04 
       1.319039970550e-02       2.519265141899e+04 
       1.424266598317e-02       2.552118443366e+04 
       1.537887697392e-02       2.571407413108e+04 
       1.660572938023e-02       2.575372254583e+04 
       1.793045412706e-02       2.562359491427e+04 
       1.936085890181e-02       2.530910421448e+04 
       2.090537352463e-02       2.479895911022e+04 
       2.257309535333e-02       2.408682785298e+04 
       2.437382002918e-02       2.317296673049e+04 
       2.631799944462e-02       2.206615177995e+04 
       2.841644545389e-02       2.078529133012e+04 
       3.067933355377e-02       1.936100124660e+04 
       3.311368470740e-02       1.783663941667e+04 
       3.571840443502e-02       1.626823134399e+04 
       3.847720348444e-02       1.472197964105e+04 
       4.135335538431e-02       1.326497260957e+04 
       4.429361667738e-02       1.195088834423e+04 
       4.724366439141e-02       1.080643539767e+04 
       5.016480835311e-02       9.829840546661e+03 
       5.303989620246e-02       8.999544423550e+03 
       5.586870669566e-02       8.286291804701e+03 
       5.866042680613e-02       7.661093958977e+03 
       6.142798932958e-02       7.098262112894e+03 
       6.418496440164e-02       6.576840230777e+03 
       6.694418833788e-02       6.080561065632e+03 
       6.971731106057e-02       5.597645925866e+03 
       7.251476155766e-02       5.120480359297e+03 
       7.534587671527e-02       4.645588973290e+03 
       7.821907666265e-02       4.172947921197e+03 
       8.114203772912e-02       3.705922987492e+03 
       8.412184535029e-02       3.250281378948e+03 
       8.716512279304e-02       2.813370965216e+03 
       9.027813695930e-02       2.403122906257e+03 
       9.346688431697e-02       2.026864933001e+03 
       9.673716028276e-02       1.690400318548e+03 
       1.000946150830e-01       1.397134806490e+03 
       1.035447986537e-01       1.147827565893e+03 
       1.070931966762e-01       9.406340784465e+02 
       1.107452594425e-01       7.714399449487e+02 
       1.145064249153e-01       6.346067486785e+02 
       1.183821370918e-01       5.237237543194e+02 
       1.223778605862e-01       4.323294100694e+02 
       1.264990921987e-01       3.545388498917e+02 
       1.307513701367e-01       2.857046462829e+02 
       1.351402814784e-01       2.229177008967e+02 
       1.396714684203e-01       1.652866380855e+02 
       1.443506338194e-01       1.137829837790e+02 
       1.491835465229e-01       7.050761942594e+01 
       1.541760469708e-01       3.754460480204e+01 
       1.593340535561e-01       1.576514311122e+01 
       1.646635702297e-01       4.176404676299e+00 
       1.701706958456e-01       1.940448555173e-01 
       1.758616357459e-01       6.377141371684e-01 
       1.817427160982e-01       2.887338234443e+00 
       1.878204015065e-01       5.477949476352e+00 
       1.941013164283e-01       8.119034164099e+00 
       2.005922709503e-01       1.123887207854e+01 
       2.073002914972e-01       1.532035993474e+01 
       2.142326570816e-01       2.038636533455e+01 
       2.213969417533e-01       2.574293200935e+01 
       2.288010639706e-01       3.009816375631e+01 
       2.364533437147e-01       3.208602257301e+01 
       2.443625682930e-01       3.117733734131e+01 
       2.525380679504e-01       2.818379712462e+01 
       2.609898026346e-01       2.455095417864e+01 
       2.697284615565e-01       2.135265998564e+01 
       2.787655775689e-01       1.891219783474e+01 
       2.881136588829e-01       1.677038786808e+01 
       2.977863412677e-01       1.423609567824e+01 
       3.077985646929e-01       1.115739859466e+01 
       3.181667794071e-01       7.965180196704e+00 
       3.289091877812e-01       5.298476659762e+00 
       3.400460299658e-01       3.417128227575e+00 
       3.515999236474e-01       2.143813114305e+00 
       3.635962711085e-01       1.223360000322e+00 
       3.760637506334e-01       5.398591280476e-01 
       3.890349143879e-01       1.401818670106e-01 
       4.025469216825e-01       5.045961068613e-03 
       4.166424456376e-01       2.387889041401e-02 
       4.313708035863e-01       1.077989330889e-01 
       4.467893782977e-01       2.215453553460e-01 
       4.629654199664e-01       3.304736679473e-01 
       4.799783501994e-01       3.864056242569e-01 
       4.979227319373e-01       3.819069440769e-01 
       5.169121270864e-01       3.451496118430e-01 
       5.370841404489e-01       2.800558825133e-01 
       5.586070464571e-01       1.950670004483e-01 
       5.816885094930e-01       1.165452179561e-01 
       6.065870144995e-01       5.614406347782e-02 
       6.336266468475e-01       1.771478253496e-02 
       6.632156059511e-01       1.782277477163e-03 
       6.958678639263e-01       8.965793546123e-04 
       7.322247985589e-01       5.849401881758e-03 
       7.730680195114e-01       9.116336126706e-03 
       8.193049553677e-01       7.785595451116e-03 
       8.718988016039e-01       3.895741845103e-03 
       9.317218031082e-01       8.736995443119e-04 
       9.993660908989e-01       5.185202480911e-06 
       1.075037110174e+00       1.272235906248e-04 
       1.158653485707e+00       1.299258483925e-04 
       1.250099157308e+00       2.564949062999e-05 
       1.349432401273e+00       7.411253972274e-07 
       1.456947457397e+00       9.466780320089e-06 
       1.573135111331e+00       5.070635904248e-06 
       1.698621895592e+00       6.595783380238e-07 
       1.834127512934e+00       6.784670436581e-09 
       1.980444934528e+00       1.154679968086e-08 
       2.138435191726e+00       7.069131729763e-08 
       2.309029199186e+00       7.522267219737e-08 
       2.493232377687e+00       4.982853767618e-08 
       2.692130395285e+00       2.079790964373e-08 
       2.906895534573e+00       2.487306334681e-08 
       3.138793597714e+00       2.741673153767e-08 
       3.389191366484e+00       2.925219857739e-09 
       3.659564657905e+00       1.284233224048e-08 
       3.951507022538e+00       2.645616698075e-09 
       4.266739136701e+00       9.754886316064e-10 
       4.607118943941e+00       9.429646528187e-12 
       4.974652605557e+00       1.173963658230e-08 
       5.371506324689e+00       4.323315671700e-09 
       5.800019113685e+00       7.524278004708e-09 
       6.262716579983e+00       8.110552502962e-10 
       6.762325811764e+00       1.596480023936e-08 
       7.301791451110e+00       1.598110483745e-08 
       7.884293049406e+00       5.089961467974e-11 
       8.513263807261e+00       2.327163034331e-08 
       9.192410809424e+00       4.229427147127e-09 
       9.925736873929e+00       1.197138260330e-10 
       1.071756414427e+01       3.050343151038e-09 
       1.157255956364e+01       1.384178976506e-10 
       1.249576238137e+01       3.675493735957e-09 
       1.349261385375e+01       3.480905505577e-10 
       1.456898931416e+01       2.301325524607e-07 
       1.573123280165e+01       1.422026622919e-08 
       1.698619445202e+01       6.063124860805e-12 
       1.834127087176e+01       7.365164506509e-11 
       1.980444873285e+01       2.175350024980e-10 
       2.138435184532e+01       8.423218295317e-10 
       2.309029198506e+01       9.173939983711e-10 
       2.493232377636e+01       5.732973664002e-11 
       2.692130395282e+01       3.042742322200e-12 
       2.906895534573e+01       9.502463162610e-13 
       3.138793597714e+01       1.472963900721e-12 
       3.389191366484e+01       9.099227025459e-12 
       3.659564657905e+01       8.098749502326e-12 
       3.951507022538e+01       2.737155839891e-10 
       4.266739136701e+01       2.304565547448e-10 
       4.607118943941e+01       1.425283722195e-09 
       4.974652605557e+01       8.894746938509e-10 
       5.371506324689e+01       1.646894184475e-10 
       5.800019113685e+01       4.735054970306e-11 
       6.262716579983e+01       8.906048875111e-12 
       6.762325811764e+01       4.745031054029e-11 
       7.301791451110e+01       2.329037876918e-10 
       7.884293049406e+01       1.023150147357e-10 
       8.513263807261e+01       2.561553869762e-10 
       9.192410809424e+01       1.178212103496e-11 
       9.925736873929e+01       1.360834064260e-11 
       1.071756414427e+02       2.713838328528e-12 
       1.157255956364e+02       6.387810079816e-15 
       1.249576238137e+02       3.954795909449e-12 
       1.349261385375e+02       1.435071954829e-11 
