# Matter power spectrum P(k) at redshift z=0
# for k=1.04775e-05 to 134.926 h/Mpc,
# number of wavenumbers equal to 255
#    1:k (h/Mpc)              2:P (Mpc/h)^3        
       1.047750691338e-05       5.020967159207e+01 
       1.131335172818e-05       5.407048690578e+01 
       1.221587619877e-05       5.822820445197e+01 
       1.319039970550e-05       6.270564251739e+01 
       1.424266598317e-05       6.752731675141e+01 
       1.537887697396e-05       7.271976751989e+01 
       1.660572938097e-05       7.831149006560e+01 
       1.793045413791e-05       8.433312037969e+01 
       1.936085902737e-05       9.081779378782e+01 
       2.090537469909e-05       9.780108795513e+01 
       2.257310435923e-05       1.053212808066e+02 
       2.437387742372e-05       1.134197148465e+02 
       2.631830745176e-05       1.221408287345e+02 
       2.841785470091e-05       1.315324499343e+02 
       3.068489367268e-05       1.416461572221e+02 
       3.313278604643e-05       1.525374339448e+02 
       3.577595943165e-05       1.642660442982e+02 
       3.862999240274e-05       1.768963341364e+02 
       4.171170631739e-05       1.904975911904e+02 
       4.503926445983e-05       2.051444206450e+02 
       4.863227909323e-05       2.209171358986e+02 
       5.251192705226e-05       2.379022231633e+02 
       5.670107455699e-05       2.561927821781e+02 
       6.122441198393e-05       2.758890468808e+02 
       6.610859938837e-05       2.970989224980e+02 
       7.138242363583e-05       3.199385564608e+02 
       7.707696806873e-05       3.445329732271e+02 
       8.322579570814e-05       3.710167327342e+02 
       8.986514707061e-05       3.995346462047e+02 
       9.703415376577e-05       4.302425402652e+02 
       1.047750691338e-04       4.633080772559e+02 
       1.131335172818e-04       4.989116280807e+02 
       1.221587619877e-04       5.372471950119e+02 
       1.319039970550e-04       5.785234125968e+02 
       1.424266598317e-04       6.229645934568e+02 
       1.537887697396e-04       6.708118481918e+02 
       1.660572938097e-04       7.223242649438e+02 
       1.793045413791e-04       7.777801541334e+02 
       1.936085902737e-04       8.374783585727e+02 
       2.090537469909e-04       9.017396203919e+02 
       2.257310435923e-04       9.709080169904e+02 
       2.437387742372e-04       1.045352434023e+03 
       2.631830745176e-04       1.125468100301e+03 
       2.841785470091e-04       1.211678146676e+03 
       3.068489367268e-04       1.304435198847e+03 
       3.313278604643e-04       1.404222978692e+03 
       3.577595943165e-04       1.511557909420e+03 
       3.862999240274e-04       1.626990679956e+03 
       4.171170631739e-04       1.751107794711e+03 
       4.503926445983e-04       1.884533042639e+03 
       4.863227909323e-04       2.027928884752e+03 
       5.251192705226e-04       2.181997732270e+03 
       5.670107455699e-04       2.347483061986e+03 
       6.122441198393e-04       2.525170365917e+03 
       6.610859938837e-04       2.715887814141e+03 
       7.138242363583e-04       2.920506537377e+03 
       7.707696806873e-04       3.139940545290e+03 
       8.322579570814e-04       3.375145788149e+03 
       8.986514707061e-04       3.627118407321e+03 
       9.703415376577e-04       3.896891904962e+03 
       1.047750691338e-03       4.185532749017e+03 
       1.131335172818e-03       4.494134631575e+03 
       1.221587619877e-03       4.823811006900e+03 
       1.319039970550e-03       5.175686053849e+03 
       1.424266598317e-03       5.550938400029e+03 
       1.537887697396e-03       5.950672088373e+03 
       1.660572938097e-03       6.375957301982e+03 
       1.793045413791e-03       6.827838289069e+03 
       1.936085902737e-03       7.307291399751e+03 
       2.090537469909e-03       7.815199876841e+03 
       2.257310435923e-03       8.352325258037e+03 
       2.437387742372e-03       8.919276462654e+03 
       2.631830745176e-03       9.516473025023e+03 
       2.841785470091e-03       1.014410651866e+04 
       3.068489367268e-03       1.080209411810e+04 
       3.313278604643e-03       1.149002952404e+04 
       3.577595943165e-03       1.220712504344e+04 
       3.862999240274e-03       1.295214262373e+04 
       4.171170631739e-03       1.372332151311e+04 
       4.503926445983e-03       1.451830138141e+04 
       4.863227909323e-03       1.533401825250e+04 
       5.251192705226e-03       1.616673664760e+04 
       5.670107455699e-03       1.701184035664e+04 
       6.122441198393e-03       1.786359894956e+04 
       6.610859938837e-03       1.871532480483e+04 
       7.138242363583e-03       1.955909650414e+04 
       7.707696806873e-03       2.038562406544e+04 
       8.322579570814e-03       2.118414766731e+04 
       8.986514707061e-03       2.194226766797e+04 
       9.703415376577e-03       2.264573323334e+04 
       1.047750691338e-02       2.327847750775e+04 
       1.131335172818e-02       2.382239407018e+04 
       1.221587619877e-02       2.425722037539e+04 
       1.319039970550e-02       2.456087105812e+04 
       1.424266598317e-02       2.470926835641e+04 
       1.537887697392e-02       2.467716526607e+04 
       1.660572938023e-02       2.443834661953e+04 
       1.793045412706e-02       2.396706630325e+04 
       1.936085890181e-02       2.323979567380e+04 
       2.090537352463e-02       2.223688410528e+04 
       2.257309535333e-02       2.094606007735e+04 
       2.437382002918e-02       1.936571387249e+04 
       2.631799944462e-02       1.750911937715e+04 
       2.841644545389e-02       1.540935064756e+04 
       3.067933355377e-02       1.312354985495e+04 
       3.311368470740e-02       1.073736859193e+04 
       3.571840443502e-02       8.365425607164e+03 
       3.847720348444e-02       6.143492313343e+03 
       4.135335538431e-02       4.205553475965e+03 
       4.429361667738e-02       2.648341504383e+03 
       4.724366439141e-02       1.503635820652e+03 
       5.016480835311e-02       7.397751110677e+02 
       5.303989620246e-02       2.871240812418e+02 
       5.586870669566e-02       6.543110373762e+01 
       5.866042680613e-02       3.899837850220e-01 
       6.142798932958e-02       3.017074506125e+01 
       6.418496440164e-02       1.065815823598e+02 
       6.694418833788e-02       1.942838500951e+02 
       6.971731106057e-02       2.693785764228e+02 
       7.251476155766e-02       3.178890547994e+02 
       7.534587671527e-02       3.342012551947e+02 
       7.821907666265e-02       3.193829984570e+02 
       8.114203772912e-02       2.793865158351e+02 
       8.412184535029e-02       2.231426988639e+02 
       8.716512279304e-02       1.607404695446e+02 
       9.027813695930e-02       1.016526871047e+02 
       9.346688431697e-02       5.329262331899e+01 
       9.673716028276e-02       2.010572070994e+01 
       1.000946150830e-01       3.167703605614e+00 
       1.035447986537e-01       4.578715535643e-01 
       1.070931966762e-01       7.669155812644e+00 
       1.107452594425e-01       1.940892766326e+01 
       1.145064249153e-01       3.051590037970e+01 
       1.183821370918e-01       3.720306679452e+01 
       1.223778605862e-01       3.773971458080e+01 
       1.264990921987e-01       3.255339692541e+01 
       1.307513701367e-01       2.372126397552e+01 
       1.351402814784e-01       1.405865211091e+01 
       1.396714684203e-01       6.114644439803e+00 
       1.443506338194e-01       1.382658360609e+00 
       1.491835465229e-01       1.911707344922e-04 
       1.541760469708e-01       9.767028685907e-01 
       1.593340535561e-01       2.796999758893e+00 
       1.646635702297e-01       4.124575640274e+00 
       1.701706958456e-01       4.292404103280e+00 
       1.758616357459e-01       3.390295751219e+00 
       1.817427160982e-01       2.009266998026e+00 
       1.878204015065e-01       8.026366211304e-01 
       1.941013164283e-01       1.347544497277e-01 
       2.005922709503e-01       7.037362709303e-03 
       2.073002914972e-01       1.606315851679e-01 
       2.142326570816e-01       3.208088148965e-01 
       2.213969417533e-01       3.463613011305e-01 
       2.288010639706e-01       2.454766427358e-01 
       2.364533437147e-01       1.137708391749e-01 
       2.443625682930e-01       2.804860762625e-02 
       2.525380679504e-01       3.869240954414e-04 
       2.609898026346e-01       6.974637317997e-03 
       2.697284615565e-01       1.715237562080e-02 
       2.787655775689e-01       1.813266722464e-02 
       2.881136588829e-01       1.202949399244e-02 
       2.977863412677e-01       4.633698642417e-03 
       3.077985646929e-01       8.300006624989e-04 
       3.181667794071e-01       3.654027687709e-06 
       3.289091877812e-01       3.748813705367e-04 
       3.400460299658e-01       5.928203842697e-04 
       3.515999236474e-01       4.984580822667e-04 
       3.635962711085e-01       1.695004044689e-04 
       3.760637506334e-01       3.669772803301e-05 
       3.890349143879e-01       5.157270553238e-06 
       4.025469216825e-01       2.733722367934e-05 
       4.166424456376e-01       6.176118095972e-05 
       4.313708035863e-01       4.136036827302e-05 
       4.467893782977e-01       1.626820514822e-05 
       4.629654199664e-01       7.596619755388e-07 
       4.799783501994e-01       5.399167381772e-08 
       4.979227319373e-01       4.570962350637e-07 
       5.169121270864e-01       1.089011767119e-08 
       5.370841404489e-01       1.134982969642e-06 
       5.586070464571e-01       7.269439829852e-07 
       5.816885094930e-01       1.932468347099e-06 
       6.065870144995e-01       1.942597485917e-07 
       6.336266468475e-01       4.378242000428e-07 
       6.632156059511e-01       1.515817607819e-06 
       6.958678639263e-01       2.221837305880e-06 
       7.322247985589e-01       4.172507672101e-07 
       7.730680195114e-01       1.211908291814e-06 
       8.193049553677e-01       2.006361243557e-07 
       8.718988016039e-01       5.044155868720e-07 
       9.317218031082e-01       8.138309159851e-08 
       9.993660908989e-01       1.223878275473e-06 
       1.075037110174e+00       2.008100435601e-06 
       1.158653485707e+00       2.546643673313e-06 
       1.250099157308e+00       1.487928072448e-07 
       1.349432401273e+00       1.140009853103e-07 
       1.456947457397e+00       1.304424293636e-06 
       1.573135111331e+00       4.065318246895e-06 
       1.698621895592e+00       8.761754226330e-06 
       1.834127512934e+00       7.234310316000e-09 
       1.980444934528e+00       6.415569996689e-06 
       2.138435191726e+00       9.847931478567e-09 
       2.309029199186e+00       1.894265576738e-06 
       2.493232377687e+00       2.996055453320e-07 
       2.692130395285e+00       7.283660982823e-06 
       2.906895534573e+00       8.155626029790e-07 
       3.138793597714e+00       5.235119397920e-06 
       3.389191366484e+00       4.904174137621e-07 
       3.659564657905e+00       5.335682530185e-06 
       3.951507022538e+00       9.219121419730e-07 
       4.266739136701e+00       1.258556183245e-06 
       4.607118943941e+00       2.887609621236e-08 
       4.974652605557e+00       9.387219225456e-06 
       5.371506324689e+00       1.205687683239e-07 
       5.800019113685e+00       7.308001464019e-08 
       6.262716579983e+00       1.219613578958e-05 
       6.762325811764e+00       4.031584240731e-06 
       7.301791451110e+00       1.664439388610e-06 
       7.884293049406e+00       1.850303647510e-06 
       8.513263807261e+00       1.781601442360e-06 
       9.192410809424e+00       2.075053702161e-06 
       9.925736873929e+00       1.822456689290e-06 
       1.071756414427e+01       1.198378369349e-05 
       1.157255956364e+01       1.049803962528e-06 
       1.249576238137e+01       2.629493518697e-07 
       1.349261385375e+01       4.293936762801e-07 
       1.456898931416e+01       6.881744489337e-06 
       1.573123280165e+01       2.943506475448e-08 
       1.698619445202e+01       1.469209717056e-06 
       1.834127087176e+01       3.728954187793e-07 
       1.980444873285e+01       4.364106891683e-10 
       2.138435184532e+01       2.122405377256e-07 
       2.309029198506e+01       1.381471516909e-08 
       2.493232377636e+01       3.299960175082e-10 
       2.692130395282e+01       3.361228583660e-08 
       2.906895534573e+01       1.552641288079e-08 
       3.138793597714e+01       4.639235011090e-11 
       3.389191366484e+01       1.187248297908e-08 
       3.659564657905e+01       3.132120627384e-09 
       3.951507022538e+01       7.450265603776e-09 
       4.266739136701e+01       2.126605271452e-09 
       4.607118943941e+01       9.769591453426e-10 
       4.974652605557e+01       4.045292633495e-11 
       5.371506324689e+01       2.608615561653e-11 
       5.800019113685e+01       2.818212846614e-09 
       6.262716579983e+01       3.331162298723e-10 
       6.762325811764e+01       3.446101629878e-12 
       7.301791451110e+01       1.481959450176e-09 
       7.884293049406e+01       5.599174032926e-10 
       8.513263807261e+01       2.098589754616e-14 
       9.192410809424e+01       8.974270649032e-12 
       9.925736873929e+01       2.111698116544e-10 
       1.071756414427e+02       1.791169546114e-12 
       1.157255956364e+02       3.631494741574e-11 
       1.249576238137e+02       7.180130837734e-12 
       1.349261385375e+02       1.561742965504e-12 
