# Matter power spectrum P(k) at redshift z=0
# for k=1.04775e-05 to 213.844 h/Mpc,
# number of wavenumbers equal to 261
#    1:k (h/Mpc)              2:P (Mpc/h)^3        
       1.047750691338e-05       5.020964588225e+01 
       1.131335172818e-05       5.407049137287e+01 
       1.221587619877e-05       5.822821111938e+01 
       1.319039970550e-05       6.270561640245e+01 
       1.424266598317e-05       6.752731920081e+01 
       1.537887697396e-05       7.271975427288e+01 
       1.660572938097e-05       7.831146742930e+01 
       1.793045413791e-05       8.433312399773e+01 
       1.936085902737e-05       9.081779199072e+01 
       2.090537469909e-05       9.780106457529e+01 
       2.257310435923e-05       1.053212865020e+02 
       2.437387742372e-05       1.134197281002e+02 
       2.631830745176e-05       1.221408232801e+02 
       2.841785470091e-05       1.315324622366e+02 
       3.068489367268e-05       1.416461655623e+02 
       3.313278604643e-05       1.525374437748e+02 
       3.577595943165e-05       1.642660528906e+02 
       3.862999240274e-05       1.768963433010e+02 
       4.171170631739e-05       1.904975999060e+02 
       4.503926445983e-05       2.051444251403e+02 
       4.863227909323e-05       2.209171407622e+02 
       5.251192705226e-05       2.379022259983e+02 
       5.670107455699e-05       2.561927818413e+02 
       6.122441198393e-05       2.758890478920e+02 
       6.610859938837e-05       2.970989228279e+02 
       7.138242363583e-05       3.199385576972e+02 
       7.707696806873e-05       3.445329728137e+02 
       8.322579570814e-05       3.710167326012e+02 
       8.986514707061e-05       3.995346443701e+02 
       9.703415376577e-05       4.302425395664e+02 
       1.047750691338e-04       4.633080768806e+02 
       1.131335172818e-04       4.989116273267e+02 
       1.221587619877e-04       5.372471942368e+02 
       1.319039970550e-04       5.785234117424e+02 
       1.424266598317e-04       6.229645932293e+02 
       1.537887697396e-04       6.708118483258e+02 
       1.660572938097e-04       7.223242664644e+02 
       1.793045413791e-04       7.777801573804e+02 
       1.936085902737e-04       8.374783627956e+02 
       2.090537469909e-04       9.017396278550e+02 
       2.257310435923e-04       9.709080267009e+02 
       2.437387742372e-04       1.045352449674e+03 
       2.631830745176e-04       1.125468123468e+03 
       2.841785470091e-04       1.211678179138e+03 
       3.068489367268e-04       1.304435245088e+03 
       3.313278604643e-04       1.404223049762e+03 
       3.577595943165e-04       1.511558010796e+03 
       3.862999240274e-04       1.626990825965e+03 
       4.171170631739e-04       1.751108007482e+03 
       4.503926445983e-04       1.884533349075e+03 
       4.863227909323e-04       2.027929326162e+03 
       5.251192705226e-04       2.181998366984e+03 
       5.670107455699e-04       2.347483976411e+03 
       6.122441198393e-04       2.525171683610e+03 
       6.610859938837e-04       2.715889699180e+03 
       7.138242363583e-04       2.920509273368e+03 
       7.707696806873e-04       3.139944484067e+03 
       8.322579570814e-04       3.375151432597e+03 
       8.986514707061e-04       3.627126519122e+03 
       9.703415376577e-04       3.896903515158e+03 
       1.047750691338e-03       4.185549376751e+03 
       1.131335172818e-03       4.494158376740e+03 
       1.221587619877e-03       4.823844873740e+03 
       1.319039970550e-03       5.175734332772e+03 
       1.424266598317e-03       5.551007172733e+03 
       1.537887697396e-03       5.950769857695e+03 
       1.660572938097e-03       6.376095881696e+03 
       1.793045413791e-03       6.828034268165e+03 
       1.936085902737e-03       7.307568061673e+03 
       2.090537469909e-03       7.815589501965e+03 
       2.257310435923e-03       8.352872679008e+03 
       2.437387742372e-03       8.920043759971e+03 
       2.631830745176e-03       9.517546253064e+03 
       2.841785470091e-03       1.014560334022e+04 
       3.068489367268e-03       1.080417645109e+04 
       3.313278604643e-03       1.149291889702e+04 
       3.577595943165e-03       1.221112222877e+04 
       3.862999240274e-03       1.295765556919e+04 
       4.171170631739e-03       1.373090169724e+04 
       4.503926445983e-03       1.452869098636e+04 
       4.863227909323e-03       1.534821165472e+04 
       5.251192705226e-03       1.618605843476e+04 
       5.670107455699e-03       1.703805030363e+04 
       6.122441198393e-03       1.789902541796e+04 
       6.610859938837e-03       1.876302171411e+04 
       7.138242363583e-03       1.962306359202e+04 
       7.707696806873e-03       2.047106402297e+04 
       8.322579570814e-03       2.129776529342e+04 
       8.986514707061e-03       2.209272313196e+04 
       9.703415376577e-03       2.284408295084e+04 
       1.047750691338e-02       2.353869528288e+04 
       1.131335172818e-02       2.416203373621e+04 
       1.221587619877e-02       2.469830322059e+04 
       1.319039970550e-02       2.513043857886e+04 
       1.424266598317e-02       2.544043534407e+04 
       1.537887697392e-02       2.560978336230e+04 
       1.660572938023e-02       2.561982835929e+04 
       1.793045412706e-02       2.545268926797e+04 
       1.936085890181e-02       2.509240210762e+04 
       2.090537352463e-02       2.452615480304e+04 
       2.257309535333e-02       2.374599429826e+04 
       2.437382002918e-02       2.275086685757e+04 
       2.631799944462e-02       2.154813857346e+04 
       2.841644545389e-02       2.015632736254e+04 
       3.067933355377e-02       1.860603652116e+04 
       3.311368470740e-02       1.694223519029e+04 
       3.571840443502e-02       1.522410789217e+04 
       3.847720348444e-02       1.352282278523e+04 
       4.135335538431e-02       1.191244669321e+04 
       4.429361667738e-02       1.045376414616e+04 
       4.724366439141e-02       9.179609408780e+03 
       5.016480835311e-02       8.091446880814e+03 
       5.303989620246e-02       7.169463587663e+03 
       5.586870669566e-02       6.384754255806e+03 
       5.866042680613e-02       5.708223065645e+03 
       6.142798932958e-02       5.114327099433e+03 
       6.418496440164e-02       4.582224696078e+03 
       6.694418833788e-02       4.095755149495e+03 
       6.971731106057e-02       3.642968051989e+03 
       7.251476155766e-02       3.215856308920e+03 
       7.534587671527e-02       2.809779181875e+03 
       7.821907666265e-02       2.423117815464e+03 
       8.114203772912e-02       2.056797937534e+03 
       8.412184535029e-02       1.713607238289e+03 
       8.716512279304e-02       1.397530213577e+03 
       9.027813695930e-02       1.112822312993e+03 
       9.346688431697e-02       8.631486766185e+02 
       9.673716028276e-02       6.508837126552e+02 
       1.000946150830e-01       4.764939425170e+02 
       1.035447986537e-01       3.384082561837e+02 
       1.070931966762e-01       2.331626026494e+02 
       1.107452594425e-01       1.559362297115e+02 
       1.145064249153e-01       1.012561416558e+02 
       1.183821370918e-01       6.367601092186e+01 
       1.223778605862e-01       3.839055893983e+01 
       1.264990921987e-01       2.158900097531e+01 
       1.307513701367e-01       1.057285941339e+01 
       1.351402814784e-01       3.736746302479e+00 
       1.396714684203e-01       3.939336734832e-01 
       1.443506338194e-01       4.858647193630e-01 
       1.491835465229e-01       4.142182705441e+00 
       1.541760469708e-01       1.116033936578e+01 
       1.593340535561e-01       2.057340232903e+01 
       1.646635702297e-01       3.057101269609e+01 
       1.701706958456e-01       3.894421782303e+01 
       1.758616357459e-01       4.389919511181e+01 
       1.817427160982e-01       4.479363337145e+01 
       1.878204015065e-01       4.223346151585e+01 
       1.941013164283e-01       3.779995506650e+01 
       2.005922709503e-01       3.319313964781e+01 
       2.073002914972e-01       2.937688778014e+01 
       2.142326570816e-01       2.642953823438e+01 
       2.213969417533e-01       2.388239701311e+01 
       2.288010639706e-01       2.109008237948e+01 
       2.364533437147e-01       1.752977463429e+01 
       2.443625682930e-01       1.323850452120e+01 
       2.525380679504e-01       8.919197468011e+00 
       2.609898026346e-01       5.366560805300e+00 
       2.697284615565e-01       2.942482989256e+00 
       2.787655775689e-01       1.528085597813e+00 
       2.881136588829e-01       7.477215291319e-01 
       2.977863412677e-01       2.877875066566e-01 
       3.077985646929e-01       4.237054161294e-02 
       3.181667794071e-01       1.653756375647e-02 
       3.289091877812e-01       1.768948653999e-01 
       3.400460299658e-01       3.807432352848e-01 
       3.515999236474e-01       5.090898022421e-01 
       3.635962711085e-01       5.531507934553e-01 
       3.760637506334e-01       5.690586623539e-01 
       3.890349143879e-01       5.598314458838e-01 
       4.025469216825e-01       4.977612452764e-01 
       4.166424456376e-01       3.770651217519e-01 
       4.313708035863e-01       2.478142675900e-01 
       4.467893782977e-01       1.460513696457e-01 
       4.629654199664e-01       7.576431320980e-02 
       4.799783501994e-01       2.847508015254e-02 
       4.979227319373e-01       4.377629085525e-03 
       5.169121270864e-01       1.941495334519e-04 
       5.370841404489e-01       4.906594160809e-03 
       5.586070464571e-01       1.177163233033e-02 
       5.816885094930e-01       1.563537264083e-02 
       6.065870144995e-01       1.452088165538e-02 
       6.336266468475e-01       1.044363093681e-02 
       6.632156059511e-01       5.384968488316e-03 
       6.958678639263e-01       1.706514272927e-03 
       7.322247985589e-01       1.447147902274e-04 
       7.730680195114e-01       7.074975912871e-05 
       8.193049553677e-01       3.014249889131e-04 
       8.718988016039e-01       2.321546468179e-04 
       9.317218031082e-01       4.760357484070e-05 
       9.993660908989e-01       8.532412947119e-07 
       1.075037110174e+00       1.816884898640e-05 
       1.158653485707e+00       1.212265209436e-05 
       1.250099157308e+00       1.538658548995e-06 
       1.349432401273e+00       4.461994996938e-09 
       1.456947457397e+00       5.040939707842e-09 
       1.573135111331e+00       1.188754068322e-07 
       1.698621895592e+00       1.628589334833e-07 
       1.834127512934e+00       6.930074930522e-08 
       1.980444934528e+00       3.075096056614e-08 
       2.138435191726e+00       2.987870744379e-08 
       2.309029199186e+00       3.324081783521e-08 
       2.493232377687e+00       1.820804071284e-08 
       2.692130395285e+00       1.220252857047e-08 
       2.906895534573e+00       1.041547881615e-08 
       3.138793597714e+00       1.064350314213e-09 
       3.389191366484e+00       1.879582129894e-09 
       3.659564657905e+00       1.268327463375e-08 
       3.951507022538e+00       1.181390577657e-09 
       4.266739136701e+00       2.436590279508e-10 
       4.607118943941e+00       9.027130408186e-08 
       4.974652605557e+00       7.664820599566e-12 
       5.371506324689e+00       1.452190584521e-10 
       5.800019113685e+00       2.977215309285e-09 
       6.262716579983e+00       1.285488777304e-07 
       6.762325811764e+00       6.893748373852e-08 
       7.301791451110e+00       6.829022800300e-09 
       7.884293049406e+00       1.679462800220e-09 
       8.513263807261e+00       4.149526149926e-08 
       9.192410809424e+00       1.458038155982e-08 
       9.925736873929e+00       1.315457810916e-07 
       1.071756414427e+01       1.586091344458e-08 
       1.157255956364e+01       2.342139196169e-08 
       1.249576238137e+01       3.212598782015e-09 
       1.349261385375e+01       1.994219111318e-08 
       1.456898931416e+01       1.649895162075e-08 
       1.573123280165e+01       1.248268992428e-08 
       1.698619445202e+01       5.329841703496e-08 
       1.834127087176e+01       5.373894172463e-09 
       1.980444873285e+01       1.277178780838e-08 
       2.138435184532e+01       1.238339265848e-08 
       2.309029198506e+01       2.673153292878e-08 
       2.493232377636e+01       6.735536877397e-09 
       2.692130395282e+01       9.672202151690e-08 
       2.906895534573e+01       9.355810728399e-08 
       3.138793597714e+01       7.670354302320e-10 
       3.389191366484e+01       9.114055761733e-09 
       3.659564657905e+01       1.426014958413e-09 
       3.951507022538e+01       7.880909670427e-10 
       4.266739136701e+01       6.496918866404e-13 
       4.607118943941e+01       6.872727223131e-12 
       4.974652605557e+01       1.066114880023e-11 
       5.371506324689e+01       1.471769890039e-14 
       5.800019113685e+01       1.394669760624e-11 
       6.262716579983e+01       1.306066209028e-10 
       6.762325811764e+01       1.900507439211e-10 
       7.301791451110e+01       1.222524585709e-09 
       7.884293049406e+01       9.722193061285e-09 
       8.513263807261e+01       2.978317589676e-12 
       9.192410809424e+01       4.435482246858e-10 
       9.925736873929e+01       5.099334271239e-10 
       1.071756414427e+02       4.709309834090e-11 
       1.157255956364e+02       5.066747544038e-11 
       1.249576238137e+02       2.238091853935e-09 
       1.349261385375e+02       3.713966355406e-11 
       1.456898931416e+02       2.814424954092e-10 
       1.573123280165e+02       1.353030318886e-09 
       1.698619445202e+02       7.610884983238e-12 
       1.834127087176e+02       3.770552039559e-10 
       1.980444873285e+02       4.145835773740e-12 
       2.138435184532e+02       6.862733264429e-13 
