# Matter power spectrum P(k) at redshift z=0
# for k=1.04775e-05 to 213.844 h/Mpc,
# number of wavenumbers equal to 261
#    1:k (h/Mpc)              2:P (Mpc/h)^3        
       1.047750691338e-05       5.020963906804e+01 
       1.131335172818e-05       5.407048937148e+01 
       1.221587619877e-05       5.822820724029e+01 
       1.319039970550e-05       6.270562047248e+01 
       1.424266598317e-05       6.752731476098e+01 
       1.537887697396e-05       7.271975715395e+01 
       1.660572938097e-05       7.831147101246e+01 
       1.793045413791e-05       8.433312302135e+01 
       1.936085902737e-05       9.081780130646e+01 
       2.090537469909e-05       9.780107449267e+01 
       2.257310435923e-05       1.053212938596e+02 
       2.437387742372e-05       1.134197268468e+02 
       2.631830745176e-05       1.221408285624e+02 
       2.841785470091e-05       1.315324590474e+02 
       3.068489367268e-05       1.416461671358e+02 
       3.313278604643e-05       1.525374478896e+02 
       3.577595943165e-05       1.642660517234e+02 
       3.862999240274e-05       1.768963429378e+02 
       4.171170631739e-05       1.904975997820e+02 
       4.503926445983e-05       2.051444243234e+02 
       4.863227909323e-05       2.209171412049e+02 
       5.251192705226e-05       2.379022266146e+02 
       5.670107455699e-05       2.561927841239e+02 
       6.122441198393e-05       2.758890479577e+02 
       6.610859938837e-05       2.970989213980e+02 
       7.138242363583e-05       3.199385559930e+02 
       7.707696806873e-05       3.445329727006e+02 
       8.322579570814e-05       3.710167324011e+02 
       8.986514707061e-05       3.995346444121e+02 
       9.703415376577e-05       4.302425389349e+02 
       1.047750691338e-04       4.633080773458e+02 
       1.131335172818e-04       4.989116271556e+02 
       1.221587619877e-04       5.372471938794e+02 
       1.319039970550e-04       5.785234116883e+02 
       1.424266598317e-04       6.229645933131e+02 
       1.537887697396e-04       6.708118487511e+02 
       1.660572938097e-04       7.223242657764e+02 
       1.793045413791e-04       7.777801571270e+02 
       1.936085902737e-04       8.374783638365e+02 
       2.090537469909e-04       9.017396276751e+02 
       2.257310435923e-04       9.709080297651e+02 
       2.437387742372e-04       1.045352453376e+03 
       2.631830745176e-04       1.125468127721e+03 
       2.841785470091e-04       1.211678185928e+03 
       3.068489367268e-04       1.304435256065e+03 
       3.313278604643e-04       1.404223062921e+03 
       3.577595943165e-04       1.511558029577e+03 
       3.862999240274e-04       1.626990852555e+03 
       4.171170631739e-04       1.751108045602e+03 
       4.503926445983e-04       1.884533404755e+03 
       4.863227909323e-04       2.027929406956e+03 
       5.251192705226e-04       2.181998483913e+03 
       5.670107455699e-04       2.347484146066e+03 
       6.122441198393e-04       2.525171925196e+03 
       6.610859938837e-04       2.715890054979e+03 
       7.138242363583e-04       2.920509779320e+03 
       7.707696806873e-04       3.139945208051e+03 
       8.322579570814e-04       3.375152477018e+03 
       8.986514707061e-04       3.627128020462e+03 
       9.703415376577e-04       3.896905669505e+03 
       1.047750691338e-03       4.185552452613e+03 
       1.131335172818e-03       4.494162775569e+03 
       1.221587619877e-03       4.823851150590e+03 
       1.319039970550e-03       5.175743278705e+03 
       1.424266598317e-03       5.551020298674e+03 
       1.537887697396e-03       5.950789185422e+03 
       1.660572938097e-03       6.376124150041e+03 
       1.793045413791e-03       6.828075236575e+03 
       1.936085902737e-03       7.307627051036e+03 
       2.090537469909e-03       7.815673959033e+03 
       2.257310435923e-03       8.352992922955e+03 
       2.437387742372e-03       8.920214306314e+03 
       2.631830745176e-03       9.517787166648e+03 
       2.841785470091e-03       1.014594130664e+04 
       3.068489367268e-03       1.080465136469e+04 
       3.313278604643e-03       1.149358239494e+04 
       3.577595943165e-03       1.221204586832e+04 
       3.862999240274e-03       1.295893666457e+04 
       4.171170631739e-03       1.373267338567e+04 
       4.503926445983e-03       1.453113499963e+04 
       4.863227909323e-03       1.535157115214e+04 
       5.251192705226e-03       1.619066155212e+04 
       5.670107455699e-03       1.704433881216e+04 
       6.122441198393e-03       1.790758124922e+04 
       6.610859938837e-03       1.877461996887e+04 
       7.138242363583e-03       1.963874650682e+04 
       7.707696806873e-03       2.049217385510e+04 
       8.322579570814e-03       2.132608015108e+04 
       8.986514707061e-03       2.213056719291e+04 
       9.703415376577e-03       2.289447299266e+04 
       1.047750691338e-02       2.360549528025e+04 
       1.131335172818e-02       2.425024127096e+04 
       1.221587619877e-02       2.481424707124e+04 
       1.319039970550e-02       2.528219966665e+04 
       1.424266598317e-02       2.563815129326e+04 
       1.537887697392e-02       2.586607614041e+04 
       1.660572938023e-02       2.595027125111e+04 
       1.793045412706e-02       2.587635578565e+04 
       1.936085890181e-02       2.563219799969e+04 
       2.090537352463e-02       2.520936141570e+04 
       2.257309535333e-02       2.460445450177e+04 
       2.437382002918e-02       2.382088391618e+04 
       2.631799944462e-02       2.287044890175e+04 
       2.841644545389e-02       2.177449716762e+04 
       3.067933355377e-02       2.056556848348e+04 
       3.311368470740e-02       1.928731536993e+04 
       3.571840443502e-02       1.799402114755e+04 
       3.847720348444e-02       1.674684245716e+04 
       4.135335538431e-02       1.560459766626e+04 
       4.429361667738e-02       1.461037886392e+04 
       4.724366439141e-02       1.378055941559e+04 
       5.016480835311e-02       1.310505543292e+04 
       5.303989620246e-02       1.255718135237e+04 
       5.586870669566e-02       1.210424383864e+04 
       5.866042680613e-02       1.171465407318e+04 
       6.142798932958e-02       1.136047166387e+04 
       6.418496440164e-02       1.101855236750e+04 
       6.694418833788e-02       1.067067441806e+04 
       6.971731106057e-02       1.030357816537e+04 
       7.251476155766e-02       9.909010572001e+03 
       7.534587671527e-02       9.483730928004e+03 
       7.821907666265e-02       9.029495855866e+03 
       8.114203772912e-02       8.552309663194e+03 
       8.412184535029e-02       8.061893104640e+03 
       8.716512279304e-02       7.570757576453e+03 
       9.027813695930e-02       7.092485105590e+03 
       9.346688431697e-02       6.640519206585e+03 
       9.673716028276e-02       6.226704699998e+03 
       1.000946150830e-01       5.859930014109e+03 
       1.035447986537e-01       5.545266109439e+03 
       1.070931966762e-01       5.283139666427e+03 
       1.107452594425e-01       5.069425648906e+03 
       1.145064249153e-01       4.895252197982e+03 
       1.183821370918e-01       4.747839857464e+03 
       1.223778605862e-01       4.611720665037e+03 
       1.264990921987e-01       4.470607060494e+03 
       1.307513701367e-01       4.310251061890e+03 
       1.351402814784e-01       4.121371345392e+03 
       1.396714684203e-01       3.902059291465e+03 
       1.443506338194e-01       3.658647294393e+03 
       1.491835465229e-01       3.404487780895e+03 
       1.541760469708e-01       3.156654545303e+03 
       1.593340535561e-01       2.931945541684e+03 
       1.646635702297e-01       2.742360527678e+03 
       1.701706958456e-01       2.592239789915e+03 
       1.758616357459e-01       2.477225907947e+03 
       1.817427160982e-01       2.385167137082e+03 
       1.878204015065e-01       2.300351065434e+03 
       1.941013164283e-01       2.205742299540e+03 
       2.005922709503e-01       2.090807411810e+03 
       2.073002914972e-01       1.956449863263e+03 
       2.142326570816e-01       1.814177722117e+03 
       2.213969417533e-01       1.679273931930e+03 
       2.288010639706e-01       1.563828518431e+03 
       2.364533437147e-01       1.472668781784e+03 
       2.443625682930e-01       1.401506184994e+03 
       2.525380679504e-01       1.338398973024e+03 
       2.609898026346e-01       1.270887923368e+03 
       2.697284615565e-01       1.193370964175e+03 
       2.787655775689e-01       1.109325594920e+03 
       2.881136588829e-01       1.028754258307e+03 
       2.977863412677e-01       9.604658870423e+02 
       3.077985646929e-01       9.050078643820e+02 
       3.181667794071e-01       8.561304454687e+02 
       3.289091877812e-01       8.061724766759e+02 
       3.400460299658e-01       7.523761590627e+02 
       3.515999236474e-01       6.989081434020e+02 
       3.635962711085e-01       6.510477993619e+02 
       3.760637506334e-01       6.101076159649e+02 
       3.890349143879e-01       5.721181897177e+02 
       4.025469216825e-01       5.337684820634e+02 
       4.166424456376e-01       4.956182798026e+02 
       4.313708035863e-01       4.604546100711e+02 
       4.467893782977e-01       4.287627562905e+02 
       4.629654199664e-01       3.987590240962e+02 
       4.799783501994e-01       3.692287601369e+02 
       4.979227319373e-01       3.412266137892e+02 
       5.169121270864e-01       3.154707967038e+02 
       5.370841404489e-01       2.908235866352e+02 
       5.586070464571e-01       2.670931844530e+02 
       5.816885094930e-01       2.447975519838e+02 
       6.065870144995e-01       2.235558265412e+02 
       6.336266468475e-01       2.031985300180e+02 
       6.632156059511e-01       1.838669854058e+02 
       6.958678639263e-01       1.653437226658e+02 
       7.322247985589e-01       1.476850727972e+02 
       7.730680195114e-01       1.308235387103e+02 
       8.193049553677e-01       1.148212528294e+02 
       8.718988016039e-01       9.975290924973e+01 
       9.317218031082e-01       8.576847281071e+01 
       9.993660908989e-01       7.304592251009e+01 
       1.075037110174e+00       6.172743511992e+01 
       1.158653485707e+00       5.187084401486e+01 
       1.250099157308e+00       4.343252408902e+01 
       1.349432401273e+00       3.628214349061e+01 
       1.456947457397e+00       3.026126943119e+01 
       1.573135111331e+00       2.520805258091e+01 
       1.698621895592e+00       2.097588373809e+01 
       1.834127512934e+00       1.743665397776e+01 
       1.980444934528e+00       1.448020822412e+01 
       2.138435191726e+00       1.201385641312e+01 
       2.309029199186e+00       9.958423698650e+00 
       2.493232377687e+00       8.247361815215e+00 
       2.692130395285e+00       6.824452449996e+00 
       2.906895534573e+00       5.642358346533e+00 
       3.138793597714e+00       4.661255524211e+00 
       3.389191366484e+00       3.847719966718e+00 
       3.659564657905e+00       3.173786069685e+00 
       3.951507022538e+00       2.615938309588e+00 
       4.266739136701e+00       2.154635698677e+00 
       4.607118943941e+00       1.773406335302e+00 
       4.974652605557e+00       1.458645245483e+00 
       5.371506324689e+00       1.198958047794e+00 
       5.800019113685e+00       9.848607296248e-01 
       6.262716579983e+00       8.084835794529e-01 
       6.762325811764e+00       6.632807016217e-01 
       7.301791451110e+00       5.438251682048e-01 
       7.884293049406e+00       4.456176514840e-01 
       8.513263807261e+00       3.649306743953e-01 
       9.192410809424e+00       2.986801659286e-01 
       9.925736873929e+00       2.443188414253e-01 
       1.071756414427e+01       1.997363387682e-01 
       1.157255956364e+01       1.631984439662e-01 
       1.249576238137e+01       1.332678920569e-01 
       1.349261385375e+01       1.087658684299e-01 
       1.456898931416e+01       8.871891115255e-02 
       1.573123280165e+01       7.232630213025e-02 
       1.698619445202e+01       5.892846175801e-02 
       1.834127087176e+01       4.798351933719e-02 
       1.980444873285e+01       3.904870380265e-02 
       2.138435184532e+01       3.175816005338e-02 
       2.309029198506e+01       2.581213115736e-02 
       2.493232377636e+01       2.096548426349e-02 
       2.692130395282e+01       1.701740198806e-02 
       2.906895534573e+01       1.380244222002e-02 
       3.138793597714e+01       1.118666591494e-02 
       3.389191366484e+01       9.059158786973e-03 
       3.659564657905e+01       7.329894986512e-03 
       3.951507022538e+01       5.925178246953e-03 
       4.266739136701e+01       4.784900179049e-03 
       4.607118943941e+01       3.859737576816e-03 
       4.974652605557e+01       3.109770021098e-03 
       5.371506324689e+01       2.502290957934e-03 
       5.800019113685e+01       2.010494081185e-03 
       6.262716579983e+01       1.612894161153e-03 
       6.762325811764e+01       1.291634475419e-03 
       7.301791451110e+01       1.032330611838e-03 
       7.884293049406e+01       8.232896480563e-04 
       8.513263807261e+01       6.550004225103e-04 
       9.192410809424e+01       5.197041844110e-04 
       9.925736873929e+01       4.110873220758e-04 
       1.071756414427e+02       3.240625302681e-04 
       1.157255956364e+02       2.544857394310e-04 
       1.249576238137e+02       1.989841262923e-04 
       1.349261385375e+02       1.548275066572e-04 
       1.456898931416e+02       1.197996714022e-04 
       1.573123280165e+02       9.213693158132e-05 
       1.698619445202e+02       7.035752883563e-05 
       1.834127087176e+02       5.329739518662e-05 
       1.980444873285e+02       4.001225962162e-05 
       2.138435184532e+02       2.973162286312e-05 
