# Matter power spectrum P(k) at redshift z=0
# for k=1.04775e-05 to 213.844 h/Mpc,
# number of wavenumbers equal to 261
#    1:k (h/Mpc)              2:P (Mpc/h)^3        
       1.047750691338e-05       5.020963906804e+01 
       1.131335172818e-05       5.407048937153e+01 
       1.221587619877e-05       5.822820724030e+01 
       1.319039970550e-05       6.270562047283e+01 
       1.424266598317e-05       6.752731476099e+01 
       1.537887697396e-05       7.271975715396e+01 
       1.660572938097e-05       7.831147101243e+01 
       1.793045413791e-05       8.433312302133e+01 
       1.936085902737e-05       9.081780130647e+01 
       2.090537469909e-05       9.780107453665e+01 
       2.257310435923e-05       1.053212938596e+02 
       2.437387742372e-05       1.134197268469e+02 
       2.631830745176e-05       1.221408285644e+02 
       2.841785470091e-05       1.315324590474e+02 
       3.068489367268e-05       1.416461671253e+02 
       3.313278604643e-05       1.525374479408e+02 
       3.577595943165e-05       1.642660516739e+02 
       3.862999240274e-05       1.768963429325e+02 
       4.171170631739e-05       1.904975997812e+02 
       4.503926445983e-05       2.051444243234e+02 
       4.863227909323e-05       2.209171412046e+02 
       5.251192705226e-05       2.379022266164e+02 
       5.670107455699e-05       2.561927841262e+02 
       6.122441198393e-05       2.758890480680e+02 
       6.610859938837e-05       2.970989214025e+02 
       7.138242363583e-05       3.199385559930e+02 
       7.707696806873e-05       3.445329727005e+02 
       8.322579570814e-05       3.710167323997e+02 
       8.986514707061e-05       3.995346444128e+02 
       9.703415376577e-05       4.302425389349e+02 
       1.047750691338e-04       4.633080773457e+02 
       1.131335172818e-04       4.989116273833e+02 
       1.221587619877e-04       5.372471938791e+02 
       1.319039970550e-04       5.785234116823e+02 
       1.424266598317e-04       6.229645933167e+02 
       1.537887697396e-04       6.708118487495e+02 
       1.660572938097e-04       7.223242657749e+02 
       1.793045413791e-04       7.777801571201e+02 
       1.936085902737e-04       8.374783638364e+02 
       2.090537469909e-04       9.017396276632e+02 
       2.257310435923e-04       9.709080297651e+02 
       2.437387742372e-04       1.045352453375e+03 
       2.631830745176e-04       1.125468127721e+03 
       2.841785470091e-04       1.211678185928e+03 
       3.068489367268e-04       1.304435256065e+03 
       3.313278604643e-04       1.404223062922e+03 
       3.577595943165e-04       1.511558029577e+03 
       3.862999240274e-04       1.626990852555e+03 
       4.171170631739e-04       1.751108045602e+03 
       4.503926445983e-04       1.884533404754e+03 
       4.863227909323e-04       2.027929406956e+03 
       5.251192705226e-04       2.181998483912e+03 
       5.670107455699e-04       2.347484146066e+03 
       6.122441198393e-04       2.525171925194e+03 
       6.610859938837e-04       2.715890054976e+03 
       7.138242363583e-04       2.920509779317e+03 
       7.707696806873e-04       3.139945208045e+03 
       8.322579570814e-04       3.375152477009e+03 
       8.986514707061e-04       3.627128020449e+03 
       9.703415376577e-04       3.896905669492e+03 
       1.047750691338e-03       4.185552452587e+03 
       1.131335172818e-03       4.494162775531e+03 
       1.221587619877e-03       4.823851150536e+03 
       1.319039970550e-03       5.175743278628e+03 
       1.424266598317e-03       5.551020298561e+03 
       1.537887697396e-03       5.950789185254e+03 
       1.660572938097e-03       6.376124149795e+03 
       1.793045413791e-03       6.828075236214e+03 
       1.936085902737e-03       7.307627050514e+03 
       2.090537469909e-03       7.815673958279e+03 
       2.257310435923e-03       8.352992921872e+03 
       2.437387742372e-03       8.920214304739e+03 
       2.631830745176e-03       9.517787164446e+03 
       2.841785470091e-03       1.014594130352e+04 
       3.068489367268e-03       1.080465136028e+04 
       3.313278604643e-03       1.149358238874e+04 
       3.577595943165e-03       1.221204585965e+04 
       3.862999240274e-03       1.295893665247e+04 
       4.171170631739e-03       1.373267336886e+04 
       4.503926445983e-03       1.453113497633e+04 
       4.863227909323e-03       1.535157111921e+04 
       5.251192705226e-03       1.619066150339e+04 
       5.670107455699e-03       1.704433875136e+04 
       6.122441198393e-03       1.790758116927e+04 
       6.610859938837e-03       1.877462058228e+04 
       7.138242363583e-03       1.963874659367e+04 
       7.707696806873e-03       2.049217355669e+04 
       8.322579570814e-03       2.132608699552e+04 
       8.986514707061e-03       2.213056859045e+04 
       9.703415376577e-03       2.289447291178e+04 
       1.047750691338e-02       2.360549466054e+04 
       1.131335172818e-02       2.425024082055e+04 
       1.221587619877e-02       2.481424599079e+04 
       1.319039970550e-02       2.528219839563e+04 
       1.424266598317e-02       2.563814927192e+04 
       1.537887697392e-02       2.586607347352e+04 
       1.660572938023e-02       2.595026747227e+04 
       1.793045412706e-02       2.587635139481e+04 
       1.936085890181e-02       2.563219169820e+04 
       2.090537352463e-02       2.520935588148e+04 
       2.257309535333e-02       2.460444574543e+04 
       2.437382002918e-02       2.382088116990e+04 
       2.631799944462e-02       2.287043534280e+04 
       2.841644545389e-02       2.177448114188e+04 
       3.067933355377e-02       2.056554800284e+04 
       3.311368470740e-02       1.928726736179e+04 
       3.571840443502e-02       1.799399156930e+04 
       3.847720348444e-02       1.674681293051e+04 
       4.135335538431e-02       1.560455678459e+04 
       4.429361667738e-02       1.461033241235e+04 
       4.724366439141e-02       1.378050709193e+04 
       5.016480835311e-02       1.310499706729e+04 
       5.303989620246e-02       1.255711724103e+04 
       5.586870669566e-02       1.210416736792e+04 
       5.866042680613e-02       1.171457973556e+04 
       6.142798932958e-02       1.136039178408e+04 
       6.418496440164e-02       1.101846815944e+04 
       6.694418833788e-02       1.067060662717e+04 
       6.971731106057e-02       1.030346926868e+04 
       7.251476155766e-02       9.908915503187e+03 
       7.534587671527e-02       9.483633428770e+03 
       7.821907666265e-02       9.029396022027e+03 
       8.114203772912e-02       8.552206719866e+03 
       8.412184535029e-02       8.061787055772e+03 
       8.716512279304e-02       7.570654030955e+03 
       9.027813695930e-02       7.092378635298e+03 
       9.346688431697e-02       6.640408406465e+03 
       9.673716028276e-02       6.226592651964e+03 
       1.000946150830e-01       5.859815566496e+03 
       1.035447986537e-01       5.545152727031e+03 
       1.070931966762e-01       5.283019639253e+03 
       1.107452594425e-01       5.069302412794e+03 
       1.145064249153e-01       4.895124319604e+03 
       1.183821370918e-01       4.747708900082e+03 
       1.223778605862e-01       4.611585783693e+03 
       1.264990921987e-01       4.470458045016e+03 
       1.307513701367e-01       4.310111277636e+03 
       1.351402814784e-01       4.121229155385e+03 
       1.396714684203e-01       3.901915554002e+03 
       1.443506338194e-01       3.658503715708e+03 
       1.491835465229e-01       3.404343207978e+03 
       1.541760469708e-01       3.156524617859e+03 
       1.593340535561e-01       2.931802922755e+03 
       1.646635702297e-01       2.742217444740e+03 
       1.701706958456e-01       2.592094694589e+03 
       1.758616357459e-01       2.477079034229e+03 
       1.817427160982e-01       2.385017289778e+03 
       1.878204015065e-01       2.300199258801e+03 
       1.941013164283e-01       2.205588853203e+03 
       2.005922709503e-01       2.090653647646e+03 
       2.073002914972e-01       1.956295518228e+03 
       2.142326570816e-01       1.814025326712e+03 
       2.213969417533e-01       1.679117955207e+03 
       2.288010639706e-01       1.563678395963e+03 
       2.364533437147e-01       1.472517985429e+03 
       2.443625682930e-01       1.401354337096e+03 
       2.525380679504e-01       1.338246181223e+03 
       2.609898026346e-01       1.270735148486e+03 
       2.697284615565e-01       1.193216256779e+03 
       2.787655775689e-01       1.109174005433e+03 
       2.881136588829e-01       1.028604502906e+03 
       2.977863412677e-01       9.603168449410e+02 
       3.077985646929e-01       9.048598914605e+02 
       3.181667794071e-01       8.559816410040e+02 
       3.289091877812e-01       8.060249220468e+02 
       3.400460299658e-01       7.522301514367e+02 
       3.515999236474e-01       6.987625382440e+02 
       3.635962711085e-01       6.509059114243e+02 
       3.760637506334e-01       6.099639354713e+02 
       3.890349143879e-01       5.719757523779e+02 
       4.025469216825e-01       5.336274024366e+02 
       4.166424456376e-01       4.954790684918e+02 
       4.313708035863e-01       4.603166481191e+02 
       4.467893782977e-01       4.286265381121e+02 
       4.629654199664e-01       3.986242387008e+02 
       4.799783501994e-01       3.690951321794e+02 
       4.979227319373e-01       3.410947972507e+02 
       5.169121270864e-01       3.153406584906e+02 
       5.370841404489e-01       2.906948283145e+02 
       5.586070464571e-01       2.669668766173e+02 
       5.816885094930e-01       2.446733616474e+02 
       6.065870144995e-01       2.234337527359e+02 
       6.336266468475e-01       2.030786722034e+02 
       6.632156059511e-01       1.837495212942e+02 
       6.958678639263e-01       1.652287660948e+02 
       7.322247985589e-01       1.475727959034e+02 
       7.730680195114e-01       1.307141730005e+02 
       8.193049553677e-01       1.147149207632e+02 
       8.718988016039e-01       9.964998030446e+01 
       9.317218031082e-01       8.566906664972e+01 
       9.993660908989e-01       7.295005929004e+01 
       1.075037110174e+00       6.163539130599e+01 
       1.158653485707e+00       5.178265322133e+01 
       1.250099157308e+00       4.334815808465e+01 
       1.349432401273e+00       3.620144619240e+01 
       1.456947457397e+00       3.018397764417e+01 
       1.573135111331e+00       2.513457285562e+01 
       1.698621895592e+00       2.090564356274e+01 
       1.834127512934e+00       1.737010093904e+01 
       1.980444934528e+00       1.441675597746e+01 
       2.138435191726e+00       1.195339651060e+01 
       2.309029199186e+00       9.900956163343e+00 
       2.493232377687e+00       8.192790988587e+00 
       2.692130395285e+00       6.772639582343e+00 
       2.906895534573e+00       5.593154191595e+00 
       3.138793597714e+00       4.614582474565e+00 
       3.389191366484e+00       3.803458851393e+00 
       3.659564657905e+00       3.131837086520e+00 
       3.951507022538e+00       2.576199715943e+00 
       4.266739136701e+00       2.116984810528e+00 
       4.607118943941e+00       1.737780192696e+00 
       4.974652605557e+00       1.424939898215e+00 
       5.371506324689e+00       1.167088400193e+00 
       5.800019113685e+00       9.547476497498e-01 
       6.262716579983e+00       7.800478446382e-01 
       6.762325811764e+00       6.364462682107e-01 
       7.301791451110e+00       5.185224066338e-01 
       7.884293049406e+00       4.217747165920e-01 
       8.513263807261e+00       3.424898715230e-01 
       9.192410809424e+00       2.775748385187e-01 
       9.925736873929e+00       2.244943651506e-01 
       1.071756414427e+01       1.811376147561e-01 
       1.157255956364e+01       1.457756189751e-01 
       1.249576238137e+01       1.169720299366e-01 
       1.349261385375e+01       9.355012339065e-02 
       1.456898931416e+01       7.453961434333e-02 
       1.573123280165e+01       5.914075064796e-02 
       1.698619445202e+01       4.669775669906e-02 
       1.834127087176e+01       3.667026152642e-02 
       1.980444873285e+01       2.861448474509e-02 
       2.138435184532e+01       2.216762942395e-02 
       2.309029198506e+01       1.703045959440e-02 
       2.493232377636e+01       1.295758443389e-02 
       2.692130395282e+01       9.748868583020e-03 
       2.906895534573e+01       7.239134308733e-03 
       3.138793597714e+01       5.293308208724e-03 
       3.389191366484e+01       3.800216048958e-03 
       3.659564657905e+01       2.669537310981e-03 
       3.951507022538e+01       1.826241417734e-03 
       4.266739136701e+01       1.209362754504e-03 
       4.607118943941e+01       7.687254997537e-04 
       4.974652605557e+01       4.633640159115e-04 
       5.371506324689e+01       2.599999853074e-04 
       5.800019113685e+01       1.316165574160e-04 
       6.262716579983e+01       5.661159705095e-05 
       6.762325811764e+01       1.794513529597e-05 
       7.301791451110e+01       2.448335404689e-06 
       7.884293049406e+01       2.864024052556e-07 
       8.513263807261e+01       4.450595839445e-06 
       9.192410809424e+01       1.028845210496e-05 
       9.925736873929e+01       1.507006080864e-05 
       1.071756414427e+02       1.754528728761e-05 
       1.157255956364e+02       1.753290273372e-05 
       1.249576238137e+02       1.551965719973e-05 
       1.349261385375e+02       1.231161113439e-05 
       1.456898931416e+02       8.747520846023e-06 
       1.573123280165e+02       5.504265976714e-06 
       1.698619445202e+02       2.988241711570e-06 
       1.834127087176e+02       1.326423424510e-06 
       1.980444873285e+02       4.241315268347e-07 
       2.138435184532e+02       6.356615543333e-08 
