# Matter power spectrum P(k) at redshift z=99
# for k=1.04775e-05 to 134.926 h/Mpc,
# number of wavenumbers equal to 255
#    1:k (h/Mpc)              2:P (Mpc/h)^3        
       1.047750691338e-05       7.261963673468e-03 
       1.131335172818e-05       7.820371539419e-03 
       1.221587619877e-05       8.421717893380e-03 
       1.319039970550e-05       9.069303351906e-03 
       1.424266598317e-05       9.766685600649e-03 
       1.537887697396e-05       1.051769273453e-02 
       1.660572938097e-05       1.132644794647e-02 
       1.793045413791e-05       1.219739356555e-02 
       1.936085902737e-05       1.313530773361e-02 
       2.090537469909e-05       1.414534257041e-02 
       2.257310435923e-05       1.523304208160e-02 
       2.437387742372e-05       1.640437905061e-02 
       2.631830745176e-05       1.766578490634e-02 
       2.841785470091e-05       1.902418273325e-02 
       3.068489367268e-05       2.048703262896e-02 
       3.313278604643e-05       2.206236482963e-02 
       3.577595943165e-05       2.375882694584e-02 
       3.862999240274e-05       2.558573434637e-02 
       4.171170631739e-05       2.755311455947e-02 
       4.503926445983e-05       2.967176820570e-02 
       4.863227909323e-05       3.195332486614e-02 
       5.251192705226e-05       3.441030824860e-02 
       5.670107455699e-05       3.705620446062e-02 
       6.122441198393e-05       3.990553580284e-02 
       6.610859938837e-05       4.297393879475e-02 
       7.138242363583e-05       4.627825423237e-02 
       7.707696806873e-05       4.983661286449e-02 
       8.322579570814e-05       5.366853806720e-02 
       8.986514707061e-05       5.779505412579e-02 
       9.703415376577e-05       6.223879514151e-02 
       1.047750691338e-04       6.702413470537e-02 
       1.131335172818e-04       7.217731182729e-02 
       1.221587619877e-04       7.772658006692e-02 
       1.319039970550e-04       8.370235278660e-02 
       1.424266598317e-04       9.013737612826e-02 
       1.537887697396e-04       9.706689693966e-02 
       1.660572938097e-04       1.045288571767e-01 
       1.793045413791e-04       1.125640946767e-01 
       1.936085902737e-04       1.212165635420e-01 
       2.090537469909e-04       1.305335605782e-01 
       2.257310435923e-04       1.405659804570e-01 
       2.437387742372e-04       1.513685783632e-01 
       2.631830745176e-04       1.630002537785e-01 
       2.841785470091e-04       1.755243537839e-01 
       3.068489367268e-04       1.890089932612e-01 
       3.313278604643e-04       2.035273936143e-01 
       3.577595943165e-04       2.191582451126e-01 
       3.862999240274e-04       2.359860850059e-01 
       4.171170631739e-04       2.541016936236e-01 
       4.503926445983e-04       2.736025121109e-01 
       4.863227909323e-04       2.945930718506e-01 
       5.251192705226e-04       3.171854346320e-01 
       5.670107455699e-04       3.414996544549e-01 
       6.122441198393e-04       3.676642143083e-01 
       6.610859938837e-04       3.958164966801e-01 
       7.138242363583e-04       4.261031960593e-01 
       7.707696806873e-04       4.586807417922e-01 
       8.322579570814e-04       4.937156490144e-01 
       8.986514707061e-04       5.313848069660e-01 
       9.703415376577e-04       5.718756867863e-01 
       1.047750691338e-03       6.153863935661e-01 
       1.131335172818e-03       6.621255633580e-01 
       1.221587619877e-03       7.123120284057e-01 
       1.319039970550e-03       7.661741730513e-01 
       1.424266598317e-03       8.239566137660e-01 
       1.537887697396e-03       8.859028359958e-01 
       1.660572938097e-03       9.522600516433e-01 
       1.793045413791e-03       1.023280598926e+00 
       1.936085902737e-03       1.099215690046e+00 
       2.090537469909e-03       1.180310768769e+00 
       2.257310435923e-03       1.266799648586e+00 
       2.437387742372e-03       1.358897283912e+00 
       2.631830745176e-03       1.456790880629e+00 
       2.841785470091e-03       1.560629317406e+00 
       3.068489367268e-03       1.670510659098e+00 
       3.313278604643e-03       1.786467850778e+00 
       3.577595943165e-03       1.908452658731e+00 
       3.862999240274e-03       2.036318156224e+00 
       4.171170631739e-03       2.169800550109e+00 
       4.503926445983e-03       2.308500968427e+00 
       4.863227909323e-03       2.451868666351e+00 
       5.251192705226e-03       2.599187641787e+00 
       5.670107455699e-03       2.749565834778e+00 
       6.122441198393e-03       2.901936378043e+00 
       6.610859938837e-03       3.055058734241e+00 
       7.138242363583e-03       3.207532197618e+00 
       7.707696806873e-03       3.357812455976e+00 
       8.322579570814e-03       3.504231422002e+00 
       8.986514707061e-03       3.645007594300e+00 
       9.703415376577e-03       3.778248450210e+00 
       1.047750691338e-02       3.901930221273e+00 
       1.131335172818e-02       4.013865927858e+00 
       1.221587619877e-02       4.111665633014e+00 
       1.319039970550e-02       4.192717484997e+00 
       1.424266598317e-02       4.254211705747e+00 
       1.537887697392e-02       4.293237828285e+00 
       1.660572938023e-02       4.306937369045e+00 
       1.793045412706e-02       4.292688103816e+00 
       1.936085890181e-02       4.248263313061e+00 
       2.090537352463e-02       4.172025810252e+00 
       2.257309535333e-02       4.063108703696e+00 
       2.437382002918e-02       3.921738435184e+00 
       2.631799944462e-02       3.749553647476e+00 
       2.841644545389e-02       3.549893819078e+00 
       3.067933355377e-02       3.327980010876e+00 
       3.311368470740e-02       3.090999850212e+00 
       3.571840443502e-02       2.848157608283e+00 
       3.847720348444e-02       2.610072366305e+00 
       4.135335538431e-02       2.387342195103e+00 
       4.429361667738e-02       2.188159455048e+00 
       4.724366439141e-02       2.016292561023e+00 
       5.016480835311e-02       1.870956635966e+00 
       5.303989620246e-02       1.748307874382e+00 
       5.586870669566e-02       1.643211783701e+00 
       5.866042680613e-02       1.550692771134e+00 
       6.142798932958e-02       1.466351144100e+00 
       6.418496440164e-02       1.386563353748e+00 
       6.694418833788e-02       1.308486519383e+00 
       6.971731106057e-02       1.230075572231e+00 
       7.251476155766e-02       1.150034119723e+00 
       7.534587671527e-02       1.067819158974e+00 
       7.821907666265e-02       9.835806891970e-01 
       8.114203772912e-02       8.980928692981e-01 
       8.412184535029e-02       8.126274567991e-01 
       8.716512279304e-02       7.287920819282e-01 
       9.027813695930e-02       6.483283662691e-01 
       9.346688431697e-02       5.729038007043e-01 
       9.673716028276e-02       5.039073019589e-01 
       1.000946150830e-01       4.422961210135e-01 
       1.035447986537e-01       3.885008927338e-01 
       1.070931966762e-01       3.424087373839e-01 
       1.107452594425e-01       3.033986882089e-01 
       1.145064249153e-01       2.704376617039e-01 
       1.183821370918e-01       2.422034077684e-01 
       1.223778605862e-01       2.172272569583e-01 
       1.264990921987e-01       1.940849936423e-01 
       1.307513701367e-01       1.715948847361e-01 
       1.351402814784e-01       1.490212836340e-01 
       1.396714684203e-01       1.262282381267e-01 
       1.443506338194e-01       1.036863966582e-01 
       1.491835465229e-01       8.231779066477e-02 
       1.541760469708e-01       6.317675372499e-02 
       1.593340535561e-01       4.710232995126e-02 
       1.646635702297e-01       3.446188604726e-02 
       1.701706958456e-01       2.508471791280e-02 
       1.758616357459e-01       1.839434725323e-02 
       1.817427160982e-01       1.363237006081e-02 
       1.878204015065e-01       1.009072243807e-02 
       1.941013164283e-01       7.193417439612e-03 
       2.005922709503e-01       4.649703806832e-03 
       2.073002914972e-01       2.495386323279e-03 
       2.142326570816e-01       9.479886646850e-04 
       2.213969417533e-01       1.494811019684e-04 
       2.288010639706e-01       1.614721703596e-05 
       2.364533437147e-01       2.776081281158e-04 
       2.443625682930e-01       6.498924668749e-04 
       2.525380679504e-01       9.998480419095e-04 
       2.609898026346e-01       1.350898321783e-03 
       2.697284615565e-01       1.778143114757e-03 
       2.787655775689e-01       2.312568187950e-03 
       2.881136588829e-01       2.863092159050e-03 
       2.977863412677e-01       3.244350449653e-03 
       3.077985646929e-01       3.346377179112e-03 
       3.181667794071e-01       3.218056969815e-03 
       3.289091877812e-01       3.009598281912e-03 
       3.400460299658e-01       2.827557580482e-03 
       3.515999236474e-01       2.647790269806e-03 
       3.635962711085e-01       2.393060383843e-03 
       3.760637506334e-01       2.029627854800e-03 
       3.890349143879e-01       1.631454937666e-03 
       4.025469216825e-01       1.276082425799e-03 
       4.166424456376e-01       9.805263674861e-04 
       4.313708035863e-01       7.165968864418e-04 
       4.467893782977e-01       4.801230973691e-04 
       4.629654199664e-01       2.908433746241e-04 
       4.799783501994e-01       1.595275981925e-04 
       4.979227319373e-01       7.411299702643e-05 
       5.169121270864e-01       2.303772753924e-05 
       5.370841404489e-01       2.100636183301e-06 
       5.586070464571e-01       1.604359853777e-06 
       5.816885094930e-01       1.186940993144e-05 
       6.065870144995e-01       2.522327517359e-05 
       6.336266468475e-01       3.507151891914e-05 
       6.632156059511e-01       3.866470691478e-05 
       6.958678639263e-01       3.491192638174e-05 
       7.322247985589e-01       2.596574430825e-05 
       7.730680195114e-01       1.512312448727e-05 
       8.193049553677e-01       6.147333838144e-06 
       8.718988016039e-01       1.187592385912e-06 
       9.317218031082e-01       1.258264355928e-09 
       9.993660908989e-01       5.047487921546e-07 
       1.075037110174e+00       8.117801654272e-07 
       1.158653485707e+00       5.198035040133e-07 
       1.250099157308e+00       1.445159878061e-07 
       1.349432401273e+00       6.045245455183e-09 
       1.456947457397e+00       7.252137703422e-09 
       1.573135111331e+00       1.207548660107e-08 
       1.698621895592e+00       3.489183020359e-09 
       1.834127512934e+00       5.204402433115e-12 
       1.980444934528e+00       6.181715451837e-10 
       2.138435191726e+00       5.282751367684e-10 
       2.309029199186e+00       1.129047226389e-10 
       2.493232377687e+00       4.627085961157e-12 
       2.692130395285e+00       4.872400992782e-13 
       2.906895534573e+00       4.987526994134e-12 
       3.138793597714e+00       7.449526588544e-12 
       3.389191366484e+00       4.667439657536e-12 
       3.659564657905e+00       6.339010316481e-13 
       3.951507022538e+00       1.088483216103e-12 
       4.266739136701e+00       1.308463643244e-12 
       4.607118943941e+00       5.397929110409e-14 
       4.974652605557e+00       1.047026138749e-12 
       5.371506324689e+00       4.206809595236e-13 
       5.800019113685e+00       5.350399832349e-13 
       6.262716579983e+00       2.354841146250e-13 
       6.762325811764e+00       4.536025354342e-14 
       7.301791451110e+00       5.660364456040e-13 
       7.884293049406e+00       2.653708146043e-12 
       8.513263807261e+00       9.830601367200e-14 
       9.192410809424e+00       2.541897051713e-13 
       9.925736873929e+00       2.796196668581e-13 
       1.071756414427e+01       1.533785449492e-15 
       1.157255956364e+01       3.592104278748e-15 
       1.249576238137e+01       9.291070339016e-14 
       1.349261385375e+01       1.679139188757e-13 
       1.456898931416e+01       1.247165356949e-13 
       1.573123280165e+01       7.089012453100e-15 
       1.698619445202e+01       1.060603290284e-13 
       1.834127087176e+01       8.317171685763e-13 
       1.980444873285e+01       2.588804943626e-13 
       2.138435184532e+01       6.903236756120e-15 
       2.309029198506e+01       4.163350964110e-14 
       2.493232377636e+01       6.487200343058e-15 
       2.692130395282e+01       1.099811119070e-13 
       2.906895534573e+01       2.625530774607e-14 
       3.138793597714e+01       4.437904208322e-18 
       3.389191366484e+01       7.727263499943e-16 
       3.659564657905e+01       3.365848580406e-15 
       3.951507022538e+01       1.766864475823e-15 
       4.266739136701e+01       1.681418071367e-17 
       4.607118943941e+01       1.345281907773e-14 
       4.974652605557e+01       6.062204335419e-16 
       5.371506324689e+01       1.263901614817e-13 
       5.800019113685e+01       4.394738220419e-14 
       6.262716579983e+01       1.101467532184e-13 
       6.762325811764e+01       8.433147126465e-15 
       7.301791451110e+01       3.171484209869e-14 
       7.884293049406e+01       1.642295312042e-16 
       8.513263807261e+01       2.876275591451e-15 
       9.192410809424e+01       2.311865218262e-14 
       9.925736873929e+01       1.127866947653e-14 
       1.071756414427e+02       3.665899207643e-14 
       1.157255956364e+02       5.167426897115e-16 
       1.249576238137e+02       1.567782043800e-16 
       1.349261385375e+02       6.857231394354e-15 
