# Matter power spectrum P(k) at redshift z=0
# for k=1.04775e-05 to 134.926 h/Mpc,
# number of wavenumbers equal to 255
#    1:k (h/Mpc)              2:P (Mpc/h)^3        
       1.047750691338e-05       5.020963906804e+01 
       1.131335172818e-05       5.407048937148e+01 
       1.221587619877e-05       5.822820724029e+01 
       1.319039970550e-05       6.270562047252e+01 
       1.424266598317e-05       6.752731476098e+01 
       1.537887697396e-05       7.271975715395e+01 
       1.660572938097e-05       7.831147101245e+01 
       1.793045413791e-05       8.433312302135e+01 
       1.936085902737e-05       9.081780130646e+01 
       2.090537469909e-05       9.780107449790e+01 
       2.257310435923e-05       1.053212938596e+02 
       2.437387742372e-05       1.134197268469e+02 
       2.631830745176e-05       1.221408285626e+02 
       2.841785470091e-05       1.315324590474e+02 
       3.068489367268e-05       1.416461671354e+02 
       3.313278604643e-05       1.525374478912e+02 
       3.577595943165e-05       1.642660517186e+02 
       3.862999240274e-05       1.768963429371e+02 
       4.171170631739e-05       1.904975997819e+02 
       4.503926445983e-05       2.051444243234e+02 
       4.863227909323e-05       2.209171412049e+02 
       5.251192705226e-05       2.379022266149e+02 
       5.670107455699e-05       2.561927841242e+02 
       6.122441198393e-05       2.758890479784e+02 
       6.610859938837e-05       2.970989213985e+02 
       7.138242363583e-05       3.199385559930e+02 
       7.707696806873e-05       3.445329727006e+02 
       8.322579570814e-05       3.710167324009e+02 
       8.986514707061e-05       3.995346444122e+02 
       9.703415376577e-05       4.302425389349e+02 
       1.047750691338e-04       4.633080773457e+02 
       1.131335172818e-04       4.989116271625e+02 
       1.221587619877e-04       5.372471938794e+02 
       1.319039970550e-04       5.785234116876e+02 
       1.424266598317e-04       6.229645933135e+02 
       1.537887697396e-04       6.708118487509e+02 
       1.660572938097e-04       7.223242657763e+02 
       1.793045413791e-04       7.777801571262e+02 
       1.936085902737e-04       8.374783638365e+02 
       2.090537469909e-04       9.017396276685e+02 
       2.257310435923e-04       9.709080297651e+02 
       2.437387742372e-04       1.045352453376e+03 
       2.631830745176e-04       1.125468127721e+03 
       2.841785470091e-04       1.211678185928e+03 
       3.068489367268e-04       1.304435256065e+03 
       3.313278604643e-04       1.404223062921e+03 
       3.577595943165e-04       1.511558029577e+03 
       3.862999240274e-04       1.626990852555e+03 
       4.171170631739e-04       1.751108045602e+03 
       4.503926445983e-04       1.884533404755e+03 
       4.863227909323e-04       2.027929406956e+03 
       5.251192705226e-04       2.181998483913e+03 
       5.670107455699e-04       2.347484146066e+03 
       6.122441198393e-04       2.525171925196e+03 
       6.610859938837e-04       2.715890054978e+03 
       7.138242363583e-04       2.920509779320e+03 
       7.707696806873e-04       3.139945208050e+03 
       8.322579570814e-04       3.375152477017e+03 
       8.986514707061e-04       3.627128020460e+03 
       9.703415376577e-04       3.896905669504e+03 
       1.047750691338e-03       4.185552452610e+03 
       1.131335172818e-03       4.494162775565e+03 
       1.221587619877e-03       4.823851150584e+03 
       1.319039970550e-03       5.175743278695e+03 
       1.424266598317e-03       5.551020298661e+03 
       1.537887697396e-03       5.950789185402e+03 
       1.660572938097e-03       6.376124150012e+03 
       1.793045413791e-03       6.828075236532e+03 
       1.936085902737e-03       7.307627050974e+03 
       2.090537469909e-03       7.815673958943e+03 
       2.257310435923e-03       8.352992922826e+03 
       2.437387742372e-03       8.920214306129e+03 
       2.631830745176e-03       9.517787166385e+03 
       2.841785470091e-03       1.014594130627e+04 
       3.068489367268e-03       1.080465136416e+04 
       3.313278604643e-03       1.149358239420e+04 
       3.577595943165e-03       1.221204586729e+04 
       3.862999240274e-03       1.295893666313e+04 
       4.171170631739e-03       1.373267338367e+04 
       4.503926445983e-03       1.453113499685e+04 
       4.863227909323e-03       1.535157114831e+04 
       5.251192705226e-03       1.619066154688e+04 
       5.670107455699e-03       1.704433880494e+04 
       6.122441198393e-03       1.790758123936e+04 
       6.610859938837e-03       1.877461995549e+04 
       7.138242363583e-03       1.963874648873e+04 
       7.707696806873e-03       2.049217383057e+04 
       8.322579570814e-03       2.132608011921e+04 
       8.986514707061e-03       2.213056714816e+04 
       9.703415376577e-03       2.289447293482e+04 
       1.047750691338e-02       2.360549520226e+04 
       1.131335172818e-02       2.425024116671e+04 
       1.221587619877e-02       2.481424693518e+04 
       1.319039970550e-02       2.528219950819e+04 
       1.424266598317e-02       2.563815115272e+04 
       1.537887697392e-02       2.586607583542e+04 
       1.660572938023e-02       2.595027030117e+04 
       1.793045412706e-02       2.587635505704e+04 
       1.936085890181e-02       2.563219640016e+04 
       2.090537352463e-02       2.520936067101e+04 
       2.257309535333e-02       2.460445347304e+04 
       2.437382002918e-02       2.382088636504e+04 
       2.631799944462e-02       2.287044728630e+04 
       2.841644545389e-02       2.177449289447e+04 
       3.067933355377e-02       2.056556606937e+04 
       3.311368470740e-02       1.928731267316e+04 
       3.571840443502e-02       1.799401763736e+04 
       3.847720348444e-02       1.674684360344e+04 
       4.135335538431e-02       1.560459283266e+04 
       4.429361667738e-02       1.461037327405e+04 
       4.724366439141e-02       1.378055320263e+04 
       5.016480835311e-02       1.310504853164e+04 
       5.303989620246e-02       1.255717376219e+04 
       5.586870669566e-02       1.210423570417e+04 
       5.866042680613e-02       1.171464541533e+04 
       6.142798932958e-02       1.136046240414e+04 
       6.418496440164e-02       1.101854241095e+04 
       6.694418833788e-02       1.067066401987e+04 
       6.971731106057e-02       1.030357080656e+04 
       7.251476155766e-02       9.908999428803e+03 
       7.534587671527e-02       9.483718572394e+03 
       7.821907666265e-02       9.029484055213e+03 
       8.114203772912e-02       8.552297563419e+03 
       8.412184535029e-02       8.061880747422e+03 
       8.716512279304e-02       7.570744990943e+03 
       9.027813695930e-02       7.092472618447e+03 
       9.346688431697e-02       6.640506314678e+03 
       9.673716028276e-02       6.226691569746e+03 
       1.000946150830e-01       5.859916630230e+03 
       1.035447986537e-01       5.545246833698e+03 
       1.070931966762e-01       5.283125660547e+03 
       1.107452594425e-01       5.069411191675e+03 
       1.145064249153e-01       4.895237301886e+03 
       1.183821370918e-01       4.747824608243e+03 
       1.223778605862e-01       4.611684899066e+03 
       1.264990921987e-01       4.470604278383e+03 
       1.307513701367e-01       4.310234670222e+03 
       1.351402814784e-01       4.121354742426e+03 
       1.396714684203e-01       3.902042692553e+03 
       1.443506338194e-01       3.658630601361e+03 
       1.491835465229e-01       3.404469315066e+03 
       1.541760469708e-01       3.156643524240e+03 
       1.593340535561e-01       2.931929001749e+03 
       1.646635702297e-01       2.742343920575e+03 
       1.701706958456e-01       2.592223052893e+03 
       1.758616357459e-01       2.477208920902e+03 
       1.817427160982e-01       2.385149881537e+03 
       1.878204015065e-01       2.300333574664e+03 
       1.941013164283e-01       2.205724603438e+03 
       2.005922709503e-01       2.090789626452e+03 
       2.073002914972e-01       1.956432095629e+03 
       2.142326570816e-01       1.814165034174e+03 
       2.213969417533e-01       1.679252133117e+03 
       2.288010639706e-01       1.563811273179e+03 
       2.364533437147e-01       1.472651508814e+03 
       2.443625682930e-01       1.401488839549e+03 
       2.525380679504e-01       1.338381522491e+03 
       2.609898026346e-01       1.270870449358e+03 
       2.697284615565e-01       1.193351744635e+03 
       2.787655775689e-01       1.109307985029e+03 
       2.881136588829e-01       1.028737235932e+03 
       2.977863412677e-01       9.604488279948e+02 
       3.077985646929e-01       9.049908405262e+02 
       3.181667794071e-01       8.561135430486e+02 
       3.289091877812e-01       8.061565275451e+02 
       3.400460299658e-01       7.523595998147e+02 
       3.515999236474e-01       6.988913789866e+02 
       3.635962711085e-01       6.510316881106e+02 
       3.760637506334e-01       6.100915224863e+02 
       3.890349143879e-01       5.721024263181e+02 
       4.025469216825e-01       5.337527069479e+02 
       4.166424456376e-01       4.956025962114e+02 
       4.313708035863e-01       4.604392154363e+02 
       4.467893782977e-01       4.287476500021e+02 
       4.629654199664e-01       3.987445626322e+02 
       4.799783501994e-01       3.692139541343e+02 
       4.979227319373e-01       3.412120797704e+02 
       5.169121270864e-01       3.154565491432e+02 
       5.370841404489e-01       2.908096277964e+02 
       5.586070464571e-01       2.670794537560e+02 
       5.816885094930e-01       2.447840703565e+02 
       6.065870144995e-01       2.235426277456e+02 
       6.336266468475e-01       2.031856512646e+02 
       6.632156059511e-01       1.838544099019e+02 
       6.958678639263e-01       1.653314466282e+02 
       7.322247985589e-01       1.476731811808e+02 
       7.730680195114e-01       1.308120386477e+02 
       8.193049553677e-01       1.148101175115e+02 
       8.718988016039e-01       9.974217841846e+01 
       9.317218031082e-01       8.575824896811e+01 
       9.993660908989e-01       7.303611268560e+01 
       1.075037110174e+00       6.171809365225e+01 
       1.158653485707e+00       5.186197856533e+01 
       1.250099157308e+00       4.342418370599e+01 
       1.349432401273e+00       3.627413091819e+01 
       1.456947457397e+00       3.025375788801e+01 
       1.573135111331e+00       2.520100393232e+01 
       1.698621895592e+00       2.096924941820e+01 
       1.834127512934e+00       1.743042299691e+01 
       1.980444934528e+00       1.447441502109e+01 
       2.138435191726e+00       1.200837340190e+01 
       2.309029199186e+00       9.953290080556e+00 
       2.493232377687e+00       8.242560643370e+00 
       2.692130395285e+00       6.819970650967e+00 
       2.906895534573e+00       5.638191686701e+00 
       3.138793597714e+00       4.657362285095e+00 
       3.389191366484e+00       3.844090676482e+00 
       3.659564657905e+00       3.170407600265e+00 
       3.951507022538e+00       2.612813334291e+00 
       4.266739136701e+00       2.151687663369e+00 
       4.607118943941e+00       1.770702815408e+00 
       4.974652605557e+00       1.456140852999e+00 
       5.371506324689e+00       1.196644074097e+00 
       5.800019113685e+00       9.827137522796e-01 
       6.262716579983e+00       8.065004124743e-01 
       6.762325811764e+00       6.614470883218e-01 
       7.301791451110e+00       5.421323484794e-01 
       7.884293049406e+00       4.440557324553e-01 
       8.513263807261e+00       3.634912978905e-01 
       9.192410809424e+00       2.973541837028e-01 
       9.925736873929e+00       2.430982500388e-01 
       1.071756414427e+01       1.986144267110e-01 
       1.157255956364e+01       1.621667848051e-01 
       1.249576238137e+01       1.323224308773e-01 
       1.349261385375e+01       1.078977276637e-01 
       1.456898931416e+01       8.792339432518e-02 
       1.573123280165e+01       7.159740224400e-02 
       1.698619445202e+01       5.826060065817e-02 
       1.834127087176e+01       4.737356846947e-02 
       1.980444873285e+01       3.849088547183e-02 
       2.138435184532e+01       3.124903252458e-02 
       2.309029198506e+01       2.534766477831e-02 
       2.493232377636e+01       2.054259321133e-02 
       2.692130395282e+01       1.663209609508e-02 
       2.906895534573e+01       1.345226141536e-02 
       3.138793597714e+01       1.086843016806e-02 
       3.389191366484e+01       8.770394932417e-03 
       3.659564657905e+01       7.068170564052e-03 
       3.951507022538e+01       5.688399817433e-03 
       4.266739136701e+01       4.570891608795e-03 
       4.607118943941e+01       3.666720193799e-03 
       4.974652605557e+01       2.935935056198e-03 
       5.371506324689e+01       2.346006212349e-03 
       5.800019113685e+01       1.870349673413e-03 
       6.262716579983e+01       1.487340413978e-03 
       6.762325811764e+01       1.179536556697e-03 
       7.301791451110e+01       9.324753678797e-04 
       7.884293049406e+01       7.346190240653e-04 
       8.513263807261e+01       5.765234875096e-04 
       9.192410809424e+01       4.504877827278e-04 
       9.925736873929e+01       3.502833903596e-04 
       1.071756414427e+02       2.708764130318e-04 
       1.157255956364e+02       2.081896232181e-04 
       1.249576238137e+02       1.588856975555e-04 
       1.349261385375e+02       1.203290985505e-04 
