# Matter power spectrum P(k) at redshift z=99
# for k=1.04775e-05 to 134.926 h/Mpc,
# number of wavenumbers equal to 255
#    1:k (h/Mpc)              2:P (Mpc/h)^3        
       1.047750691338e-05       7.262967233728e-03 
       1.131335172818e-05       7.821453520243e-03 
       1.221587619877e-05       8.422882468764e-03 
       1.319039970550e-05       9.070557280424e-03 
       1.424266598317e-05       9.768035957115e-03 
       1.537887697396e-05       1.051914625665e-02 
       1.660572938097e-05       1.132801337701e-02 
       1.793045413791e-05       1.219907739120e-02 
       1.936085902737e-05       1.313712163200e-02 
       2.090537469909e-05       1.414729588305e-02 
       2.257310435923e-05       1.523514648641e-02 
       2.437387742372e-05       1.640664486096e-02 
       2.631830745176e-05       1.766822409200e-02 
       2.841785470091e-05       1.902681094387e-02 
       3.068489367268e-05       2.048986244892e-02 
       3.313278604643e-05       2.206541210623e-02 
       3.577595943165e-05       2.376210960786e-02 
       3.862999240274e-05       2.558926941025e-02 
       4.171170631739e-05       2.755692225707e-02 
       4.503926445983e-05       2.967586747064e-02 
       4.863227909323e-05       3.195773915896e-02 
       5.251192705226e-05       3.441506104703e-02 
       5.670107455699e-05       3.706132307448e-02 
       6.122441198393e-05       3.991104645314e-02 
       6.610859938837e-05       4.297987249625e-02 
       7.138242363583e-05       4.628464235628e-02 
       7.707696806873e-05       4.984349210379e-02 
       8.322579570814e-05       5.367594496190e-02 
       8.986514707061e-05       5.780302873840e-02 
       9.703415376577e-05       6.224738048704e-02 
       1.047750691338e-04       6.703337692134e-02 
       1.131335172818e-04       7.218726075260e-02 
       1.221587619877e-04       7.773728830994e-02 
       1.319039970550e-04       8.371387736492e-02 
       1.424266598317e-04       9.014977715990e-02 
       1.537887697396e-04       9.708024059344e-02 
       1.660572938097e-04       1.045432132406e-01 
       1.793045413791e-04       1.125795366433e-01 
       1.936085902737e-04       1.212331697955e-01 
       2.090537469909e-04       1.305514156010e-01 
       2.257310435923e-04       1.405851736235e-01 
       2.437387742372e-04       1.513892021770e-01 
       2.631830745176e-04       1.630224088570e-01 
       2.841785470091e-04       1.755481427297e-01 
       3.068489367268e-04       1.890345222630e-01 
       3.313278604643e-04       2.035547751899e-01 
       3.577595943165e-04       2.191875922969e-01 
       3.862999240274e-04       2.360175141068e-01 
       4.171170631739e-04       2.541353192236e-01 
       4.503926445983e-04       2.736384466480e-01 
       4.863227909323e-04       2.946314205144e-01 
       5.251192705226e-04       3.172262956837e-01 
       5.670107455699e-04       3.415431044945e-01 
       6.122441198393e-04       3.677103126870e-01 
       6.610859938837e-04       3.958652638426e-01 
       7.138242363583e-04       4.261546109006e-01 
       7.707696806873e-04       4.587347214248e-01 
       8.322579570814e-04       4.937720235566e-01 
       8.986514707061e-04       5.314433033543e-01 
       9.703415376577e-04       5.719358784922e-01 
       1.047750691338e-03       6.154476689903e-01 
       1.131335172818e-03       6.621870594432e-01 
       1.221587619877e-03       7.123725520890e-01 
       1.319039970550e-03       7.662321126115e-01 
       1.424266598317e-03       8.240098213847e-01 
       1.537887697396e-03       8.859482890654e-01 
       1.660572938097e-03       9.522938022296e-01 
       1.793045413791e-03       1.023297382928e+00 
       1.936085902737e-03       1.099208618527e+00 
       2.090537469909e-03       1.180270752502e+00 
       2.257310435923e-03       1.266714692914e+00 
       2.437387742372e-03       1.358751565416e+00 
       2.631830745176e-03       1.456563392371e+00 
       2.841785470091e-03       1.560292223141e+00 
       3.068489367268e-03       1.670026999296e+00 
       3.313278604643e-03       1.785788534008e+00 
       3.577595943165e-03       1.907512078295e+00 
       3.862999240274e-03       2.035028955223e+00 
       4.171170631739e-03       2.168045587447e+00 
       4.503926445983e-03       2.306124468728e+00 
       4.863227909323e-03       2.448661811213e+00 
       5.251192705226e-03       2.594872206934e+00 
       5.670107455699e-03       2.743770510564e+00 
       6.122441198393e-03       2.894168632818e+00 
       6.610859938837e-03       3.044666371146e+00 
       7.138242363583e-03       3.193658499782e+00 
       7.707696806873e-03       3.339333587274e+00 
       8.322579570814e-03       3.479687481878e+00 
       8.986514707061e-03       3.612516512801e+00 
       9.703415376577e-03       3.735401201541e+00 
       1.047750691338e-02       3.845667391092e+00 
       1.131335172818e-02       3.940346087301e+00 
       1.221587619877e-02       4.016078498384e+00 
       1.319039970550e-02       4.069138809592e+00 
       1.424266598317e-02       4.095368525719e+00 
       1.537887697392e-02       4.090332217025e+00 
       1.660572938023e-02       4.049486898209e+00 
       1.793045412706e-02       3.968383646124e+00 
       1.936085890181e-02       3.843011978127e+00 
       2.090537352463e-02       3.670116280780e+00 
       2.257309535333e-02       3.447676317858e+00 
       2.437382002918e-02       3.175533605865e+00 
       2.631799944462e-02       2.856243365718e+00 
       2.841644545389e-02       2.495857076072e+00 
       3.067933355377e-02       2.104826824193e+00 
       3.311368470740e-02       1.698620150054e+00 
       3.571840443502e-02       1.297838473480e+00 
       3.847720348444e-02       9.266044330621e-01 
       4.135335538431e-02       6.083390881794e-01 
       4.429361667738e-02       3.592799747631e-01 
       4.724366439141e-02       1.837776554143e-01 
       5.016480835311e-02       7.480641982591e-02 
       5.303989620246e-02       1.874986847954e-02 
       5.586870669566e-02       4.062780061485e-04 
       5.866042680613e-02       5.895125779277e-03 
       6.142798932958e-02       2.382421825633e-02 
       6.418496440164e-02       4.549897614820e-02 
       6.694418833788e-02       6.477154482305e-02 
       6.971731106057e-02       7.782865618609e-02 
       7.251476155766e-02       8.286528778404e-02 
       7.534587671527e-02       7.980812295522e-02 
       7.821907666265e-02       6.993380553048e-02 
       8.114203772912e-02       5.543339610603e-02 
       8.412184535029e-02       3.902656986864e-02 
       8.716512279304e-02       2.341188394729e-02 
       9.027813695930e-02       1.087041703106e-02 
       9.346688431697e-02       2.903629760165e-03 
       9.673716028276e-02       2.074733619381e-05 
       1.000946150830e-01       1.691643421399e-03 
       1.035447986537e-01       6.513212083528e-03 
       1.070931966762e-01       1.254891288145e-02 
       1.107452594425e-01       1.779149636390e-02 
       1.145064249153e-01       2.064687320115e-02 
       1.183821370918e-01       2.032022526154e-02 
       1.223778605862e-01       1.700688170611e-02 
       1.264990921987e-01       1.178448653434e-02 
       1.307513701367e-01       6.257873868753e-03 
       1.351402814784e-01       2.015942923880e-03 
       1.396714684203e-01       8.612581094094e-05 
       1.443506338194e-01       5.863324305722e-04 
       1.491835465229e-01       2.717696933902e-03 
       1.541760469708e-01       5.129253566660e-03 
       1.593340535561e-01       6.517834221470e-03 
       1.646635702297e-01       6.209639440541e-03 
       1.701706958456e-01       4.432999466103e-03 
       1.758616357459e-01       2.140698791589e-03 
       1.817427160982e-01       4.538257141813e-04 
       1.878204015065e-01       1.758815565643e-05 
       1.941013164283e-01       6.772856770749e-04 
       2.005922709503e-01       1.650202951395e-03 
       2.073002914972e-01       2.099507885381e-03 
       2.142326570816e-01       1.712818992562e-03 
       2.213969417533e-01       8.411705157411e-04 
       2.288010639706e-01       1.433314247952e-04 
       2.364533437147e-01       2.860634847688e-05 
       2.443625682930e-01       3.492282192971e-04 
       2.525380679504e-01       6.303502325086e-04 
       2.609898026346e-01       5.605045971805e-04 
       2.697284615565e-01       2.455462163493e-04 
       2.787655775689e-01       1.921295434386e-05 
       2.881136588829e-01       3.781860418448e-05 
       2.977863412677e-01       1.572610908206e-04 
       3.077985646929e-01       1.721216599211e-04 
       3.181667794071e-01       7.438771858601e-05 
       3.289091877812e-01       2.793303924679e-06 
       3.400460299658e-01       1.940814032836e-05 
       3.515999236474e-01       4.916721724172e-05 
       3.635962711085e-01       3.236734550306e-05 
       3.760637506334e-01       3.503092020933e-06 
       3.890349143879e-01       3.505989579362e-06 
       4.025469216825e-01       1.180461622804e-05 
       4.166424456376e-01       5.998233828251e-06 
       4.313708035863e-01       4.540774676327e-08 
       4.467893782977e-01       2.131180116122e-06 
       4.629654199664e-01       2.117829999634e-06 
       4.799783501994e-01       1.222311454322e-07 
       4.979227319373e-01       3.704867769276e-07 
       5.169121270864e-01       3.647084553141e-07 
       5.370841404489e-01       8.958164378649e-11 
       5.586070464571e-01       1.051340975163e-07 
       5.816885094930e-01       1.916936677052e-08 
       6.065870144995e-01       7.972522457685e-09 
       6.336266468475e-01       4.702310939723e-09 
       6.632156059511e-01       1.941432071732e-09 
       6.958678639263e-01       3.856526698606e-09 
       7.322247985589e-01       2.047599967750e-09 
       7.730680195114e-01       5.874244112207e-10 
       8.193049553677e-01       6.423463064995e-10 
       8.718988016039e-01       1.360431841194e-11 
       9.317218031082e-01       3.495308996828e-11 
       9.993660908989e-01       7.561134378796e-12 
       1.075037110174e+00       3.568841887528e-14 
       1.158653485707e+00       1.300469500157e-10 
       1.250099157308e+00       3.774570742384e-09 
       1.349432401273e+00       2.804157314860e-11 
       1.456947457397e+00       3.146574858387e-11 
       1.573135111331e+00       5.793521061684e-10 
       1.698621895592e+00       1.430889229254e-10 
       1.834127512934e+00       2.217417966149e-09 
       1.980444934528e+00       9.729741147628e-11 
       2.138435191726e+00       1.238545256330e-09 
       2.309029199186e+00       7.951168944995e-10 
       2.493232377687e+00       3.655023394004e-11 
       2.692130395285e+00       4.455754426862e-10 
       2.906895534573e+00       5.440037966425e-09 
       3.138793597714e+00       6.971582472224e-10 
       3.389191366484e+00       2.235142543017e-11 
       3.659564657905e+00       1.633972819639e-09 
       3.951507022538e+00       1.211590714119e-09 
       4.266739136701e+00       4.695171551227e-10 
       4.607118943941e+00       3.911205420016e-09 
       4.974652605557e+00       2.035805408673e-10 
       5.371506324689e+00       5.742572422983e-10 
       5.800019113685e+00       4.661985748707e-11 
       6.262716579983e+00       7.646922960138e-10 
       6.762325811764e+00       2.088556261611e-09 
       7.301791451110e+00       2.219801693087e-11 
       7.884293049406e+00       1.137769854458e-09 
       8.513263807261e+00       1.428102923411e-11 
       9.192410809424e+00       8.840172886287e-11 
       9.925736873929e+00       9.515023744234e-10 
       1.071756414427e+01       1.463828652331e-09 
       1.157255956364e+01       1.747545071483e-09 
       1.249576238137e+01       5.098879459901e-10 
       1.349261385375e+01       1.249502075488e-10 
       1.456898931416e+01       8.193221695919e-12 
       1.573123280165e+01       3.564844322059e-12 
       1.698619445202e+01       6.824345875163e-10 
       1.834127087176e+01       2.308324356846e-09 
       1.980444873285e+01       7.735484018509e-11 
       2.138435184532e+01       4.759661326690e-10 
       2.309029198506e+01       5.179377709062e-10 
       2.493232377636e+01       3.653437109868e-10 
       2.692130395282e+01       3.094747424409e-10 
       2.906895534573e+01       1.030246532229e-09 
       3.138793597714e+01       2.590186236965e-10 
       3.389191366484e+01       8.976214758564e-11 
       3.659564657905e+01       7.224787304504e-10 
       3.951507022538e+01       1.062517288429e-10 
       4.266739136701e+01       4.315199460351e-10 
       4.607118943941e+01       2.063220955323e-10 
       4.974652605557e+01       8.158338144327e-10 
       5.371506324689e+01       5.974047518567e-10 
       5.800019113685e+01       1.064916498110e-09 
       6.262716579983e+01       2.244740320638e-13 
       6.762325811764e+01       3.138668020273e-11 
       7.301791451110e+01       1.142186544325e-10 
       7.884293049406e+01       5.147991456058e-10 
       8.513263807261e+01       2.668618356543e-11 
       9.192410809424e+01       2.542345238270e-13 
       9.925736873929e+01       2.206686186552e-11 
       1.071756414427e+02       7.441101421337e-12 
       1.157255956364e+02       4.461559215585e-13 
       1.249576238137e+02       2.863601010200e-11 
       1.349261385375e+02       1.325133454568e-11 
