# Matter power spectrum P(k) at redshift z=0
# for k=1.04775e-05 to 134.926 h/Mpc,
# number of wavenumbers equal to 255
#    1:k (h/Mpc)              2:P (Mpc/h)^3        
       1.047750691338e-05       5.020963906804e+01 
       1.131335172818e-05       5.407048937148e+01 
       1.221587619877e-05       5.822820724029e+01 
       1.319039970550e-05       6.270562047247e+01 
       1.424266598317e-05       6.752731476098e+01 
       1.537887697396e-05       7.271975715395e+01 
       1.660572938097e-05       7.831147101246e+01 
       1.793045413791e-05       8.433312302135e+01 
       1.936085902737e-05       9.081780130646e+01 
       2.090537469909e-05       9.780107449295e+01 
       2.257310435923e-05       1.053212938596e+02 
       2.437387742372e-05       1.134197268469e+02 
       2.631830745176e-05       1.221408285624e+02 
       2.841785470091e-05       1.315324590474e+02 
       3.068489367268e-05       1.416461671358e+02 
       3.313278604643e-05       1.525374478895e+02 
       3.577595943165e-05       1.642660517236e+02 
       3.862999240274e-05       1.768963429378e+02 
       4.171170631739e-05       1.904975997820e+02 
       4.503926445983e-05       2.051444243234e+02 
       4.863227909323e-05       2.209171412049e+02 
       5.251192705226e-05       2.379022266146e+02 
       5.670107455699e-05       2.561927841239e+02 
       6.122441198393e-05       2.758890479565e+02 
       6.610859938837e-05       2.970989213980e+02 
       7.138242363583e-05       3.199385559930e+02 
       7.707696806873e-05       3.445329727006e+02 
       8.322579570814e-05       3.710167324011e+02 
       8.986514707061e-05       3.995346444121e+02 
       9.703415376577e-05       4.302425389349e+02 
       1.047750691338e-04       4.633080773457e+02 
       1.131335172818e-04       4.989116271585e+02 
       1.221587619877e-04       5.372471938794e+02 
       1.319039970550e-04       5.785234116882e+02 
       1.424266598317e-04       6.229645933131e+02 
       1.537887697396e-04       6.708118487510e+02 
       1.660572938097e-04       7.223242657765e+02 
       1.793045413791e-04       7.777801571270e+02 
       1.936085902737e-04       8.374783638364e+02 
       2.090537469909e-04       9.017396276740e+02 
       2.257310435923e-04       9.709080297651e+02 
       2.437387742372e-04       1.045352453376e+03 
       2.631830745176e-04       1.125468127721e+03 
       2.841785470091e-04       1.211678185928e+03 
       3.068489367268e-04       1.304435256065e+03 
       3.313278604643e-04       1.404223062921e+03 
       3.577595943165e-04       1.511558029577e+03 
       3.862999240274e-04       1.626990852555e+03 
       4.171170631739e-04       1.751108045602e+03 
       4.503926445983e-04       1.884533404754e+03 
       4.863227909323e-04       2.027929406955e+03 
       5.251192705226e-04       2.181998483913e+03 
       5.670107455699e-04       2.347484146065e+03 
       6.122441198393e-04       2.525171925195e+03 
       6.610859938837e-04       2.715890054978e+03 
       7.138242363583e-04       2.920509779319e+03 
       7.707696806873e-04       3.139945208049e+03 
       8.322579570814e-04       3.375152477016e+03 
       8.986514707061e-04       3.627128020459e+03 
       9.703415376577e-04       3.896905669501e+03 
       1.047750691338e-03       4.185552452608e+03 
       1.131335172818e-03       4.494162775564e+03 
       1.221587619877e-03       4.823851150583e+03 
       1.319039970550e-03       5.175743278696e+03 
       1.424266598317e-03       5.551020298663e+03 
       1.537887697396e-03       5.950789185407e+03 
       1.660572938097e-03       6.376124150023e+03 
       1.793045413791e-03       6.828075236551e+03 
       1.936085902737e-03       7.307627051006e+03 
       2.090537469909e-03       7.815673958993e+03 
       2.257310435923e-03       8.352992922905e+03 
       2.437387742372e-03       8.920214306252e+03 
       2.631830745176e-03       9.517787166566e+03 
       2.841785470091e-03       1.014594130654e+04 
       3.068489367268e-03       1.080465136455e+04 
       3.313278604643e-03       1.149358239477e+04 
       3.577595943165e-03       1.221204586811e+04 
       3.862999240274e-03       1.295893666430e+04 
       4.171170631739e-03       1.373267338533e+04 
       4.503926445983e-03       1.453113499919e+04 
       4.863227909323e-03       1.535157113671e+04 
       5.251192705226e-03       1.619066146091e+04 
       5.670107455699e-03       1.704433880719e+04 
       6.122441198393e-03       1.790758130185e+04 
       6.610859938837e-03       1.877461999406e+04 
       7.138242363583e-03       1.963874667795e+04 
       7.707696806873e-03       2.049217384745e+04 
       8.322579570814e-03       2.132612178816e+04 
       8.986514707061e-03       2.213056674924e+04 
       9.703415376577e-03       2.289447362632e+04 
       1.047750691338e-02       2.360549516219e+04 
       1.131335172818e-02       2.425023993354e+04 
       1.221587619877e-02       2.481424722303e+04 
       1.319039970550e-02       2.528220341150e+04 
       1.424266598317e-02       2.563815278555e+04 
       1.537887697392e-02       2.586608110326e+04 
       1.660572938023e-02       2.595027075908e+04 
       1.793045412706e-02       2.587635609989e+04 
       1.936085890181e-02       2.563219246649e+04 
       2.090537352463e-02       2.520936236661e+04 
       2.257309535333e-02       2.460445391178e+04 
       2.437382002918e-02       2.382087332217e+04 
       2.631799944462e-02       2.287040044136e+04 
       2.841644545389e-02       2.177449027630e+04 
       3.067933355377e-02       2.056556329182e+04 
       3.311368470740e-02       1.928730539498e+04 
       3.571840443502e-02       1.799402443617e+04 
       3.847720348444e-02       1.674684070049e+04 
       4.135335538431e-02       1.560459843734e+04 
       4.429361667738e-02       1.461035562823e+04 
       4.724366439141e-02       1.378054404695e+04 
       5.016480835311e-02       1.310503936607e+04 
       5.303989620246e-02       1.255717598650e+04 
       5.586870669566e-02       1.210424158196e+04 
       5.866042680613e-02       1.171467220480e+04 
       6.142798932958e-02       1.136048976230e+04 
       6.418496440164e-02       1.101859552515e+04 
       6.694418833788e-02       1.067070526675e+04 
       6.971731106057e-02       1.030362017295e+04 
       7.251476155766e-02       9.909052824029e+03 
       7.534587671527e-02       9.483754533877e+03 
       7.821907666265e-02       9.029520509056e+03 
       8.114203772912e-02       8.552357440504e+03 
       8.412184535029e-02       8.061991305979e+03 
       8.716512279304e-02       7.570808022675e+03 
       9.027813695930e-02       7.092493544130e+03 
       9.346688431697e-02       6.640544857712e+03 
       9.673716028276e-02       6.226726891271e+03 
       1.000946150830e-01       5.859930334773e+03 
       1.035447986537e-01       5.545270246045e+03 
       1.070931966762e-01       5.283157487440e+03 
       1.107452594425e-01       5.069422112949e+03 
       1.145064249153e-01       4.895243325069e+03 
       1.183821370918e-01       4.747824270795e+03 
       1.223778605862e-01       4.611721787965e+03 
       1.264990921987e-01       4.470611059247e+03 
       1.307513701367e-01       4.310246958734e+03 
       1.351402814784e-01       4.121379959748e+03 
       1.396714684203e-01       3.902066643230e+03 
       1.443506338194e-01       3.658645328714e+03 
       1.491835465229e-01       3.404457286411e+03 
       1.541760469708e-01       3.156651258851e+03 
       1.593340535561e-01       2.931942170245e+03 
       1.646635702297e-01       2.742351725286e+03 
       1.701706958456e-01       2.592225546457e+03 
       1.758616357459e-01       2.477216426455e+03 
       1.817427160982e-01       2.385173154779e+03 
       1.878204015065e-01       2.300322174728e+03 
       1.941013164283e-01       2.205733734609e+03 
       2.005922709503e-01       2.090792041300e+03 
       2.073002914972e-01       1.956438636184e+03 
       2.142326570816e-01       1.814165722417e+03 
       2.213969417533e-01       1.679257483632e+03 
       2.288010639706e-01       1.563819939531e+03 
       2.364533437147e-01       1.472658008279e+03 
       2.443625682930e-01       1.401491904808e+03 
       2.525380679504e-01       1.338388573737e+03 
       2.609898026346e-01       1.270876972585e+03 
       2.697284615565e-01       1.193356931940e+03 
       2.787655775689e-01       1.109312717443e+03 
       2.881136588829e-01       1.028743768719e+03 
       2.977863412677e-01       9.604544854813e+02 
       3.077985646929e-01       9.049957318007e+02 
       3.181667794071e-01       8.561185186295e+02 
       3.289091877812e-01       8.061602984242e+02 
       3.400460299658e-01       7.523641520213e+02 
       3.515999236474e-01       6.988957472992e+02 
       3.635962711085e-01       6.510371652188e+02 
       3.760637506334e-01       6.100954927798e+02 
       3.890349143879e-01       5.721053205672e+02 
       4.025469216825e-01       5.337556611295e+02 
       4.166424456376e-01       4.956044922538e+02 
       4.313708035863e-01       4.604416406354e+02 
       4.467893782977e-01       4.287506746869e+02 
       4.629654199664e-01       3.987461827980e+02 
       4.799783501994e-01       3.692153943326e+02 
       4.979227319373e-01       3.412132886132e+02 
       5.169121270864e-01       3.154571127021e+02 
       5.370841404489e-01       2.908094314603e+02 
       5.586070464571e-01       2.670796221095e+02 
       5.816885094930e-01       2.447837832850e+02 
       6.065870144995e-01       2.235420964856e+02 
       6.336266468475e-01       2.031845417641e+02 
       6.632156059511e-01       1.838532553922e+02 
       6.958678639263e-01       1.653295302270e+02 
       7.322247985589e-01       1.476708283093e+02 
       7.730680195114e-01       1.308092340635e+02 
       8.193049553677e-01       1.148069777401e+02 
       8.718988016039e-01       9.973875796916e+01 
       9.317218031082e-01       8.575414023725e+01 
       9.993660908989e-01       7.303154981989e+01 
       1.075037110174e+00       6.171310800273e+01 
       1.158653485707e+00       5.185655834260e+01 
       1.250099157308e+00       4.341827910943e+01 
       1.349432401273e+00       3.626794637701e+01 
       1.456947457397e+00       3.024719556583e+01 
       1.573135111331e+00       2.519415235928e+01 
       1.698621895592e+00       2.096222428755e+01 
       1.834127512934e+00       1.742309825493e+01 
       1.980444934528e+00       1.446689798085e+01 
       2.138435191726e+00       1.200066400872e+01 
       2.309029199186e+00       9.945473277520e+00 
       2.493232377687e+00       8.234707370757e+00 
       2.692130395285e+00       6.811996557292e+00 
       2.906895534573e+00       5.630179579727e+00 
       3.138793597714e+00       4.649356264844e+00 
       3.389191366484e+00       3.836092864021e+00 
       3.659564657905e+00       3.162451016274e+00 
       3.951507022538e+00       2.604898451917e+00 
       4.266739136701e+00       2.143860184524e+00 
       4.607118943941e+00       1.762962853633e+00 
       4.974652605557e+00       1.448517170763e+00 
       5.371506324689e+00       1.189133491758e+00 
       5.800019113685e+00       9.753502929578e-01 
       6.262716579983e+00       7.992913912914e-01 
       6.762325811764e+00       6.544036445466e-01 
       7.301791451110e+00       5.352643233703e-01 
       7.884293049406e+00       4.373683650418e-01 
       8.513263807261e+00       3.569918526661e-01 
       9.192410809424e+00       2.910530296290e-01 
       9.925736873929e+00       2.369963385818e-01 
       1.071756414427e+01       1.927176513267e-01 
       1.157255956364e+01       1.564803245122e-01 
       1.249576238137e+01       1.268497914825e-01 
       1.349261385375e+01       1.026412776921e-01 
       1.456898931416e+01       8.288478238781e-02 
       1.573123280165e+01       6.677850610643e-02 
       1.698619445202e+01       5.366248369261e-02 
       1.834127087176e+01       4.299687461081e-02 
       1.980444873285e+01       3.433555519853e-02 
       2.138435184532e+01       2.731501283810e-02 
       2.309029198506e+01       2.163498056916e-02 
       2.493232377636e+01       1.704974542011e-02 
       2.692130395282e+01       1.335848116095e-02 
       2.906895534573e+01       1.039617442487e-02 
       3.138793597714e+01       8.027850483312e-03 
       3.389191366484e+01       6.143018194663e-03 
       3.659564657905e+01       4.650972139544e-03 
       3.951507022538e+01       3.477651106604e-03 
       4.266739136701e+01       2.562324806779e-03 
       4.607118943941e+01       1.855303194015e-03 
       4.974652605557e+01       1.315648928679e-03 
       5.371506324689e+01       9.097634160089e-04 
       5.800019113685e+01       6.100393830552e-04 
       6.262716579983e+01       3.937257020348e-04 
       6.762325811764e+01       2.421028707101e-04 
       7.301791451110e+01       1.397122120491e-04 
       7.884293049406e+01       7.392961606827e-05 
       8.513263807261e+01       3.443396477315e-05 
       9.192410809424e+01       1.301870890991e-05 
       9.925736873929e+01       3.215024546913e-06 
       1.071756414427e+02       1.567635192806e-07 
       1.157255956364e+02       3.772035861285e-07 
       1.249576238137e+02       1.619970123213e-06 
       1.349261385375e+02       2.635514259560e-06 
