# Matter power spectrum P(k) at redshift z=99
# for k=1.04775e-05 to 134.926 h/Mpc,
# number of wavenumbers equal to 255
#    1:k (h/Mpc)              2:P (Mpc/h)^3        
       1.047750691338e-05       7.261927096003e-03 
       1.131335172818e-05       7.820332151529e-03 
       1.221587619877e-05       8.421675383163e-03 
       1.319039970550e-05       9.069257738900e-03 
       1.424266598317e-05       9.766636452092e-03 
       1.537887697396e-05       1.051763973745e-02 
       1.660572938097e-05       1.132639250864e-02 
       1.793045413791e-05       1.219733201626e-02 
       1.936085902737e-05       1.313524187334e-02 
       2.090537469909e-05       1.414527085117e-02 
       2.257310435923e-05       1.523296544644e-02 
       2.437387742372e-05       1.640429654804e-02 
       2.631830745176e-05       1.766569603462e-02 
       2.841785470091e-05       1.902408711355e-02 
       3.068489367268e-05       2.048692967649e-02 
       3.313278604643e-05       2.206225467770e-02 
       3.577595943165e-05       2.375870884089e-02 
       3.862999240274e-05       2.558560670078e-02 
       4.171170631739e-05       2.755297672795e-02 
       4.503926445983e-05       2.967161933711e-02 
       4.863227909323e-05       3.195316455978e-02 
       5.251192705226e-05       3.441013466480e-02 
       5.670107455699e-05       3.705601742075e-02 
       6.122441198393e-05       3.990533413241e-02 
       6.610859938837e-05       4.297372242965e-02 
       7.138242363583e-05       4.627802055535e-02 
       7.707696806873e-05       4.983636160388e-02 
       8.322579570814e-05       5.366826787474e-02 
       8.986514707061e-05       5.779476320315e-02 
       9.703415376577e-05       6.223848222462e-02 
       1.047750691338e-04       6.702379825696e-02 
       1.131335172818e-04       7.217695031614e-02 
       1.221587619877e-04       7.772619031113e-02 
       1.319039970550e-04       8.370193381158e-02 
       1.424266598317e-04       9.013692507506e-02 
       1.537887697396e-04       9.706641131353e-02 
       1.660572938097e-04       1.045283343217e-01 
       1.793045413791e-04       1.125635329298e-01 
       1.936085902737e-04       1.212159591650e-01 
       2.090537469909e-04       1.305329107565e-01 
       2.257310435923e-04       1.405652819503e-01 
       2.437387742372e-04       1.513678275221e-01 
       2.631830745176e-04       1.629994475199e-01 
       2.841785470091e-04       1.755234890654e-01 
       3.068489367268e-04       1.890080645489e-01 
       3.313278604643e-04       2.035263977634e-01 
       3.577595943165e-04       2.191571778262e-01 
       3.862999240274e-04       2.359849423494e-01 
       4.171170631739e-04       2.541004713252e-01 
       4.503926445983e-04       2.736012061427e-01 
       4.863227909323e-04       2.945916774929e-01 
       5.251192705226e-04       3.171839508168e-01 
       5.670107455699e-04       3.414980769431e-01 
       6.122441198393e-04       3.676625416643e-01 
       6.610859938837e-04       3.958147273226e-01 
       7.138242363583e-04       4.261013332445e-01 
       7.707696806873e-04       4.586787881248e-01 
       8.322579570814e-04       4.937136113235e-01 
       8.986514707061e-04       5.313826962504e-01 
       9.703415376577e-04       5.718735177241e-01 
       1.047750691338e-03       6.153841926691e-01 
       1.131335172818e-03       6.621233623559e-01 
       1.221587619877e-03       7.123098744074e-01 
       1.319039970550e-03       7.661721264177e-01 
       1.424266598317e-03       8.239547181659e-01 
       1.537887697396e-03       8.859012283100e-01 
       1.660572938097e-03       9.522589495889e-01 
       1.793045413791e-03       1.023280284725e+00 
       1.936085902737e-03       1.099216542075e+00 
       2.090537469909e-03       1.180313284944e+00 
       2.257310435923e-03       1.266804486624e+00 
       2.437387742372e-03       1.358905328138e+00 
       2.631830745176e-03       1.456803285420e+00 
       2.841785470091e-03       1.560647662199e+00 
       3.068489367268e-03       1.670537009294e+00 
       3.313278604643e-03       1.786505037691e+00 
       3.577595943165e-03       1.908504407224e+00 
       3.862999240274e-03       2.036389549018e+00 
       4.171170631739e-03       2.169898505396e+00 
       4.503926445983e-03       2.308634738576e+00 
       4.863227909323e-03       2.452050702086e+00 
       5.251192705226e-03       2.599434770095e+00 
       5.670107455699e-03       2.749900950162e+00 
       6.122441198393e-03       2.902390097265e+00 
       6.610859938837e-03       3.055671897474e+00 
       7.138242363583e-03       3.208359639193e+00 
       7.707696806873e-03       3.358926399326e+00 
       8.322579570814e-03       3.505727911335e+00 
       8.986514707061e-03       3.647012063887e+00 
       9.703415376577e-03       3.780925668670e+00 
       1.047750691338e-02       3.905492184175e+00 
       1.131335172818e-02       4.018588971316e+00 
       1.221587619877e-02       4.117901674658e+00 
       1.319039970550e-02       4.200916030015e+00 
       1.424266598317e-02       4.264941339338e+00 
       1.537887697392e-02       4.307216317085e+00 
       1.660572938023e-02       4.325057724804e+00 
       1.793045412706e-02       4.316053835106e+00 
       1.936085890181e-02       4.278219894079e+00 
       2.090537352463e-02       4.210192316934e+00 
       2.257309535333e-02       4.111402249470e+00 
       2.437382002918e-02       3.982399010655e+00 
       2.631799944462e-02       3.825139765719e+00 
       2.841644545389e-02       3.643243405617e+00 
       3.067933355377e-02       3.442149539635e+00 
       3.311368470740e-02       3.229176240793e+00 
       3.571840443502e-02       3.013440371306e+00 
       3.847720348444e-02       2.805189991229e+00 
       4.135335538431e-02       2.614298233208e+00 
       4.429361667738e-02       2.447995161642e+00 
       4.724366439141e-02       2.309082668840e+00 
       5.016480835311e-02       2.195933990392e+00 
       5.303989620246e-02       2.104162867202e+00 
       5.586870669566e-02       2.028228420964e+00 
       5.866042680613e-02       1.962892439438e+00 
       6.142798932958e-02       1.903486479121e+00 
       6.418496440164e-02       1.846154201253e+00 
       6.694418833788e-02       1.787838286960e+00 
       6.971731106057e-02       1.726320544981e+00 
       7.251476155766e-02       1.660222507333e+00 
       7.534587671527e-02       1.588998684153e+00 
       7.821907666265e-02       1.512925286856e+00 
       8.114203772912e-02       1.433014808127e+00 
       8.412184535029e-02       1.350894973535e+00 
       8.716512279304e-02       1.268632113193e+00 
       9.027813695930e-02       1.188506134516e+00 
       9.346688431697e-02       1.112770657687e+00 
       9.673716028276e-02       1.043394320035e+00 
       1.000946150830e-01       9.818763199743e-01 
       1.035447986537e-01       9.290547819849e-01 
       1.070931966762e-01       8.850198733637e-01 
       1.107452594425e-01       8.490706939484e-01 
       1.145064249153e-01       8.197373854411e-01 
       1.183821370918e-01       7.948857500950e-01 
       1.223778605862e-01       7.719300342652e-01 
       1.264990921987e-01       7.481538797077e-01 
       1.307513701367e-01       7.211754798209e-01 
       1.351402814784e-01       6.894408042210e-01 
       1.396714684203e-01       6.526272340381e-01 
       1.443506338194e-01       6.117880189628e-01 
       1.491835465229e-01       5.691457101258e-01 
       1.541760469708e-01       5.275575485214e-01 
       1.593340535561e-01       4.898180164516e-01 
       1.646635702297e-01       4.579327515739e-01 
       1.701706958456e-01       4.326365008382e-01 
       1.758616357459e-01       4.131993257407e-01 
       1.817427160982e-01       3.975988487910e-01 
       1.878204015065e-01       3.832076611181e-01 
       1.941013164283e-01       3.671947198963e-01 
       2.005922709503e-01       3.477964258595e-01 
       2.073002914972e-01       3.251663155485e-01 
       2.142326570816e-01       3.012176972053e-01 
       2.213969417533e-01       2.784942428001e-01 
       2.288010639706e-01       2.590073867141e-01 
       2.364533437147e-01       2.435622380054e-01 
       2.443625682930e-01       2.314436816645e-01 
       2.525380679504e-01       2.206679895077e-01 
       2.609898026346e-01       2.091656862823e-01 
       2.697284615565e-01       1.960072047498e-01 
       2.787655775689e-01       1.817712793475e-01 
       2.881136588829e-01       1.681146620546e-01 
       2.977863412677e-01       1.564933711518e-01 
       3.077985646929e-01       1.469965728824e-01 
       3.181667794071e-01       1.385897073288e-01 
       3.289091877812e-01       1.300115270094e-01 
       3.400460299658e-01       1.208092500282e-01 
       3.515999236474e-01       1.116677487411e-01 
       3.635962711085e-01       1.034530483939e-01 
       3.760637506334e-01       9.637649671669e-02 
       3.890349143879e-01       8.978979955137e-02 
       4.025469216825e-01       8.315488648709e-02 
       4.166424456376e-01       7.656244768285e-02 
       4.313708035863e-01       7.046422195083e-02 
       4.467893782977e-01       6.493594959857e-02 
       4.629654199664e-01       5.969094223779e-02 
       4.799783501994e-01       5.453618119487e-02 
       4.979227319373e-01       4.963946263088e-02 
       5.169121270864e-01       4.511256085263e-02 
       5.370841404489e-01       4.077805656158e-02 
       5.586070464571e-01       3.660677597256e-02 
       5.816885094930e-01       3.267847215875e-02 
       6.065870144995e-01       2.893664728956e-02 
       6.336266468475e-01       2.535764795199e-02 
       6.632156059511e-01       2.196562770938e-02 
       6.958678639263e-01       1.873353542620e-02 
       7.322247985589e-01       1.567732100622e-02 
       7.730680195114e-01       1.279910731747e-02 
       8.193049553677e-01       1.012391175547e-02 
       8.718988016039e-01       7.685388377604e-03 
       9.317218031082e-01       5.531703510835e-03 
       9.993660908989e-01       3.714152430954e-03 
       1.075037110174e+00       2.271226183642e-03 
       1.158653485707e+00       1.213359384318e-03 
       1.250099157308e+00       5.186828275009e-04 
       1.349432401273e+00       1.374986280377e-04 
       1.456947457397e+00       3.622341803371e-06 
       1.573135111331e+00       4.223160226237e-05 
       1.698621895592e+00       1.769393114214e-04 
       1.834127512934e+00       3.367905442737e-04 
       1.980444934528e+00       4.638272493172e-04 
       2.138435191726e+00       5.205125125066e-04 
       2.309029199186e+00       4.946539550488e-04 
       2.493232377687e+00       3.994262150929e-04 
       2.692130395285e+00       2.675648163788e-04 
       2.906895534573e+00       1.390792765061e-04 
       3.138793597714e+00       4.677144553609e-05 
       3.389191366484e+00       4.381052301991e-06 
       3.659564657905e+00       3.475311475167e-06 
       3.951507022538e+00       2.089777970849e-05 
       4.266739136701e+00       3.337462583210e-05 
       4.607118943941e+00       3.036963664800e-05 
       4.974652605557e+00       1.677900831993e-05 
       5.371506324689e+00       4.366401660231e-06 
       5.800019113685e+00       1.976355849923e-08 
       6.262716579983e+00       1.444029178087e-06 
       6.762325811764e+00       2.766988491577e-06 
       7.301791451110e+00       1.740245006865e-06 
       7.884293049406e+00       3.046914507908e-07 
       8.513263807261e+00       2.687725475354e-08 
       9.192410809424e+00       2.343952591613e-07 
       9.925736873929e+00       1.552569150369e-07 
       1.071756414427e+01       8.769839429645e-09 
       1.157255956364e+01       1.492922063211e-08 
       1.249576238137e+01       1.843695212769e-08 
       1.349261385375e+01       1.022882212902e-09 
       1.456898931416e+01       2.175937553010e-09 
       1.573123280165e+01       1.212071326769e-09 
       1.698619445202e+01       1.048500817453e-10 
       1.834127087176e+01       7.356964948059e-11 
       1.980444873285e+01       1.399774902874e-11 
       2.138435184532e+01       1.276335450434e-11 
       2.309029198506e+01       5.631819657808e-12 
       2.493232377636e+01       1.538623542904e-12 
       2.692130395282e+01       3.669131392347e-13 
       2.906895534573e+01       3.305200566860e-11 
       3.138793597714e+01       2.973685416344e-10 
       3.389191366484e+01       7.468607698955e-10 
       3.659564657905e+01       3.726512971490e-10 
       3.951507022538e+01       2.126083518778e-11 
       4.266739136701e+01       1.017126681476e-09 
       4.607118943941e+01       2.446723893735e-09 
       4.974652605557e+01       6.425732508515e-09 
       5.371506324689e+01       3.061391457301e-09 
       5.800019113685e+01       2.540812376167e-13 
       6.262716579983e+01       1.163391473750e-11 
       6.762325811764e+01       7.982087066314e-10 
       7.301791451110e+01       5.886197688659e-13 
       7.884293049406e+01       3.580300592046e-10 
       8.513263807261e+01       1.728293563934e-10 
       9.192410809424e+01       4.429931711494e-11 
       9.925736873929e+01       6.080767763939e-12 
       1.071756414427e+02       2.453361761954e-11 
       1.157255956364e+02       5.236230541344e-09 
       1.249576238137e+02       7.905796140861e-11 
       1.349261385375e+02       3.762813505593e-13 
