# Matter power spectrum P(k) at redshift z=99
# for k=1.04775e-05 to 67.6233 h/Mpc,
# number of wavenumbers equal to 246
#    1:k (h/Mpc)              2:P (Mpc/h)^3        
       1.047750691338e-05       7.261927673119e-03 
       1.131335172818e-05       7.820331745737e-03 
       1.221587619877e-05       8.421675986489e-03 
       1.319039970550e-05       9.069258192194e-03 
       1.424266598317e-05       9.766638404421e-03 
       1.537887697396e-05       1.051764069682e-02 
       1.660572938097e-05       1.132639105520e-02 
       1.793045413791e-05       1.219733231416e-02 
       1.936085902737e-05       1.313524224380e-02 
       2.090537469909e-05       1.414527121893e-02 
       2.257310435923e-05       1.523296272192e-02 
       2.437387742372e-05       1.640429444530e-02 
       2.631830745176e-05       1.766569582177e-02 
       2.841785470091e-05       1.902408601793e-02 
       3.068489367268e-05       2.048692970591e-02 
       3.313278604643e-05       2.206225513594e-02 
       3.577595943165e-05       2.375870704909e-02 
       3.862999240274e-05       2.558560727479e-02 
       4.171170631739e-05       2.755297763344e-02 
       4.503926445983e-05       2.967161927315e-02 
       4.863227909323e-05       3.195316450832e-02 
       5.251192705226e-05       3.441013519284e-02 
       5.670107455699e-05       3.705601722527e-02 
       6.122441198393e-05       3.990533413563e-02 
       6.610859938837e-05       4.297372168203e-02 
       7.138242363583e-05       4.627802141688e-02 
       7.707696806873e-05       4.983636194159e-02 
       8.322579570814e-05       5.366826847231e-02 
       8.986514707061e-05       5.779476394568e-02 
       9.703415376577e-05       6.223848243885e-02 
       1.047750691338e-04       6.702379865640e-02 
       1.131335172818e-04       7.217695153381e-02 
       1.221587619877e-04       7.772619073572e-02 
       1.319039970550e-04       8.370193432376e-02 
       1.424266598317e-04       9.013692507547e-02 
       1.537887697396e-04       9.706641242570e-02 
       1.660572938097e-04       1.045283354271e-01 
       1.793045413791e-04       1.125635349068e-01 
       1.936085902737e-04       1.212159614968e-01 
       2.090537469909e-04       1.305329132714e-01 
       2.257310435923e-04       1.405652846215e-01 
       2.437387742372e-04       1.513678302540e-01 
       2.631830745176e-04       1.629994504871e-01 
       2.841785470091e-04       1.755234921224e-01 
       3.068489367268e-04       1.890080670413e-01 
       3.313278604643e-04       2.035264002435e-01 
       3.577595943165e-04       2.191571803681e-01 
       3.862999240274e-04       2.359849437593e-01 
       4.171170631739e-04       2.541004741539e-01 
       4.503926445983e-04       2.736012080277e-01 
       4.863227909323e-04       2.945916790965e-01 
       5.251192705226e-04       3.171839525183e-01 
       5.670107455699e-04       3.414980764002e-01 
       6.122441198393e-04       3.676625413100e-01 
       6.610859938837e-04       3.958147252304e-01 
       7.138242363583e-04       4.261013284919e-01 
       7.707696806873e-04       4.586787792353e-01 
       8.322579570814e-04       4.937136001345e-01 
       8.986514707061e-04       5.313826801402e-01 
       9.703415376577e-04       5.718734972157e-01 
       1.047750691338e-03       6.153841629505e-01 
       1.131335172818e-03       6.621233239465e-01 
       1.221587619877e-03       7.123098220433e-01 
       1.319039970550e-03       7.661720584755e-01 
       1.424266598317e-03       8.239546297726e-01 
       1.537887697396e-03       8.859011173467e-01 
       1.660572938097e-03       9.522588006418e-01 
       1.793045413791e-03       1.023280099819e+00 
       1.936085902737e-03       1.099216304579e+00 
       2.090537469909e-03       1.180312990454e+00 
       2.257310435923e-03       1.266804115853e+00 
       2.437387742372e-03       1.358904853406e+00 
       2.631830745176e-03       1.456802683156e+00 
       2.841785470091e-03       1.560646890522e+00 
       3.068489367268e-03       1.670536062499e+00 
       3.313278604643e-03       1.786503852157e+00 
       3.577595943165e-03       1.908502930790e+00 
       3.862999240274e-03       2.036387730709e+00 
       4.171170631739e-03       2.169896178165e+00 
       4.503926445983e-03       2.308631878994e+00 
       4.863227909323e-03       2.452047290962e+00 
       5.251192705226e-03       2.599430628088e+00 
       5.670107455699e-03       2.749896931791e+00 
       6.122441198393e-03       2.902386513384e+00 
       6.610859938837e-03       3.055668702078e+00 
       7.138242363583e-03       3.208356461547e+00 
       7.707696806873e-03       3.358923893007e+00 
       8.322579570814e-03       3.505725595342e+00 
       8.986514707061e-03       3.647009977459e+00 
       9.703415376577e-03       3.780923304326e+00 
       1.047750691338e-02       3.905491876468e+00 
       1.131335172818e-02       4.018587452115e+00 
       1.221587619877e-02       4.117901586111e+00 
       1.319039970550e-02       4.200915268169e+00 
       1.424266598317e-02       4.264941419301e+00 
       1.537887697392e-02       4.307219678840e+00 
       1.660572938023e-02       4.325061303448e+00 
       1.793045412706e-02       4.316057588447e+00 
       1.936085890181e-02       4.278226559124e+00 
       2.090537352463e-02       4.210197333221e+00 
       2.257309535333e-02       4.111419561748e+00 
       2.437382002918e-02       3.982423617797e+00 
       2.631799944462e-02       3.825165310921e+00 
       2.841644545389e-02       3.643282687703e+00 
       3.067933355377e-02       3.442199752992e+00 
       3.311368470740e-02       3.229246102825e+00 
       3.571840443502e-02       3.013511317300e+00 
       3.847720348444e-02       2.805284349149e+00 
       4.135335538431e-02       2.614407211545e+00 
       4.429361667738e-02       2.448133362875e+00 
       4.724366439141e-02       2.309231658239e+00 
       5.016480835311e-02       2.196114987152e+00 
       5.303989620246e-02       2.104364135489e+00 
       5.586870669566e-02       2.028461409392e+00 
       5.866042680613e-02       1.963153965339e+00 
       6.142798932958e-02       1.903780628493e+00 
       6.418496440164e-02       1.846478648920e+00 
       6.694418833788e-02       1.788196203524e+00 
       6.971731106057e-02       1.726712645069e+00 
       7.251476155766e-02       1.660652821222e+00 
       7.534587671527e-02       1.589471426615e+00 
       7.821907666265e-02       1.513438619557e+00 
       8.114203772912e-02       1.433570526363e+00 
       8.412184535029e-02       1.351491678240e+00 
       8.716512279304e-02       1.269272574626e+00 
       9.027813695930e-02       1.189194473888e+00 
       9.346688431697e-02       1.113499696330e+00 
       9.673716028276e-02       1.044174653694e+00 
       1.000946150830e-01       9.827062760716e-01 
       1.035447986537e-01       9.299400822557e-01 
       1.070931966762e-01       8.859606657505e-01 
       1.107452594425e-01       8.500718928317e-01 
       1.145064249153e-01       8.208043266802e-01 
       1.183821370918e-01       7.960250935172e-01 
       1.223778605862e-01       7.731458449500e-01 
       1.264990921987e-01       7.494522689045e-01 
       1.307513701367e-01       7.225577332884e-01 
       1.351402814784e-01       6.909083204322e-01 
       1.396714684203e-01       6.541824340998e-01 
       1.443506338194e-01       6.134277838361e-01 
       1.491835465229e-01       5.708688990858e-01 
       1.541760469708e-01       5.293640967066e-01 
       1.593340535561e-01       4.917103744581e-01 
       1.646635702297e-01       4.599207843312e-01 
       1.701706958456e-01       4.347284545446e-01 
       1.758616357459e-01       4.154087208981e-01 
       1.817427160982e-01       3.999369559603e-01 
       1.878204015065e-01       3.856825610286e-01 
       1.941013164283e-01       3.698096332417e-01 
       2.005922709503e-01       3.505462388769e-01 
       2.073002914972e-01       3.280449268583e-01 
       2.142326570816e-01       3.042136362536e-01 
       2.213969417533e-01       2.816118186016e-01 
       2.288010639706e-01       2.622566178025e-01 
       2.364533437147e-01       2.469625491797e-01 
       2.443625682930e-01       2.350128943461e-01 
       2.525380679504e-01       2.244175650160e-01 
       2.609898026346e-01       2.130936680288e-01 
       2.697284615565e-01       2.001018201667e-01 
       2.787655775689e-01       1.860198536083e-01 
       2.881136588829e-01       1.725175717820e-01 
       2.977863412677e-01       1.610658850137e-01 
       3.077985646929e-01       1.517609510908e-01 
       3.181667794071e-01       1.435594530788e-01 
       3.289091877812e-01       1.351815468042e-01 
       3.400460299658e-01       1.261645025787e-01 
       3.515999236474e-01       1.172018949893e-01 
       3.635962711085e-01       1.091770543507e-01 
       3.760637506334e-01       1.023095596086e-01 
       3.890349143879e-01       9.593760021196e-02 
       4.025469216825e-01       8.950778625075e-02 
       4.166424456376e-01       8.311163146349e-02 
       4.313708035863e-01       7.721559122072e-02 
       4.467893782977e-01       7.190068677126e-02 
       4.629654199664e-01       6.686921241957e-02 
       4.799783501994e-01       6.191758704478e-02 
       4.979227319373e-01       5.722230469326e-02 
       5.169121270864e-01       5.290304599145e-02 
       5.370841404489e-01       4.876985957480e-02 
       5.586070464571e-01       4.479101607401e-02 
       5.816885094930e-01       4.105185014960e-02 
       6.065870144995e-01       3.748998000462e-02 
       6.336266468475e-01       3.407628621390e-02 
       6.632156059511e-01       3.083462000382e-02 
       6.958678639263e-01       2.772840611766e-02 
       7.322247985589e-01       2.476711315816e-02 
       7.730680195114e-01       2.193958960215e-02 
       8.193049553677e-01       1.925611860482e-02 
       8.718988016039e-01       1.672928967466e-02 
       9.317218031082e-01       1.438424998401e-02 
       9.993660908989e-01       1.225070467812e-02 
       1.075037110174e+00       1.035261980208e-02 
       1.158653485707e+00       8.699697460086e-03 
       1.250099157308e+00       7.284583957698e-03 
       1.349432401273e+00       6.085474769613e-03 
       1.456947457397e+00       5.075739386628e-03 
       1.573135111331e+00       4.228325101563e-03 
       1.698621895592e+00       3.518548044457e-03 
       1.834127512934e+00       2.924993719895e-03 
       1.980444934528e+00       2.429161377029e-03 
       2.138435191726e+00       2.015508008254e-03 
       2.309029199186e+00       1.670773863774e-03 
       2.493232377687e+00       1.383790853523e-03 
       2.692130395285e+00       1.145131375485e-03 
       2.906895534573e+00       9.468623307444e-04 
       3.138793597714e+00       7.822903919481e-04 
       3.389191366484e+00       6.458227224240e-04 
       3.659564657905e+00       5.327708113019e-04 
       3.951507022538e+00       4.391864864539e-04 
       4.266739136701e+00       3.617901446577e-04 
       4.607118943941e+00       2.978276931064e-04 
       4.974652605557e+00       2.450126140377e-04 
       5.371506324689e+00       2.014372700902e-04 
       5.800019113685e+00       1.655065266365e-04 
       6.262716579983e+00       1.359036080230e-04 
       6.762325811764e+00       1.115300253226e-04 
       7.301791451110e+00       9.147626937921e-05 
       7.884293049406e+00       7.498680320368e-05 
       8.513263807261e+00       6.143624137944e-05 
       9.192410809424e+00       5.030833276171e-05 
       9.925736873929e+00       4.117497440227e-05 
       1.071756414427e+01       3.368344195358e-05 
       1.157255956364e+01       2.754130717633e-05 
       1.249576238137e+01       2.250891747336e-05 
       1.349261385375e+01       1.838740919927e-05 
       1.456898931416e+01       1.501411396461e-05 
       1.573123280165e+01       1.225437648195e-05 
       1.698619445202e+01       9.997669896835e-06 
       1.834127087176e+01       8.153081767073e-06 
       1.980444873285e+01       6.646244407930e-06 
       2.138435184532e+01       5.415680301629e-06 
       2.309029198506e+01       4.411317786137e-06 
       2.493232377636e+01       3.591848232181e-06 
       2.692130395282e+01       2.923539413328e-06 
       2.906895534573e+01       2.378726269858e-06 
       3.138793597714e+01       1.934760579614e-06 
       3.389191366484e+01       1.573106663542e-06 
       3.659564657905e+01       1.278615781939e-06 
       3.951507022538e+01       1.038898156343e-06 
       4.266739136701e+01       8.438484081227e-07 
       4.607118943941e+01       6.851980774517e-07 
       4.974652605557e+01       5.561886334840e-07 
       5.371506324689e+01       4.513308280469e-07 
       5.800019113685e+01       3.661177063207e-07 
       6.262716579983e+01       2.969023970960e-07 
       6.762325811764e+01       2.406929199312e-07 
