# Matter power spectrum P(k) at redshift z=0
# for k=1.04775e-05 to 67.6233 h/Mpc,
# number of wavenumbers equal to 246
#    1:k (h/Mpc)              2:P (Mpc/h)^3        
       1.047750691338e-05       5.020964806749e+01 
       1.131335172818e-05       5.407048206553e+01 
       1.221587619877e-05       5.822819064056e+01 
       1.319039970550e-05       6.270562589681e+01 
       1.424266598317e-05       6.752731788102e+01 
       1.537887697396e-05       7.271977200258e+01 
       1.660572938097e-05       7.831147241542e+01 
       1.793045413791e-05       8.433311815128e+01 
       1.936085902737e-05       9.081778242446e+01 
       2.090537469909e-05       9.780108061339e+01 
       2.257310435923e-05       1.053213197032e+02 
       2.437387742372e-05       1.134197377001e+02 
       2.631830745176e-05       1.221408202816e+02 
       2.841785470091e-05       1.315324720916e+02 
       3.068489367268e-05       1.416462093730e+02 
       3.313278604643e-05       1.525374500691e+02 
       3.577595943165e-05       1.642660687078e+02 
       3.862999240274e-05       1.768963504868e+02 
       4.171170631739e-05       1.904975992460e+02 
       4.503926445983e-05       2.051444490305e+02 
       4.863227909323e-05       2.209171463752e+02 
       5.251192705226e-05       2.379022222314e+02 
       5.670107455699e-05       2.561927925696e+02 
       6.122441198393e-05       2.758890441791e+02 
       6.610859938837e-05       2.970989225466e+02 
       7.138242363583e-05       3.199385558200e+02 
       7.707696806873e-05       3.445329780878e+02 
       8.322579570814e-05       3.710167315928e+02 
       8.986514707061e-05       3.995346440954e+02 
       9.703415376577e-05       4.302425403884e+02 
       1.047750691338e-04       4.633080762974e+02 
       1.131335172818e-04       4.989116267507e+02 
       1.221587619877e-04       5.372471946561e+02 
       1.319039970550e-04       5.785234124635e+02 
       1.424266598317e-04       6.229645930980e+02 
       1.537887697396e-04       6.708118484951e+02 
       1.660572938097e-04       7.223242660220e+02 
       1.793045413791e-04       7.777801554319e+02 
       1.936085902737e-04       8.374783607333e+02 
       2.090537469909e-04       9.017396264495e+02 
       2.257310435923e-04       9.709080260152e+02 
       2.437387742372e-04       1.045352448644e+03 
       2.631830745176e-04       1.125468122835e+03 
       2.841785470091e-04       1.211678179511e+03 
       3.068489367268e-04       1.304435249091e+03 
       3.313278604643e-04       1.404223052541e+03 
       3.577595943165e-04       1.511558013390e+03 
       3.862999240274e-04       1.626990836461e+03 
       4.171170631739e-04       1.751108027370e+03 
       4.503926445983e-04       1.884533381345e+03 
       4.863227909323e-04       2.027929376470e+03 
       5.251192705226e-04       2.181998446368e+03 
       5.670107455699e-04       2.347484100857e+03 
       6.122441198393e-04       2.525171869334e+03 
       6.610859938837e-04       2.715889981401e+03 
       7.138242363583e-04       2.920509686088e+03 
       7.707696806873e-04       3.139945097711e+03 
       8.322579570814e-04       3.375152334397e+03 
       8.986514707061e-04       3.627127828231e+03 
       9.703415376577e-04       3.896905450016e+03 
       1.047750691338e-03       4.185552170957e+03 
       1.131335172818e-03       4.494162426791e+03 
       1.221587619877e-03       4.823850702665e+03 
       1.319039970550e-03       5.175742734860e+03 
       1.424266598317e-03       5.551019592531e+03 
       1.537887697396e-03       5.950788335883e+03 
       1.660572938097e-03       6.376123046808e+03 
       1.793045413791e-03       6.828073896127e+03 
       1.936085902737e-03       7.307625375386e+03 
       2.090537469909e-03       7.815671873523e+03 
       2.257310435923e-03       8.352990369399e+03 
       2.437387742372e-03       8.920211057529e+03 
       2.631830745176e-03       9.517783061890e+03 
       2.841785470091e-03       1.014593703671e+04 
       3.068489367268e-03       1.080464505731e+04 
       3.313278604643e-03       1.149357459544e+04 
       3.577595943165e-03       1.221203620826e+04 
       3.862999240274e-03       1.295892538505e+04 
       4.171170631739e-03       1.373266002378e+04 
       4.503926445983e-03       1.453111834595e+04 
       4.863227909323e-03       1.535154984227e+04 
       5.251192705226e-03       1.619063613434e+04 
       5.670107455699e-03       1.704431256578e+04 
       6.122441198393e-03       1.790755938457e+04 
       6.610859938837e-03       1.877460415815e+04 
       7.138242363583e-03       1.963872429098e+04 
       7.707696806873e-03       2.049215712369e+04 
       8.322579570814e-03       2.132606958278e+04 
       8.986514707061e-03       2.213055124079e+04 
       9.703415376577e-03       2.289445470810e+04 
       1.047750691338e-02       2.360548499936e+04 
       1.131335172818e-02       2.425023097905e+04 
       1.221587619877e-02       2.481423922326e+04 
       1.319039970550e-02       2.528218622767e+04 
       1.424266598317e-02       2.563814987050e+04 
       1.537887697392e-02       2.586608204573e+04 
       1.660572938023e-02       2.595027751703e+04 
       1.793045412706e-02       2.587634748909e+04 
       1.936085890181e-02       2.563219024928e+04 
       2.090537352463e-02       2.520935414614e+04 
       2.257309535333e-02       2.460446987807e+04 
       2.437382002918e-02       2.382086529435e+04 
       2.631799944462e-02       2.287043655477e+04 
       2.841644545389e-02       2.177448969529e+04 
       3.067933355377e-02       2.056553058523e+04 
       3.311368470740e-02       1.928729836505e+04 
       3.571840443502e-02       1.799402785202e+04 
       3.847720348444e-02       1.674681484107e+04 
       4.135335538431e-02       1.560457830484e+04 
       4.429361667738e-02       1.461036645493e+04 
       4.724366439141e-02       1.378052694572e+04 
       5.016480835311e-02       1.310509529683e+04 
       5.303989620246e-02       1.255716438372e+04 
       5.586870669566e-02       1.210424741980e+04 
       5.866042680613e-02       1.171466681073e+04 
       6.142798932958e-02       1.136048117517e+04 
       6.418496440164e-02       1.101857327136e+04 
       6.694418833788e-02       1.067072286779e+04 
       6.971731106057e-02       1.030357517627e+04 
       7.251476155766e-02       9.909008864759e+03 
       7.534587671527e-02       9.483785652715e+03 
       7.821907666265e-02       9.029502692641e+03 
       8.114203772912e-02       8.552334900381e+03 
       8.412184535029e-02       8.061943292550e+03 
       8.716512279304e-02       7.570780493728e+03 
       9.027813695930e-02       7.092501805915e+03 
       9.346688431697e-02       6.640520935850e+03 
       9.673716028276e-02       6.226696842523e+03 
       1.000946150830e-01       5.859934832639e+03 
       1.035447986537e-01       5.545245988823e+03 
       1.070931966762e-01       5.283128270459e+03 
       1.107452594425e-01       5.069420435844e+03 
       1.145064249153e-01       4.895255020547e+03 
       1.183821370918e-01       4.747839922822e+03 
       1.223778605862e-01       4.611734858434e+03 
       1.264990921987e-01       4.470622324707e+03 
       1.307513701367e-01       4.310275674245e+03 
       1.351402814784e-01       4.121384623712e+03 
       1.396714684203e-01       3.902060528885e+03 
       1.443506338194e-01       3.658637645056e+03 
       1.491835465229e-01       3.404483058246e+03 
       1.541760469708e-01       3.156676820205e+03 
       1.593340535561e-01       2.931979212355e+03 
       1.646635702297e-01       2.742374374069e+03 
       1.701706958456e-01       2.592258090706e+03 
       1.758616357459e-01       2.477238785512e+03 
       1.817427160982e-01       2.385182608271e+03 
       1.878204015065e-01       2.300360469939e+03 
       1.941013164283e-01       2.205757930199e+03 
       2.005922709503e-01       2.090810369165e+03 
       2.073002914972e-01       1.956465096963e+03 
       2.142326570816e-01       1.814199301286e+03 
       2.213969417533e-01       1.679298766279e+03 
       2.288010639706e-01       1.563849123628e+03 
       2.364533437147e-01       1.472686799162e+03 
       2.443625682930e-01       1.401516427860e+03 
       2.525380679504e-01       1.338411600403e+03 
       2.609898026346e-01       1.270902264524e+03 
       2.697284615565e-01       1.193390564868e+03 
       2.787655775689e-01       1.109340151407e+03 
       2.881136588829e-01       1.028773314934e+03 
       2.977863412677e-01       9.604817910831e+02 
       3.077985646929e-01       9.050249584007e+02 
       3.181667794071e-01       8.561472555121e+02 
       3.289091877812e-01       8.061878793607e+02 
       3.400460299658e-01       7.523923825763e+02 
       3.515999236474e-01       6.989239382733e+02 
       3.635962711085e-01       6.510622046338e+02 
       3.760637506334e-01       6.101237698469e+02 
       3.890349143879e-01       5.721329288425e+02 
       4.025469216825e-01       5.337836190461e+02 
       4.166424456376e-01       4.956316002735e+02 
       4.313708035863e-01       4.604690037487e+02 
       4.467893782977e-01       4.287772331005e+02 
       4.629654199664e-01       3.987720336109e+02 
       4.799783501994e-01       3.692427443077e+02 
       4.979227319373e-01       3.412394640574e+02 
       5.169121270864e-01       3.154844700243e+02 
       5.370841404489e-01       2.908353215494e+02 
       5.586070464571e-01       2.671075813275e+02 
       5.816885094930e-01       2.448094698303e+02 
       6.065870144995e-01       2.235682732170e+02 
       6.336266468475e-01       2.032110008548e+02 
       6.632156059511e-01       1.838786923855e+02 
       6.958678639263e-01       1.653544828958e+02 
       7.322247985589e-01       1.476956779481e+02 
       7.730680195114e-01       1.308342422725e+02 
       8.193049553677e-01       1.148312317341e+02 
       8.718988016039e-01       9.976250375336e+01 
       9.317218031082e-01       8.577803969129e+01 
       9.993660908989e-01       7.305492341092e+01 
       1.075037110174e+00       6.173588255509e+01 
       1.158653485707e+00       5.187922288501e+01 
       1.250099157308e+00       4.344022775813e+01 
       1.349432401273e+00       3.628951514631e+01 
       1.456947457397e+00       3.026808273526e+01 
       1.573135111331e+00       2.521465023009e+01 
       1.698621895592e+00       2.098216543320e+01 
       1.834127512934e+00       1.744249993143e+01 
       1.980444934528e+00       1.448571714825e+01 
       2.138435191726e+00       1.201899318356e+01 
       2.309029199186e+00       9.963192218938e+00 
       2.493232377687e+00       8.251815222176e+00 
       2.692130395285e+00       6.828632171517e+00 
       2.906895534573e+00       5.646276187622e+00 
       3.138793597714e+00       4.664894243942e+00 
       3.389191366484e+00       3.851115974386e+00 
       3.659564657905e+00       3.176949489723e+00 
       3.951507022538e+00       2.618885072292e+00 
       4.266739136701e+00       2.157338996956e+00 
       4.607118943941e+00       1.775937156033e+00 
       4.974652605557e+00       1.460990907751e+00 
       5.371506324689e+00       1.201132567114e+00 
       5.800019113685e+00       9.868713994847e-01 
       6.262716579983e+00       8.103527802681e-01 
       6.762325811764e+00       6.650066002494e-01 
       7.301791451110e+00       5.454228850697e-01 
       7.884293049406e+00       4.470902089140e-01 
       8.513263807261e+00       3.662906355527e-01 
       9.192410809424e+00       2.999347744614e-01 
       9.925736873929e+00       2.454724168473e-01 
       1.071756414427e+01       2.008001145685e-01 
       1.157255956364e+01       1.641765311647e-01 
       1.249576238137e+01       1.341703300883e-01 
       1.349261385375e+01       1.095947921347e-01 
       1.456898931416e+01       8.948135124930e-02 
       1.573123280165e+01       7.302602802482e-02 
       1.698619445202e+01       5.957072900140e-02 
       1.834127087176e+01       4.857292052928e-02 
       1.980444873285e+01       3.958908758034e-02 
       2.138435184532e+01       3.225320483629e-02 
       2.309029198506e+01       2.626560383387e-02 
       2.493232377636e+01       2.138052422117e-02 
       2.692130395282e+01       1.739695783123e-02 
       2.906895534573e+01       1.414954334309e-02 
       3.138793597714e+01       1.150349590655e-02 
       3.389191366484e+01       9.348321186365e-03 
       3.659564657905e+01       7.593630416029e-03 
       3.951507022538e+01       6.165429183055e-03 
       4.266739136701e+01       5.003580815914e-03 
       4.607118943941e+01       4.058734812664e-03 
       4.974652605557e+01       3.290568155758e-03 
       5.371506324689e+01       2.666338355101e-03 
       5.800019113685e+01       2.159249844896e-03 
       6.262716579983e+01       1.747491671953e-03 
       6.762325811764e+01       1.413297076723e-03 
