# Matter power spectrum P(k) at redshift z=99
# for k=1.04775e-05 to 134.926 h/Mpc,
# number of wavenumbers equal to 255
#    1:k (h/Mpc)              2:P (Mpc/h)^3        
       1.047750691338e-05       7.261927095217e-03 
       1.131335172818e-05       7.820332150681e-03 
       1.221587619877e-05       8.421675382250e-03 
       1.319039970550e-05       9.069257737918e-03 
       1.424266598317e-05       9.766636451033e-03 
       1.537887697396e-05       1.051763973631e-02 
       1.660572938097e-05       1.132639250741e-02 
       1.793045413791e-05       1.219733201497e-02 
       1.936085902737e-05       1.313524187191e-02 
       2.090537469909e-05       1.414527084965e-02 
       2.257310435923e-05       1.523296544479e-02 
       2.437387742372e-05       1.640429654626e-02 
       2.631830745176e-05       1.766569603271e-02 
       2.841785470091e-05       1.902408711147e-02 
       3.068489367268e-05       2.048692967428e-02 
       3.313278604643e-05       2.206225467531e-02 
       3.577595943165e-05       2.375870883834e-02 
       3.862999240274e-05       2.558560669803e-02 
       4.171170631739e-05       2.755297672487e-02 
       4.503926445983e-05       2.967161933391e-02 
       4.863227909323e-05       3.195316455632e-02 
       5.251192705226e-05       3.441013466109e-02 
       5.670107455699e-05       3.705601741674e-02 
       6.122441198393e-05       3.990533412806e-02 
       6.610859938837e-05       4.297372242499e-02 
       7.138242363583e-05       4.627802054815e-02 
       7.707696806873e-05       4.983636159849e-02 
       8.322579570814e-05       5.366826786893e-02 
       8.986514707061e-05       5.779476319690e-02 
       9.703415376577e-05       6.223848221789e-02 
       1.047750691338e-04       6.702379824971e-02 
       1.131335172818e-04       7.217695031026e-02 
       1.221587619877e-04       7.772619030305e-02 
       1.319039970550e-04       8.370193379979e-02 
       1.424266598317e-04       9.013692506602e-02 
       1.537887697396e-04       9.706641130330e-02 
       1.660572938097e-04       1.045283343104e-01 
       1.793045413791e-04       1.125635329178e-01 
       1.936085902737e-04       1.212159592301e-01 
       2.090537469909e-04       1.305329107427e-01 
       2.257310435923e-04       1.405652819352e-01 
       2.437387742372e-04       1.513678275067e-01 
       2.631830745176e-04       1.629994475124e-01 
       2.841785470091e-04       1.755234890469e-01 
       3.068489367268e-04       1.890080645289e-01 
       3.313278604643e-04       2.035263977421e-01 
       3.577595943165e-04       2.191571778034e-01 
       3.862999240274e-04       2.359849423249e-01 
       4.171170631739e-04       2.541004712991e-01 
       4.503926445983e-04       2.736012061148e-01 
       4.863227909323e-04       2.945916774631e-01 
       5.251192705226e-04       3.171839507851e-01 
       5.670107455699e-04       3.414980769095e-01 
       6.122441198393e-04       3.676625416288e-01 
       6.610859938837e-04       3.958147272851e-01 
       7.138242363583e-04       4.261013332051e-01 
       7.707696806873e-04       4.586787880836e-01 
       8.322579570814e-04       4.937136112808e-01 
       8.986514707061e-04       5.313826962064e-01 
       9.703415376577e-04       5.718735176792e-01 
       1.047750691338e-03       6.153841926239e-01 
       1.131335172818e-03       6.621233623113e-01 
       1.221587619877e-03       7.123098743646e-01 
       1.319039970550e-03       7.661721263782e-01 
       1.424266598317e-03       8.239547181300e-01 
       1.537887697396e-03       8.859012282819e-01 
       1.660572938097e-03       9.522589495760e-01 
       1.793045413791e-03       1.023280284738e+00 
       1.936085902737e-03       1.099216542130e+00 
       2.090537469909e-03       1.180313285064e+00 
       2.257310435923e-03       1.266804486840e+00 
       2.437387742372e-03       1.358905328500e+00 
       2.631830745176e-03       1.456803285993e+00 
       2.841785470091e-03       1.560647663088e+00 
       3.068489367268e-03       1.670537010636e+00 
       3.313278604643e-03       1.786505039709e+00 
       3.577595943165e-03       1.908504410201e+00 
       3.862999240274e-03       2.036389468856e+00 
       4.171170631739e-03       2.169898252918e+00 
       4.503926445983e-03       2.308634492105e+00 
       4.863227909323e-03       2.452050674936e+00 
       5.251192705226e-03       2.599434681322e+00 
       5.670107455699e-03       2.749901126690e+00 
       6.122441198393e-03       2.902390058598e+00 
       6.610859938837e-03       3.055671270156e+00 
       7.138242363583e-03       3.208360123251e+00 
       7.707696806873e-03       3.358926651870e+00 
       8.322579570814e-03       3.505726890514e+00 
       8.986514707061e-03       3.647012438696e+00 
       9.703415376577e-03       3.780926180457e+00 
       1.047750691338e-02       3.905492882161e+00 
       1.131335172818e-02       4.018589827990e+00 
       1.221587619877e-02       4.117902891351e+00 
       1.319039970550e-02       4.200917703737e+00 
       1.424266598317e-02       4.264943743347e+00 
       1.537887697392e-02       4.307219675398e+00 
       1.660572938023e-02       4.325062465215e+00 
       1.793045412706e-02       4.316060401462e+00 
       1.936085890181e-02       4.278228943628e+00 
       2.090537352463e-02       4.210204486926e+00 
       2.257309535333e-02       4.111418764358e+00 
       2.437382002918e-02       3.982420954672e+00 
       2.631799944462e-02       3.825168705377e+00 
       2.841644545389e-02       3.643282267741e+00 
       3.067933355377e-02       3.442198729325e+00 
       3.311368470740e-02       3.229241626150e+00 
       3.571840443502e-02       3.013516364808e+00 
       3.847720348444e-02       2.805283979825e+00 
       4.135335538431e-02       2.614410710731e+00 
       4.429361667738e-02       2.448132237415e+00 
       4.724366439141e-02       2.309240712448e+00 
       5.016480835311e-02       2.196115271942e+00 
       5.303989620246e-02       2.104369950818e+00 
       5.586870669566e-02       2.028462701336e+00 
       5.866042680613e-02       1.963155437667e+00 
       6.142798932958e-02       1.903779854763e+00 
       6.418496440164e-02       1.846479374847e+00 
       6.694418833788e-02       1.788197661668e+00 
       6.971731106057e-02       1.726715878812e+00 
       7.251476155766e-02       1.660654603652e+00 
       7.534587671527e-02       1.589470087517e+00 
       7.821907666265e-02       1.513436825035e+00 
       8.114203772912e-02       1.433569029479e+00 
       8.412184535029e-02       1.351492542308e+00 
       8.716512279304e-02       1.269274033018e+00 
       9.027813695930e-02       1.189193484266e+00 
       9.346688431697e-02       1.113501437641e+00 
       9.673716028276e-02       1.044174791833e+00 
       1.000946150830e-01       9.827063348223e-01 
       1.035447986537e-01       9.299360746974e-01 
       1.070931966762e-01       8.859588637038e-01 
       1.107452594425e-01       8.500714492513e-01 
       1.145064249153e-01       8.208036980491e-01 
       1.183821370918e-01       7.960246163636e-01 
       1.223778605862e-01       7.731459235825e-01 
       1.264990921987e-01       7.494517497661e-01 
       1.307513701367e-01       7.225567223027e-01 
       1.351402814784e-01       6.909080093947e-01 
       1.396714684203e-01       6.541802506585e-01 
       1.443506338194e-01       6.134257877003e-01 
       1.491835465229e-01       5.708673302561e-01 
       1.541760469708e-01       5.293643003637e-01 
       1.593340535561e-01       4.917108494772e-01 
       1.646635702297e-01       4.599199533196e-01 
       1.701706958456e-01       4.347278972681e-01 
       1.758616357459e-01       4.154077934617e-01 
       1.817427160982e-01       3.999362035922e-01 
       1.878204015065e-01       3.856833738095e-01 
       1.941013164283e-01       3.698098980414e-01 
       2.005922709503e-01       3.505475216414e-01 
       2.073002914972e-01       3.280460125627e-01 
       2.142326570816e-01       3.042136692066e-01 
       2.213969417533e-01       2.816115322998e-01 
       2.288010639706e-01       2.622567535905e-01 
       2.364533437147e-01       2.469617167244e-01 
       2.443625682930e-01       2.350128549139e-01 
       2.525380679504e-01       2.244202248855e-01 
       2.609898026346e-01       2.130960266477e-01 
       2.697284615565e-01       2.001025288627e-01 
       2.787655775689e-01       1.860199381795e-01 
       2.881136588829e-01       1.725169950502e-01 
       2.977863412677e-01       1.610658553284e-01 
       3.077985646929e-01       1.517604251444e-01 
       3.181667794071e-01       1.435592590530e-01 
       3.289091877812e-01       1.351816486612e-01 
       3.400460299658e-01       1.261643297594e-01 
       3.515999236474e-01       1.172017631998e-01 
       3.635962711085e-01       1.091766787982e-01 
       3.760637506334e-01       1.023090963126e-01 
       3.890349143879e-01       9.593758268768e-02 
       4.025469216825e-01       8.950760472648e-02 
       4.166424456376e-01       8.311157331570e-02 
       4.313708035863e-01       7.721526913590e-02 
       4.467893782977e-01       7.190044722978e-02 
       4.629654199664e-01       6.686886305070e-02 
       4.799783501994e-01       6.191735944132e-02 
       4.979227319373e-01       5.722205668213e-02 
       5.169121270864e-01       5.290271232624e-02 
       5.370841404489e-01       4.876960856307e-02 
       5.586070464571e-01       4.479055559355e-02 
       5.816885094930e-01       4.105172622971e-02 
       6.065870144995e-01       3.748974687421e-02 
       6.336266468475e-01       3.407603873632e-02 
       6.632156059511e-01       3.083436322722e-02 
       6.958678639263e-01       2.772816206099e-02 
       7.322247985589e-01       2.476697758374e-02 
       7.730680195114e-01       2.193939935512e-02 
       8.193049553677e-01       1.925592852338e-02 
       8.718988016039e-01       1.672910370611e-02 
       9.317218031082e-01       1.438405168730e-02 
       9.993660908989e-01       1.225054016268e-02 
       1.075037110174e+00       1.035239521258e-02 
       1.158653485707e+00       8.699501791904e-03 
       1.250099157308e+00       7.284360035433e-03 
       1.349432401273e+00       6.085218229495e-03 
       1.456947457397e+00       5.075462555884e-03 
       1.573135111331e+00       4.228018874263e-03 
       1.698621895592e+00       3.518254080869e-03 
       1.834127512934e+00       2.924667453419e-03 
       1.980444934528e+00       2.428822062395e-03 
       2.138435191726e+00       2.015150323954e-03 
       2.309029199186e+00       1.670392855262e-03 
       2.493232377687e+00       1.383387952418e-03 
       2.692130395285e+00       1.144699894810e-03 
       2.906895534573e+00       9.463943642472e-04 
       3.138793597714e+00       7.818029881780e-04 
       3.389191366484e+00       6.453067471623e-04 
       3.659564657905e+00       5.322156872273e-04 
       3.951507022538e+00       4.385976991252e-04 
       4.266739136701e+00       3.611675333066e-04 
       4.607118943941e+00       2.971657256549e-04 
       4.974652605557e+00       2.443110982496e-04 
       5.371506324689e+00       2.006906021734e-04 
       5.800019113685e+00       1.647186726144e-04 
       6.262716579983e+00       1.350702478774e-04 
       6.762325811764e+00       1.106507638849e-04 
       7.301791451110e+00       9.054941359872e-05 
       7.884293049406e+00       7.401108096960e-05 
       8.513263807261e+00       6.041154635394e-05 
       9.192410809424e+00       4.923400704949e-05 
       9.925736873929e+00       4.005157970950e-05 
       1.071756414427e+01       3.251080185594e-05 
       1.157255956364e+01       2.632101900170e-05 
       1.249576238137e+01       2.124277155447e-05 
       1.349261385375e+01       1.707817220000e-05 
       1.456898931416e+01       1.366531018240e-05 
       1.573123280165e+01       1.087095780282e-05 
       1.698619445202e+01       8.585556831560e-06 
       1.834127087176e+01       6.719949135170e-06 
       1.980444873285e+01       5.200844242490e-06 
       2.138435184532e+01       3.968657382802e-06 
       2.309029198506e+01       2.974625463682e-06 
       2.493232377636e+01       2.179124812890e-06 
       2.692130395282e+01       1.549841138717e-06 
       2.906895534573e+01       1.060111914374e-06 
       3.138793597714e+01       6.877618357238e-07 
       3.389191366484e+01       4.141297988733e-07 
       3.659564657905e+01       2.229385742638e-07 
       3.951507022538e+01       9.955512815429e-08 
       4.266739136701e+01       3.038486673885e-08 
       4.607118943941e+01       2.449254542752e-09 
       4.974652605557e+01       3.315724456311e-09 
       5.371506324689e+01       2.119137867462e-08 
       5.800019113685e+01       4.541231847042e-08 
       6.262716579983e+01       6.714532715317e-08 
       6.762325811764e+01       8.012636194267e-08 
       7.301791451110e+01       8.140520607913e-08 
       7.884293049406e+01       7.139509213325e-08 
       8.513263807261e+01       5.357698066971e-08 
       9.192410809424e+01       3.321619587490e-08 
       9.925736873929e+01       1.562011608641e-08 
       1.071756414427e+02       4.360616154714e-09 
       1.157255956364e+02       1.461969611314e-10 
       1.249576238137e+02       9.464328504937e-10 
       1.349261385375e+02       3.373791286012e-09 
