# Matter power spectrum P(k) at redshift z=0
# for k=1.04775e-05 to 67.6233 h/Mpc,
# number of wavenumbers equal to 246
#    1:k (h/Mpc)              2:P (Mpc/h)^3        
       1.047750691338e-05       5.020964806750e+01 
       1.131335172818e-05       5.407048206553e+01 
       1.221587619877e-05       5.822819063919e+01 
       1.319039970550e-05       6.270562589688e+01 
       1.424266598317e-05       6.752731788102e+01 
       1.537887697396e-05       7.271977200257e+01 
       1.660572938097e-05       7.831147241542e+01 
       1.793045413791e-05       8.433311815128e+01 
       1.936085902737e-05       9.081778242446e+01 
       2.090537469909e-05       9.780108061339e+01 
       2.257310435923e-05       1.053213197032e+02 
       2.437387742372e-05       1.134197377001e+02 
       2.631830745176e-05       1.221408202816e+02 
       2.841785470091e-05       1.315324720916e+02 
       3.068489367268e-05       1.416462093730e+02 
       3.313278604643e-05       1.525374500691e+02 
       3.577595943165e-05       1.642660687078e+02 
       3.862999240274e-05       1.768963504868e+02 
       4.171170631739e-05       1.904975992460e+02 
       4.503926445983e-05       2.051444490305e+02 
       4.863227909323e-05       2.209171463752e+02 
       5.251192705226e-05       2.379022222314e+02 
       5.670107455699e-05       2.561927925582e+02 
       6.122441198393e-05       2.758890441791e+02 
       6.610859938837e-05       2.970989225465e+02 
       7.138242363583e-05       3.199385558200e+02 
       7.707696806873e-05       3.445329780878e+02 
       8.322579570814e-05       3.710167315928e+02 
       8.986514707061e-05       3.995346440954e+02 
       9.703415376577e-05       4.302425403884e+02 
       1.047750691338e-04       4.633080762974e+02 
       1.131335172818e-04       4.989116267507e+02 
       1.221587619877e-04       5.372471946561e+02 
       1.319039970550e-04       5.785234124630e+02 
       1.424266598317e-04       6.229645930980e+02 
       1.537887697396e-04       6.708118484951e+02 
       1.660572938097e-04       7.223242660220e+02 
       1.793045413791e-04       7.777801554349e+02 
       1.936085902737e-04       8.374783607333e+02 
       2.090537469909e-04       9.017396264495e+02 
       2.257310435923e-04       9.709080260152e+02 
       2.437387742372e-04       1.045352448644e+03 
       2.631830745176e-04       1.125468122836e+03 
       2.841785470091e-04       1.211678179511e+03 
       3.068489367268e-04       1.304435249091e+03 
       3.313278604643e-04       1.404223052541e+03 
       3.577595943165e-04       1.511558013390e+03 
       3.862999240274e-04       1.626990836502e+03 
       4.171170631739e-04       1.751108027370e+03 
       4.503926445983e-04       1.884533381345e+03 
       4.863227909323e-04       2.027929376471e+03 
       5.251192705226e-04       2.181998446367e+03 
       5.670107455699e-04       2.347484100857e+03 
       6.122441198393e-04       2.525171869337e+03 
       6.610859938837e-04       2.715889981400e+03 
       7.138242363583e-04       2.920509686090e+03 
       7.707696806873e-04       3.139945097711e+03 
       8.322579570814e-04       3.375152334396e+03 
       8.986514707061e-04       3.627127828230e+03 
       9.703415376577e-04       3.896905450016e+03 
       1.047750691338e-03       4.185552170958e+03 
       1.131335172818e-03       4.494162426791e+03 
       1.221587619877e-03       4.823850702662e+03 
       1.319039970550e-03       5.175742737918e+03 
       1.424266598317e-03       5.551019592522e+03 
       1.537887697396e-03       5.950788335886e+03 
       1.660572938097e-03       6.376123046803e+03 
       1.793045413791e-03       6.828073896116e+03 
       1.936085902737e-03       7.307625375386e+03 
       2.090537469909e-03       7.815671898329e+03 
       2.257310435923e-03       8.352990369396e+03 
       2.437387742372e-03       8.920211057551e+03 
       2.631830745176e-03       9.517783061890e+03 
       2.841785470091e-03       1.014593703671e+04 
       3.068489367268e-03       1.080464505744e+04 
       3.313278604643e-03       1.149357459445e+04 
       3.577595943165e-03       1.221203620826e+04 
       3.862999240274e-03       1.295892538506e+04 
       4.171170631739e-03       1.373266002035e+04 
       4.503926445983e-03       1.453111834595e+04 
       4.863227909323e-03       1.535154984227e+04 
       5.251192705226e-03       1.619063613435e+04 
       5.670107455699e-03       1.704431256550e+04 
       6.122441198393e-03       1.790755938444e+04 
       6.610859938837e-03       1.877460352990e+04 
       7.138242363583e-03       1.963872429095e+04 
       7.707696806873e-03       2.049215713401e+04 
       8.322579570814e-03       2.132606727365e+04 
       8.986514707061e-03       2.213054653641e+04 
       9.703415376577e-03       2.289445470780e+04 
       1.047750691338e-02       2.360548385102e+04 
       1.131335172818e-02       2.425022843067e+04 
       1.221587619877e-02       2.481423921492e+04 
       1.319039970550e-02       2.528218653481e+04 
       1.424266598317e-02       2.563814296168e+04 
       1.537887697392e-02       2.586607340028e+04 
       1.660572938023e-02       2.595026518836e+04 
       1.793045412706e-02       2.587633551433e+04 
       1.936085890181e-02       2.563222181882e+04 
       2.090537352463e-02       2.520935833479e+04 
       2.257309535333e-02       2.460448274952e+04 
       2.437382002918e-02       2.382091856156e+04 
       2.631799944462e-02       2.287045777261e+04 
       2.841644545389e-02       2.177450597916e+04 
       3.067933355377e-02       2.056554820869e+04 
       3.311368470740e-02       1.928732807476e+04 
       3.571840443502e-02       1.799406966696e+04 
       3.847720348444e-02       1.674680365555e+04 
       4.135335538431e-02       1.560463667839e+04 
       4.429361667738e-02       1.461036320681e+04 
       4.724366439141e-02       1.378055653839e+04 
       5.016480835311e-02       1.310507955811e+04 
       5.303989620246e-02       1.255714496511e+04 
       5.586870669566e-02       1.210425660976e+04 
       5.866042680613e-02       1.171463175990e+04 
       6.142798932958e-02       1.136046557235e+04 
       6.418496440164e-02       1.101856183360e+04 
       6.694418833788e-02       1.067069444469e+04 
       6.971731106057e-02       1.030361512552e+04 
       7.251476155766e-02       9.908992439141e+03 
       7.534587671527e-02       9.483785259776e+03 
       7.821907666265e-02       9.029498349258e+03 
       8.114203772912e-02       8.552322155839e+03 
       8.412184535029e-02       8.061965616519e+03 
       8.716512279304e-02       7.570769771465e+03 
       9.027813695930e-02       7.092508579599e+03 
       9.346688431697e-02       6.640512558041e+03 
       9.673716028276e-02       6.226696121988e+03 
       1.000946150830e-01       5.859940132300e+03 
       1.035447986537e-01       5.545240429224e+03 
       1.070931966762e-01       5.283122396093e+03 
       1.107452594425e-01       5.069422679826e+03 
       1.145064249153e-01       4.895251760110e+03 
       1.183821370918e-01       4.747844714218e+03 
       1.223778605862e-01       4.611740389032e+03 
       1.264990921987e-01       4.470619858545e+03 
       1.307513701367e-01       4.310273189137e+03 
       1.351402814784e-01       4.121392138511e+03 
       1.396714684203e-01       3.902067916041e+03 
       1.443506338194e-01       3.658639301665e+03 
       1.491835465229e-01       3.404480796878e+03 
       1.541760469708e-01       3.156672959969e+03 
       1.593340535561e-01       2.931981643425e+03 
       1.646635702297e-01       2.742370423632e+03 
       1.701706958456e-01       2.592260692870e+03 
       1.758616357459e-01       2.477236985740e+03 
       1.817427160982e-01       2.385182598619e+03 
       1.878204015065e-01       2.300357771804e+03 
       1.941013164283e-01       2.205757088812e+03 
       2.005922709503e-01       2.090815898147e+03 
       2.073002914972e-01       1.956461542482e+03 
       2.142326570816e-01       1.814194103757e+03 
       2.213969417533e-01       1.679298446433e+03 
       2.288010639706e-01       1.563846501109e+03 
       2.364533437147e-01       1.472689631675e+03 
       2.443625682930e-01       1.401512117971e+03 
       2.525380679504e-01       1.338414177393e+03 
       2.609898026346e-01       1.270902893483e+03 
       2.697284615565e-01       1.193382171986e+03 
       2.787655775689e-01       1.109334096441e+03 
       2.881136588829e-01       1.028769607932e+03 
       2.977863412677e-01       9.604832172677e+02 
       3.077985646929e-01       9.050233420621e+02 
       3.181667794071e-01       8.561458395062e+02 
       3.289091877812e-01       8.061886879376e+02 
       3.400460299658e-01       7.523910599551e+02 
       3.515999236474e-01       6.989224083301e+02 
       3.635962711085e-01       6.510644163468e+02 
       3.760637506334e-01       6.101231225929e+02 
       3.890349143879e-01       5.721327563901e+02 
       4.025469216825e-01       5.337827395436e+02 
       4.166424456376e-01       4.956312290959e+02 
       4.313708035863e-01       4.604701291830e+02 
       4.467893782977e-01       4.287770598153e+02 
       4.629654199664e-01       3.987744142696e+02 
       4.799783501994e-01       3.692423438343e+02 
       4.979227319373e-01       3.412404651285e+02 
       5.169121270864e-01       3.154836861741e+02 
       5.370841404489e-01       2.908359158727e+02 
       5.586070464571e-01       2.671068947639e+02 
       5.816885094930e-01       2.448092526415e+02 
       6.065870144995e-01       2.235685331413e+02 
       6.336266468475e-01       2.032112606747e+02 
       6.632156059511e-01       1.838791112084e+02 
       6.958678639263e-01       1.653552545806e+02 
       7.322247985589e-01       1.476959234143e+02 
       7.730680195114e-01       1.308342936672e+02 
       8.193049553677e-01       1.148319488349e+02 
       8.718988016039e-01       9.976314390488e+01 
       9.317218031082e-01       8.577838071432e+01 
       9.993660908989e-01       7.305508994639e+01 
       1.075037110174e+00       6.173609887196e+01 
       1.158653485707e+00       5.187934346365e+01 
       1.250099157308e+00       4.344045209489e+01 
       1.349432401273e+00       3.628946611336e+01 
       1.456947457397e+00       3.026801729184e+01 
       1.573135111331e+00       2.521468085230e+01 
       1.698621895592e+00       2.098210195292e+01 
       1.834127512934e+00       1.744244481454e+01 
       1.980444934528e+00       1.448572547998e+01 
       2.138435191726e+00       1.201902819941e+01 
       2.309029199186e+00       9.963218258301e+00 
       2.493232377687e+00       8.251827975996e+00 
       2.692130395285e+00       6.828620519455e+00 
       2.906895534573e+00       5.646274937068e+00 
       3.138793597714e+00       4.664896831786e+00 
       3.389191366484e+00       3.851135882127e+00 
       3.659564657905e+00       3.176946209696e+00 
       3.951507022538e+00       2.618892264705e+00 
       4.266739136701e+00       2.157351326446e+00 
       4.607118943941e+00       1.775932479483e+00 
       4.974652605557e+00       1.460993476016e+00 
       5.371506324689e+00       1.201127813482e+00 
       5.800019113685e+00       9.868807846351e-01 
       6.262716579983e+00       8.103544649604e-01 
       6.762325811764e+00       6.650082344935e-01 
       7.301791451110e+00       5.454301635598e-01 
       7.884293049406e+00       4.471003416854e-01 
       8.513263807261e+00       3.662978190137e-01 
       9.192410809424e+00       2.999405218335e-01 
       9.925736873929e+00       2.454800503372e-01 
       1.071756414427e+01       2.008087076015e-01 
       1.157255956364e+01       1.641847201122e-01 
       1.249576238137e+01       1.341761276056e-01 
       1.349261385375e+01       1.096040598475e-01 
       1.456898931416e+01       8.948954865925e-02 
       1.573123280165e+01       7.303397724187e-02 
       1.698619445202e+01       5.957796172788e-02 
       1.834127087176e+01       4.858096651729e-02 
       1.980444873285e+01       3.959717710149e-02 
       2.138435184532e+01       3.226095135139e-02 
       2.309029198506e+01       2.627331374415e-02 
       2.493232377636e+01       2.138847547124e-02 
       2.692130395282e+01       1.740480642616e-02 
       2.906895534573e+01       1.415735235969e-02 
       3.138793597714e+01       1.151123477820e-02 
       3.389191366484e+01       9.355992154223e-03 
       3.659564657905e+01       7.601233743184e-03 
       3.951507022538e+01       6.173115424804e-03 
       4.266739136701e+01       5.011162200280e-03 
       4.607118943941e+01       4.066099123985e-03 
       4.974652605557e+01       3.297955663868e-03 
       5.371506324689e+01       2.673670186951e-03 
       5.800019113685e+01       2.166525406571e-03 
       6.262716579983e+01       1.754712015200e-03 
       6.762325811764e+01       1.420414389846e-03 
