# Matter power spectrum P(k) at redshift z=99
# for k=1.04775e-05 to 134.926 h/Mpc,
# number of wavenumbers equal to 255
#    1:k (h/Mpc)              2:P (Mpc/h)^3        
       1.047750691338e-05       7.261927095429e-03 
       1.131335172818e-05       7.820332150910e-03 
       1.221587619877e-05       8.421675382497e-03 
       1.319039970550e-05       9.069257738183e-03 
       1.424266598317e-05       9.766636451319e-03 
       1.537887697396e-05       1.051763973662e-02 
       1.660572938097e-05       1.132639250774e-02 
       1.793045413791e-05       1.219733201532e-02 
       1.936085902737e-05       1.313524187229e-02 
       2.090537469909e-05       1.414527085006e-02 
       2.257310435923e-05       1.523296544523e-02 
       2.437387742372e-05       1.640429654674e-02 
       2.631830745176e-05       1.766569603323e-02 
       2.841785470091e-05       1.902408711203e-02 
       3.068489367268e-05       2.048692967487e-02 
       3.313278604643e-05       2.206225467596e-02 
       3.577595943165e-05       2.375870883902e-02 
       3.862999240274e-05       2.558560669877e-02 
       4.171170631739e-05       2.755297672569e-02 
       4.503926445983e-05       2.967161933477e-02 
       4.863227909323e-05       3.195316455725e-02 
       5.251192705226e-05       3.441013466209e-02 
       5.670107455699e-05       3.705601741783e-02 
       6.122441198393e-05       3.990533412924e-02 
       6.610859938837e-05       4.297372242625e-02 
       7.138242363583e-05       4.627802054977e-02 
       7.707696806873e-05       4.983636159996e-02 
       8.322579570814e-05       5.366826787050e-02 
       8.986514707061e-05       5.779476319859e-02 
       9.703415376577e-05       6.223848221971e-02 
       1.047750691338e-04       6.702379825167e-02 
       1.131335172818e-04       7.217695031221e-02 
       1.221587619877e-04       7.772619030528e-02 
       1.319039970550e-04       8.370193380248e-02 
       1.424266598317e-04       9.013692506859e-02 
       1.537887697396e-04       9.706641130610e-02 
       1.660572938097e-04       1.045283343134e-01 
       1.793045413791e-04       1.125635329210e-01 
       1.936085902737e-04       1.212159592337e-01 
       2.090537469909e-04       1.305329107465e-01 
       2.257310435923e-04       1.405652819393e-01 
       2.437387742372e-04       1.513678275110e-01 
       2.631830745176e-04       1.629994475171e-01 
       2.841785470091e-04       1.755234890519e-01 
       3.068489367268e-04       1.890080645343e-01 
       3.313278604643e-04       2.035263977479e-01 
       3.577595943165e-04       2.191571778096e-01 
       3.862999240274e-04       2.359849423316e-01 
       4.171170631739e-04       2.541004713062e-01 
       4.503926445983e-04       2.736012061223e-01 
       4.863227909323e-04       2.945916774712e-01 
       5.251192705226e-04       3.171839507938e-01 
       5.670107455699e-04       3.414980769187e-01 
       6.122441198393e-04       3.676625416385e-01 
       6.610859938837e-04       3.958147272954e-01 
       7.138242363583e-04       4.261013332159e-01 
       7.707696806873e-04       4.586787880949e-01 
       8.322579570814e-04       4.937136112926e-01 
       8.986514707061e-04       5.313826962186e-01 
       9.703415376577e-04       5.718735176917e-01 
       1.047750691338e-03       6.153841926366e-01 
       1.131335172818e-03       6.621233623240e-01 
       1.221587619877e-03       7.123098743769e-01 
       1.319039970550e-03       7.661721263898e-01 
       1.424266598317e-03       8.239547181408e-01 
       1.537887697396e-03       8.859012282911e-01 
       1.660572938097e-03       9.522589495819e-01 
       1.793045413791e-03       1.023280284739e+00 
       1.936085902737e-03       1.099216542122e+00 
       2.090537469909e-03       1.180313285044e+00 
       2.257310435923e-03       1.266804486803e+00 
       2.437387742372e-03       1.358905328437e+00 
       2.631830745176e-03       1.456803285895e+00 
       2.841785470091e-03       1.560647662940e+00 
       3.068489367268e-03       1.670537010419e+00 
       3.313278604643e-03       1.786505039396e+00 
       3.577595943165e-03       1.908504409756e+00 
       3.862999240274e-03       2.036389468227e+00 
       4.171170631739e-03       2.169898252038e+00 
       4.503926445983e-03       2.308634490873e+00 
       4.863227909323e-03       2.452050673212e+00 
       5.251192705226e-03       2.599434678934e+00 
       5.670107455699e-03       2.749901130335e+00 
       6.122441198393e-03       2.902390115523e+00 
       6.610859938837e-03       3.055671972639e+00 
       7.138242363583e-03       3.208360102903e+00 
       7.707696806873e-03       3.358926567692e+00 
       8.322579570814e-03       3.505728060479e+00 
       8.986514707061e-03       3.647013093223e+00 
       9.703415376577e-03       3.780925994024e+00 
       1.047750691338e-02       3.905492841657e+00 
       1.131335172818e-02       4.018589556137e+00 
       1.221587619877e-02       4.117902817641e+00 
       1.319039970550e-02       4.200917588771e+00 
       1.424266598317e-02       4.264943604465e+00 
       1.537887697392e-02       4.307219455439e+00 
       1.660572938023e-02       4.325062108845e+00 
       1.793045412706e-02       4.316060043785e+00 
       1.936085890181e-02       4.278228442358e+00 
       2.090537352463e-02       4.210203988063e+00 
       2.257309535333e-02       4.111417988029e+00 
       2.437382002918e-02       3.982420035421e+00 
       2.631799944462e-02       3.825167528333e+00 
       2.841644545389e-02       3.643280791067e+00 
       3.067933355377e-02       3.442196881921e+00 
       3.311368470740e-02       3.229239360063e+00 
       3.571840443502e-02       3.013513565497e+00 
       3.847720348444e-02       2.805281478434e+00 
       4.135335538431e-02       2.614406676797e+00 
       4.429361667738e-02       2.448127496107e+00 
       4.724366439141e-02       2.309235256934e+00 
       5.016480835311e-02       2.196109030774e+00 
       5.303989620246e-02       2.104362800980e+00 
       5.586870669566e-02       2.028454758182e+00 
       5.866042680613e-02       1.963146689915e+00 
       6.142798932958e-02       1.903770294980e+00 
       6.418496440164e-02       1.846468996296e+00 
       6.694418833788e-02       1.788186454389e+00 
       6.971731106057e-02       1.726703841839e+00 
       7.251476155766e-02       1.660641744654e+00 
       7.534587671527e-02       1.589457133892e+00 
       7.821907666265e-02       1.513423083960e+00 
       8.114203772912e-02       1.433554451116e+00 
       8.412184535029e-02       1.351476992564e+00 
       8.716512279304e-02       1.269256961520e+00 
       9.027813695930e-02       1.189175620623e+00 
       9.346688431697e-02       1.113482648359e+00 
       9.673716028276e-02       1.044155162456e+00 
       1.000946150830e-01       9.826857428708e-01 
       1.035447986537e-01       9.299154920453e-01 
       1.070931966762e-01       8.859361998499e-01 
       1.107452594425e-01       8.500474535718e-01 
       1.145064249153e-01       8.207786084086e-01 
       1.183821370918e-01       7.959981544053e-01 
       1.223778605862e-01       7.731180207249e-01 
       1.264990921987e-01       7.494223642943e-01 
       1.307513701367e-01       7.225268298945e-01 
       1.351402814784e-01       6.908768132978e-01 
       1.396714684203e-01       6.541477587503e-01 
       1.443506338194e-01       6.133922673298e-01 
       1.491835465229e-01       5.708324633157e-01 
       1.541760469708e-01       5.293271335369e-01 
       1.593340535561e-01       4.916732099338e-01 
       1.646635702297e-01       4.598811642751e-01 
       1.701706958456e-01       4.346877046688e-01 
       1.758616357459e-01       4.153663697243e-01 
       1.817427160982e-01       3.998933910954e-01 
       1.878204015065e-01       3.856369797234e-01 
       1.941013164283e-01       3.697618859647e-01 
       2.005922709503e-01       3.504973719705e-01 
       2.073002914972e-01       3.279928007105e-01 
       2.142326570816e-01       3.041622994407e-01 
       2.213969417533e-01       2.815597680630e-01 
       2.288010639706e-01       2.622030494182e-01 
       2.364533437147e-01       2.469060626537e-01 
       2.443625682930e-01       2.349553710612e-01 
       2.525380679504e-01       2.243580342736e-01 
       2.609898026346e-01       2.130320522262e-01 
       2.697284615565e-01       2.000386374779e-01 
       2.787655775689e-01       1.859554617908e-01 
       2.881136588829e-01       1.724516705457e-01 
       2.977863412677e-01       1.609990023909e-01 
       3.077985646929e-01       1.516920020804e-01 
       3.181667794071e-01       1.434885741449e-01 
       3.289091877812e-01       1.351088394350e-01 
       3.400460299658e-01       1.260902625327e-01 
       3.515999236474e-01       1.171263660766e-01 
       3.635962711085e-01       1.090996691481e-01 
       3.760637506334e-01       1.022305046769e-01 
       3.890349143879e-01       9.585697984199e-02 
       4.025469216825e-01       8.942528270410e-02 
       4.166424456376e-01       8.302784183589e-02 
       4.313708035863e-01       7.713003764975e-02 
       4.467893782977e-01       7.181342538722e-02 
       4.629654199664e-01       6.678005169223e-02 
       4.799783501994e-01       6.182693663809e-02 
       4.979227319373e-01       5.713001372186e-02 
       5.169121270864e-01       5.280893403512e-02 
       5.370841404489e-01       4.867406527880e-02 
       5.586070464571e-01       4.469346372564e-02 
       5.816885094930e-01       4.095280387790e-02 
       6.065870144995e-01       3.738902296301e-02 
       6.336266468475e-01       3.397365661544e-02 
       6.632156059511e-01       3.073009219909e-02 
       6.958678639263e-01       2.762193309465e-02 
       7.322247985589e-01       2.465872139982e-02 
       7.730680195114e-01       2.182937026265e-02 
       8.193049553677e-01       1.914385647388e-02 
       8.718988016039e-01       1.661482873874e-02 
       9.317218031082e-01       1.426785010953e-02 
       9.993660908989e-01       1.213227384478e-02 
       1.075037110174e+00       1.023229498411e-02 
       1.158653485707e+00       8.577618639576e-03 
       1.250099157308e+00       7.160930663200e-03 
       1.349432401273e+00       5.960475376486e-03 
       1.456947457397e+00       4.949656348193e-03 
       1.573135111331e+00       4.101421832503e-03 
       1.698621895592e+00       3.391127458314e-03 
       1.834127512934e+00       2.797330077502e-03 
       1.980444934528e+00       2.301572111285e-03 
       2.138435191726e+00       1.888340637657e-03 
       2.309029199186e+00       1.544351204080e-03 
       2.493232377687e+00       1.258490942296e-03 
       2.692130395285e+00       1.021323665986e-03 
       2.906895534573e+00       8.249541154401e-04 
       3.138793597714e+00       6.626961879589e-04 
       3.389191366484e+00       5.289736214027e-04 
       3.659564657905e+00       4.191107309643e-04 
       3.951507022538e+00       3.291599617651e-04 
       4.266739136701e+00       2.558576630507e-04 
       4.607118943941e+00       1.964474846499e-04 
       4.974652605557e+00       1.486230146667e-04 
       5.371506324689e+00       1.104620196661e-04 
       5.800019113685e+00       8.034390073944e-05 
       6.262716579983e+00       5.689641564477e-05 
       6.762325811764e+00       3.896456953973e-05 
       7.301791451110e+00       2.556567792988e-05 
       7.884293049406e+00       1.584864946169e-05 
       8.513263807261e+00       9.083370724402e-06 
       9.192410809424e+00       4.635520719548e-06 
       9.925736873929e+00       1.952405472680e-06 
       1.071756414427e+01       5.564869460242e-07 
       1.157255956364e+01       3.937361269825e-08 
       1.249576238137e+01       6.072547682312e-08 
       1.349261385375e+01       3.485465084610e-07 
       1.456898931416e+01       7.000000786359e-07 
       1.573123280165e+01       9.802576446677e-07 
       1.698619445202e+01       1.118246199892e-06 
       1.834127087176e+01       1.098850600532e-06 
       1.980444873285e+01       9.490695467729e-07 
       2.138435184532e+01       7.213330437172e-07 
       2.309029198506e+01       4.752822488924e-07 
       2.493232377636e+01       2.616618165533e-07 
       2.692130395282e+01       1.107469272802e-07 
       2.906895534573e+01       2.844757056015e-08 
       3.138793597714e+01       1.030944257728e-09 
       3.389191366484e+01       4.628231532248e-09 
       3.659564657905e+01       1.637607185567e-08 
       3.951507022538e+01       2.229673879507e-08 
       4.266739136701e+01       1.922964908077e-08 
       4.607118943941e+01       1.131892949455e-08 
       4.974652605557e+01       4.150457908535e-09 
       5.371506324689e+01       5.824735975914e-10 
       5.800019113685e+01       3.743152828024e-11 
       6.262716579983e+01       4.961899884767e-10 
       6.762325811764e+01       6.256517957443e-10 
       7.301791451110e+01       3.435322222614e-10 
       7.884293049406e+01       7.379208226740e-11 
       8.513263807261e+01       2.930699729493e-14 
       9.192410809424e+01       1.656485821752e-11 
       9.925736873929e+01       1.748294723282e-11 
       1.071756414427e+02       4.458858082057e-12 
       1.157255956364e+02       1.308537281727e-16 
       1.249576238137e+02       9.683126186117e-13 
       1.349261385375e+02       7.333636566333e-13 
