# Matter power spectrum P(k) at redshift z=0
# for k=1.04775e-05 to 134.926 h/Mpc,
# number of wavenumbers equal to 255
#    1:k (h/Mpc)              2:P (Mpc/h)^3        
       1.047750691338e-05       5.020963906805e+01 
       1.131335172818e-05       5.407048937148e+01 
       1.221587619877e-05       5.822820724030e+01 
       1.319039970550e-05       6.270562047249e+01 
       1.424266598317e-05       6.752731476099e+01 
       1.537887697396e-05       7.271975715396e+01 
       1.660572938097e-05       7.831147101247e+01 
       1.793045413791e-05       8.433312302136e+01 
       1.936085902737e-05       9.081780130647e+01 
       2.090537469909e-05       9.780107448904e+01 
       2.257310435923e-05       1.053212938596e+02 
       2.437387742372e-05       1.134197268469e+02 
       2.631830745176e-05       1.221408285622e+02 
       2.841785470091e-05       1.315324590474e+02 
       3.068489367268e-05       1.416461671361e+02 
       3.313278604643e-05       1.525374478884e+02 
       3.577595943165e-05       1.642660517269e+02 
       3.862999240274e-05       1.768963429380e+02 
       4.171170631739e-05       1.904975997820e+02 
       4.503926445983e-05       2.051444243233e+02 
       4.863227909323e-05       2.209171412048e+02 
       5.251192705226e-05       2.379022266148e+02 
       5.670107455699e-05       2.561927841245e+02 
       6.122441198393e-05       2.758890479798e+02 
       6.610859938837e-05       2.970989213998e+02 
       7.138242363583e-05       3.199385559926e+02 
       7.707696806873e-05       3.445329727001e+02 
       8.322579570814e-05       3.710167324001e+02 
       8.986514707061e-05       3.995346444115e+02 
       9.703415376577e-05       4.302425389339e+02 
       1.047750691338e-04       4.633080773445e+02 
       1.131335172818e-04       4.989116271587e+02 
       1.221587619877e-04       5.372471938774e+02 
       1.319039970550e-04       5.785234116854e+02 
       1.424266598317e-04       6.229645933101e+02 
       1.537887697396e-04       6.708118487470e+02 
       1.660572938097e-04       7.223242657715e+02 
       1.793045413791e-04       7.777801571211e+02 
       1.936085902737e-04       8.374783638282e+02 
       2.090537469909e-04       9.017396276662e+02 
       2.257310435923e-04       9.709080297521e+02 
       2.437387742372e-04       1.045352453360e+03 
       2.631830745176e-04       1.125468127700e+03 
       2.841785470091e-04       1.211678185902e+03 
       3.068489367268e-04       1.304435256033e+03 
       3.313278604643e-04       1.404223062880e+03 
       3.577595943165e-04       1.511558029526e+03 
       3.862999240274e-04       1.626990852490e+03 
       4.171170631739e-04       1.751108045521e+03 
       4.503926445983e-04       1.884533404653e+03 
       4.863227909323e-04       2.027929406828e+03 
       5.251192705226e-04       2.181998483752e+03 
       5.670107455699e-04       2.347484145864e+03 
       6.122441198393e-04       2.525171924942e+03 
       6.610859938837e-04       2.715890054660e+03 
       7.138242363583e-04       2.920509778920e+03 
       7.707696806873e-04       3.139945207549e+03 
       8.322579570814e-04       3.375152476388e+03 
       8.986514707061e-04       3.627128019671e+03 
       9.703415376577e-04       3.896905668512e+03 
       1.047750691338e-03       4.185552451367e+03 
       1.131335172818e-03       4.494162774007e+03 
       1.221587619877e-03       4.823851148631e+03 
       1.319039970550e-03       5.175743276248e+03 
       1.424266598317e-03       5.551020295520e+03 
       1.537887697396e-03       5.950789181341e+03 
       1.660572938097e-03       6.376124144778e+03 
       1.793045413791e-03       6.828075229804e+03 
       1.936085902737e-03       7.307627042350e+03 
       2.090537469909e-03       7.815673947917e+03 
       2.257310435923e-03       8.352992908763e+03 
       2.437387742372e-03       8.920214288239e+03 
       2.631830745176e-03       9.517787143667e+03 
       2.841785470091e-03       1.014594127749e+04 
       3.068489367268e-03       1.080465132778e+04 
       3.313278604643e-03       1.149358234830e+04 
       3.577595943165e-03       1.221204580950e+04 
       3.862999240274e-03       1.295893659050e+04 
       4.171170631739e-03       1.373267329258e+04 
       4.503926445983e-03       1.453113488281e+04 
       4.863227909323e-03       1.535156669212e+04 
       5.251192705226e-03       1.619062737415e+04 
       5.670107455699e-03       1.704432744156e+04 
       6.122441198393e-03       1.790758986105e+04 
       6.610859938837e-03       1.877463903637e+04 
       7.138242363583e-03       1.963872851180e+04 
       7.707696806873e-03       2.049211145424e+04 
       8.322579570814e-03       2.132606741640e+04 
       8.986514707061e-03       2.213061786150e+04 
       9.703415376577e-03       2.289440906566e+04 
       1.047750691338e-02       2.360547653450e+04 
       1.131335172818e-02       2.425002238748e+04 
       1.221587619877e-02       2.481364287677e+04 
       1.319039970550e-02       2.528218274695e+04 
       1.424266598317e-02       2.563807755664e+04 
       1.537887697392e-02       2.586571008601e+04 
       1.660572938023e-02       2.595034353086e+04 
       1.793045412706e-02       2.587591664111e+04 
       1.936085890181e-02       2.563210468107e+04 
       2.090537352463e-02       2.520922871094e+04 
       2.257309535333e-02       2.460424627615e+04 
       2.437382002918e-02       2.382069626282e+04 
       2.631799944462e-02       2.287020711905e+04 
       2.841644545389e-02       2.177436761955e+04 
       3.067933355377e-02       2.056535690540e+04 
       3.311368470740e-02       1.928709490562e+04 
       3.571840443502e-02       1.799387006722e+04 
       3.847720348444e-02       1.674667925923e+04 
       4.135335538431e-02       1.560445379544e+04 
       4.429361667738e-02       1.461021790868e+04 
       4.724366439141e-02       1.378041713768e+04 
       5.016480835311e-02       1.310491263865e+04 
       5.303989620246e-02       1.255707848772e+04 
       5.586870669566e-02       1.210413219686e+04 
       5.866042680613e-02       1.171456626725e+04 
       6.142798932958e-02       1.136001645723e+04 
       6.418496440164e-02       1.101847017082e+04 
       6.694418833788e-02       1.067051570574e+04 
       6.971731106057e-02       1.030346863192e+04 
       7.251476155766e-02       9.908880819872e+03 
       7.534587671527e-02       9.483423697704e+03 
       7.821907666265e-02       9.029094267699e+03 
       8.114203772912e-02       8.551904136005e+03 
       8.412184535029e-02       8.061692431010e+03 
       8.716512279304e-02       7.570495775078e+03 
       9.027813695930e-02       7.092200768654e+03 
       9.346688431697e-02       6.640208038696e+03 
       9.673716028276e-02       6.226385274122e+03 
       1.000946150830e-01       5.859593294986e+03 
       1.035447986537e-01       5.544869071633e+03 
       1.070931966762e-01       5.282760959069e+03 
       1.107452594425e-01       5.069035305807e+03 
       1.145064249153e-01       4.894831186805e+03 
       1.183821370918e-01       4.747369350651e+03 
       1.223778605862e-01       4.611223882701e+03 
       1.264990921987e-01       4.470073492621e+03 
       1.307513701367e-01       4.309672901182e+03 
       1.351402814784e-01       4.120771671988e+03 
       1.396714684203e-01       3.901412303132e+03 
       1.443506338194e-01       3.657971117312e+03 
       1.491835465229e-01       3.403753529859e+03 
       1.541760469708e-01       3.155900575500e+03 
       1.593340535561e-01       2.931144091431e+03 
       1.646635702297e-01       2.741525589783e+03 
       1.701706958456e-01       2.591367776882e+03 
       1.758616357459e-01       2.476308120252e+03 
       1.817427160982e-01       2.384190650773e+03 
       1.878204015065e-01       2.299324429032e+03 
       1.941013164283e-01       2.204656535615e+03 
       2.005922709503e-01       2.089655641839e+03 
       2.073002914972e-01       1.955278010978e+03 
       2.142326570816e-01       1.812921620719e+03 
       2.213969417533e-01       1.677960121252e+03 
       2.288010639706e-01       1.562464912179e+03 
       2.364533437147e-01       1.471240251745e+03 
       2.443625682930e-01       1.399996387641e+03 
       2.525380679504e-01       1.336825116470e+03 
       2.609898026346e-01       1.269230506855e+03 
       2.697284615565e-01       1.191625242188e+03 
       2.787655775689e-01       1.107502935677e+03 
       2.881136588829e-01       1.026856941935e+03 
       2.977863412677e-01       9.584893632540e+02 
       3.077985646929e-01       9.029382076192e+02 
       3.181667794071e-01       8.539547441708e+02 
       3.289091877812e-01       8.039037620238e+02 
       3.400460299658e-01       7.500137816264e+02 
       3.515999236474e-01       6.964458292162e+02 
       3.635962711085e-01       6.484818079194e+02 
       3.760637506334e-01       6.074314385635e+02 
       3.890349143879e-01       5.693223969433e+02 
       4.025469216825e-01       5.308520620820e+02 
       4.166424456376e-01       4.925824300458e+02 
       4.313708035863e-01       4.572953600355e+02 
       4.467893782977e-01       4.254696742650e+02 
       4.629654199664e-01       3.953263777369e+02 
       4.799783501994e-01       3.656533928299e+02 
       4.979227319373e-01       3.375053802194e+02 
       5.169121270864e-01       3.115905345514e+02 
       5.370841404489e-01       2.867780676524e+02 
       5.586070464571e-01       2.628786300295e+02 
       5.816885094930e-01       2.404021655722e+02 
       6.065870144995e-01       2.189693802962e+02 
       6.336266468475e-01       1.984100442394e+02 
       6.632156059511e-01       1.788626661425e+02 
       6.958678639263e-01       1.601085445914e+02 
       7.322247985589e-01       1.422012022665e+02 
       7.730680195114e-01       1.250723520659e+02 
       8.193049553677e-01       1.087821954036e+02 
       8.718988016039e-01       9.340765537402e+01 
       9.317218031082e-01       7.910063197272e+01 
       9.993660908989e-01       6.604596651924e+01 
       1.075037110174e+00       5.439886880424e+01 
       1.158653485707e+00       4.423042990971e+01 
       1.250099157308e+00       3.551183139654e+01 
       1.349432401273e+00       2.812703831774e+01 
       1.456947457397e+00       2.193163888756e+01 
       1.573135111331e+00       1.677826490858e+01 
       1.698621895592e+00       1.253307174793e+01 
       1.834127512934e+00       9.080152717224e+00 
       1.980444934528e+00       6.321757112774e+00 
       2.138435191726e+00       4.172020118298e+00 
       2.309029199186e+00       2.554548814254e+00 
       2.493232377687e+00       1.399518491203e+00 
       2.692130395285e+00       6.381609063724e-01 
       2.906895534573e+00       2.016667795371e-01 
       3.138793597714e+00       1.897093836276e-02 
       3.389191366484e+00       1.705384944221e-02 
       3.659564657905e+00       1.231945871315e-01 
       3.951507022538e+00       2.693209999451e-01 
       4.266739136701e+00       3.980798979706e-01 
       4.607118943941e+00       4.694834516972e-01 
       4.974652605557e+00       4.660791846203e-01 
       5.371506324689e+00       3.937036166858e-01 
       5.800019113685e+00       2.789426249094e-01 
       6.262716579983e+00       1.579157479042e-01 
       6.762325811764e+00       6.275901884381e-02 
       7.301791451110e+00       1.128536031771e-02 
       7.884293049406e+00       3.183650319684e-04 
       8.513263807261e+00       1.142265029073e-02 
       9.192410809424e+00       2.310103722368e-02 
       9.925736873929e+00       2.347149508845e-02 
       1.071756414427e+01       1.420951198952e-02 
       1.157255956364e+01       4.444071781750e-03 
       1.249576238137e+01       2.007813378890e-04 
       1.349261385375e+01       4.966602553010e-04 
       1.456898931416e+01       1.236675095753e-03 
       1.573123280165e+01       7.873477464313e-04 
       1.698619445202e+01       1.312502035469e-04 
       1.834127087176e+01       6.284159168615e-06 
       1.980444873285e+01       4.965354551460e-05 
       2.138435184532e+01       1.934184521074e-05 
       2.309029198506e+01       8.137298993359e-10 
       2.493232377636e+01       1.690145953932e-06 
       2.692130395282e+01       2.683326993697e-07 
       2.906895534573e+01       1.163715350438e-07 
       3.138793597714e+01       2.066367480450e-08 
       3.389191366484e+01       2.137912218542e-09 
       3.659564657905e+01       2.804893008092e-09 
       3.951507022538e+01       2.283514326284e-09 
       4.266739136701e+01       9.103398601608e-10 
       4.607118943941e+01       5.995961795172e-09 
       4.974652605557e+01       6.374239009621e-10 
       5.371506324689e+01       2.088965811096e-09 
       5.800019113685e+01       1.608987743877e-08 
       6.262716579983e+01       8.242660560692e-10 
       6.762325811764e+01       5.975737499834e-08 
       7.301791451110e+01       4.918140433644e-10 
       7.884293049406e+01       7.150456622236e-10 
       8.513263807261e+01       5.526200929197e-11 
       9.192410809424e+01       1.885637780764e-11 
       9.925736873929e+01       3.201846612920e-09 
       1.071756414427e+02       1.437339544372e-12 
       1.157255956364e+02       1.446163148884e-10 
       1.249576238137e+02       6.659658503189e-10 
       1.349261385375e+02       2.925880919515e-11 
