# Matter power spectrum P(k) at redshift z=99
# for k=1.04775e-05 to 67.6233 h/Mpc,
# number of wavenumbers equal to 246
#    1:k (h/Mpc)              2:P (Mpc/h)^3        
       1.047750691338e-05       7.261927673120e-03 
       1.131335172818e-05       7.820331745738e-03 
       1.221587619877e-05       8.421675986490e-03 
       1.319039970550e-05       9.069258192196e-03 
       1.424266598317e-05       9.766638404422e-03 
       1.537887697396e-05       1.051764069682e-02 
       1.660572938097e-05       1.132639105520e-02 
       1.793045413791e-05       1.219733231417e-02 
       1.936085902737e-05       1.313524224381e-02 
       2.090537469909e-05       1.414527121894e-02 
       2.257310435923e-05       1.523296272192e-02 
       2.437387742372e-05       1.640429444530e-02 
       2.631830745176e-05       1.766569582178e-02 
       2.841785470091e-05       1.902408601793e-02 
       3.068489367268e-05       2.048692970592e-02 
       3.313278604643e-05       2.206225513594e-02 
       3.577595943165e-05       2.375870704909e-02 
       3.862999240274e-05       2.558560727479e-02 
       4.171170631739e-05       2.755297763344e-02 
       4.503926445983e-05       2.967161927315e-02 
       4.863227909323e-05       3.195316450832e-02 
       5.251192705226e-05       3.441013519285e-02 
       5.670107455699e-05       3.705601722524e-02 
       6.122441198393e-05       3.990533413562e-02 
       6.610859938837e-05       4.297372168204e-02 
       7.138242363583e-05       4.627802141689e-02 
       7.707696806873e-05       4.983636194160e-02 
       8.322579570814e-05       5.366826847232e-02 
       8.986514707061e-05       5.779476394569e-02 
       9.703415376577e-05       6.223848243886e-02 
       1.047750691338e-04       6.702379865641e-02 
       1.131335172818e-04       7.217695153382e-02 
       1.221587619877e-04       7.772619073575e-02 
       1.319039970550e-04       8.370193432377e-02 
       1.424266598317e-04       9.013692507548e-02 
       1.537887697396e-04       9.706641242572e-02 
       1.660572938097e-04       1.045283354272e-01 
       1.793045413791e-04       1.125635349068e-01 
       1.936085902737e-04       1.212159614968e-01 
       2.090537469909e-04       1.305329132715e-01 
       2.257310435923e-04       1.405652846215e-01 
       2.437387742372e-04       1.513678302540e-01 
       2.631830745176e-04       1.629994504871e-01 
       2.841785470091e-04       1.755234921225e-01 
       3.068489367268e-04       1.890080670413e-01 
       3.313278604643e-04       2.035264002436e-01 
       3.577595943165e-04       2.191571803681e-01 
       3.862999240274e-04       2.359849437592e-01 
       4.171170631739e-04       2.541004741539e-01 
       4.503926445983e-04       2.736012080278e-01 
       4.863227909323e-04       2.945916790966e-01 
       5.251192705226e-04       3.171839525182e-01 
       5.670107455699e-04       3.414980764002e-01 
       6.122441198393e-04       3.676625413101e-01 
       6.610859938837e-04       3.958147252304e-01 
       7.138242363583e-04       4.261013284908e-01 
       7.707696806873e-04       4.586787792353e-01 
       8.322579570814e-04       4.937136001368e-01 
       8.986514707061e-04       5.313826801402e-01 
       9.703415376577e-04       5.718734972158e-01 
       1.047750691338e-03       6.153841629505e-01 
       1.131335172818e-03       6.621233239466e-01 
       1.221587619877e-03       7.123098220426e-01 
       1.319039970550e-03       7.661720584744e-01 
       1.424266598317e-03       8.239546297728e-01 
       1.537887697396e-03       8.859011173467e-01 
       1.660572938097e-03       9.522588006418e-01 
       1.793045413791e-03       1.023280099819e+00 
       1.936085902737e-03       1.099216304579e+00 
       2.090537469909e-03       1.180312990453e+00 
       2.257310435923e-03       1.266804115847e+00 
       2.437387742372e-03       1.358904853406e+00 
       2.631830745176e-03       1.456802683156e+00 
       2.841785470091e-03       1.560646890521e+00 
       3.068489367268e-03       1.670536062499e+00 
       3.313278604643e-03       1.786503852156e+00 
       3.577595943165e-03       1.908502930785e+00 
       3.862999240274e-03       2.036387730706e+00 
       4.171170631739e-03       2.169896178570e+00 
       4.503926445983e-03       2.308631878988e+00 
       4.863227909323e-03       2.452047290953e+00 
       5.251192705226e-03       2.599430628076e+00 
       5.670107455699e-03       2.749896931780e+00 
       6.122441198393e-03       2.902386513360e+00 
       6.610859938837e-03       3.055668705336e+00 
       7.138242363583e-03       3.208356461498e+00 
       7.707696806873e-03       3.358923892490e+00 
       8.322579570814e-03       3.505725595338e+00 
       8.986514707061e-03       3.647009250356e+00 
       9.703415376577e-03       3.780923304104e+00 
       1.047750691338e-02       3.905490934246e+00 
       1.131335172818e-02       4.018587640993e+00 
       1.221587619877e-02       4.117901587813e+00 
       1.319039970550e-02       4.200915354641e+00 
       1.424266598317e-02       4.264941296590e+00 
       1.537887697392e-02       4.307217977338e+00 
       1.660572938023e-02       4.325064376607e+00 
       1.793045412706e-02       4.316059482546e+00 
       1.936085890181e-02       4.278231316446e+00 
       2.090537352463e-02       4.210202211494e+00 
       2.257309535333e-02       4.111421651557e+00 
       2.437382002918e-02       3.982413233927e+00 
       2.631799944462e-02       3.825165701887e+00 
       2.841644545389e-02       3.643280225887e+00 
       3.067933355377e-02       3.442191898842e+00 
       3.311368470740e-02       3.229235278714e+00 
       3.571840443502e-02       3.013516506616e+00 
       3.847720348444e-02       2.805289628073e+00 
       4.135335538431e-02       2.614406568677e+00 
       4.429361667738e-02       2.448132594922e+00 
       4.724366439141e-02       2.309230718607e+00 
       5.016480835311e-02       2.196109485026e+00 
       5.303989620246e-02       2.104362432397e+00 
       5.586870669566e-02       2.028465566374e+00 
       5.866042680613e-02       1.963152450828e+00 
       6.142798932958e-02       1.903780651940e+00 
       6.418496440164e-02       1.846481331655e+00 
       6.694418833788e-02       1.788199263633e+00 
       6.971731106057e-02       1.726716387741e+00 
       7.251476155766e-02       1.660654089023e+00 
       7.534587671527e-02       1.589469784074e+00 
       7.821907666265e-02       1.513440684465e+00 
       8.114203772912e-02       1.433568131993e+00 
       8.412184535029e-02       1.351489480881e+00 
       8.716512279304e-02       1.269272339167e+00 
       9.027813695930e-02       1.189191302302e+00 
       9.346688431697e-02       1.113501425513e+00 
       9.673716028276e-02       1.044175757887e+00 
       1.000946150830e-01       9.827063640066e-01 
       1.035447986537e-01       9.299372616944e-01 
       1.070931966762e-01       8.859587426732e-01 
       1.107452594425e-01       8.500726400281e-01 
       1.145064249153e-01       8.208019317326e-01 
       1.183821370918e-01       7.960259864150e-01 
       1.223778605862e-01       7.731453120655e-01 
       1.264990921987e-01       7.494524427203e-01 
       1.307513701367e-01       7.225568140650e-01 
       1.351402814784e-01       6.909089922080e-01 
       1.396714684203e-01       6.541793565229e-01 
       1.443506338194e-01       6.134272212550e-01 
       1.491835465229e-01       5.708673589526e-01 
       1.541760469708e-01       5.293633721774e-01 
       1.593340535561e-01       4.917112611579e-01 
       1.646635702297e-01       4.599206627721e-01 
       1.701706958456e-01       4.347293163756e-01 
       1.758616357459e-01       4.154080916727e-01 
       1.817427160982e-01       3.999362932325e-01 
       1.878204015065e-01       3.856828538958e-01 
       1.941013164283e-01       3.698080230915e-01 
       2.005922709503e-01       3.505463040222e-01 
       2.073002914972e-01       3.280429209970e-01 
       2.142326570816e-01       3.042129572505e-01 
       2.213969417533e-01       2.816117512241e-01 
       2.288010639706e-01       2.622568574138e-01 
       2.364533437147e-01       2.469621919194e-01 
       2.443625682930e-01       2.350128623490e-01 
       2.525380679504e-01       2.244175532623e-01 
       2.609898026346e-01       2.130933285563e-01 
       2.697284615565e-01       2.001012287547e-01 
       2.787655775689e-01       1.860196998970e-01 
       2.881136588829e-01       1.725174477064e-01 
       2.977863412677e-01       1.610658368630e-01 
       3.077985646929e-01       1.517608346947e-01 
       3.181667794071e-01       1.435590675751e-01 
       3.289091877812e-01       1.351815095020e-01 
       3.400460299658e-01       1.261640493660e-01 
       3.515999236474e-01       1.172018417280e-01 
       3.635962711085e-01       1.091766397100e-01 
       3.760637506334e-01       1.023090584327e-01 
       3.890349143879e-01       9.593772348553e-02 
       4.025469216825e-01       8.950709560719e-02 
       4.166424456376e-01       8.311134266209e-02 
       4.313708035863e-01       7.721533383176e-02 
       4.467893782977e-01       7.190030396288e-02 
       4.629654199664e-01       6.686855570337e-02 
       4.799783501994e-01       6.191704005638e-02 
       4.979227319373e-01       5.722170528574e-02 
       5.169121270864e-01       5.290231562706e-02 
       5.370841404489e-01       4.876924169557e-02 
       5.586070464571e-01       4.479052841607e-02 
       5.816885094930e-01       4.105132591158e-02 
       6.065870144995e-01       3.748937885213e-02 
       6.336266468475e-01       3.407577367300e-02 
       6.632156059511e-01       3.083410422630e-02 
       6.958678639263e-01       2.772770411308e-02 
       7.322247985589e-01       2.476652049675e-02 
       7.730680195114e-01       2.193902455512e-02 
       8.193049553677e-01       1.925553465495e-02 
       8.718988016039e-01       1.672866579454e-02 
       9.317218031082e-01       1.438357375036e-02 
       9.993660908989e-01       1.224998517239e-02 
       1.075037110174e+00       1.035194069219e-02 
       1.158653485707e+00       8.699030788693e-03 
       1.250099157308e+00       7.283892243243e-03 
       1.349432401273e+00       6.084759141598e-03 
       1.456947457397e+00       5.074990364924e-03 
       1.573135111331e+00       4.227543043770e-03 
       1.698621895592e+00       3.517771099588e-03 
       1.834127512934e+00       2.924212823005e-03 
       1.980444934528e+00       2.428373259949e-03 
       2.138435191726e+00       2.014706775837e-03 
       2.309029199186e+00       1.669960430981e-03 
       2.493232377687e+00       1.382971101228e-03 
       2.692130395285e+00       1.144294885990e-03 
       2.906895534573e+00       9.460109143218e-04 
       3.138793597714e+00       7.814331834281e-04 
       3.389191366484e+00       6.449615171130e-04 
       3.659564657905e+00       5.318936131759e-04 
       3.951507022538e+00       4.383044143155e-04 
       4.266739136701e+00       3.609000648866e-04 
       4.607118943941e+00       2.969310510802e-04 
       4.974652605557e+00       2.441100309797e-04 
       5.371506324689e+00       2.005288366309e-04 
       5.800019113685e+00       1.645933445860e-04 
       6.262716579983e+00       1.349856561801e-04 
       6.762325811764e+00       1.106084277116e-04 
       7.301791451110e+00       9.055170125697e-05 
       7.884293049406e+00       7.405977766019e-05 
       8.513263807261e+00       6.050835361596e-05 
       9.192410809424e+00       4.937963262803e-05 
       9.925736873929e+00       4.024728423420e-05 
       1.071756414427e+01       3.275663044728e-05 
       1.157255956364e+01       2.661735386244e-05 
       1.249576238137e+01       2.158879685335e-05 
       1.349261385375e+01       1.747276642727e-05 
       1.456898931416e+01       1.410638682588e-05 
       1.573123280165e+01       1.135536021770e-05 
       1.698619445202e+01       9.109526060411e-06 
       1.834127087176e+01       7.278012775262e-06 
       1.980444873285e+01       5.786513493795e-06 
       2.138435184532e+01       4.573961700509e-06 
       2.309029198506e+01       3.590415358014e-06 
       2.493232377636e+01       2.794744420609e-06 
       2.692130395282e+01       2.153472587348e-06 
       2.906895534573e+01       1.639024481157e-06 
       3.138793597714e+01       1.228834337147e-06 
       3.389191366484e+01       9.044142712569e-07 
       3.659564657905e+01       6.504835170973e-07 
       3.951507022538e+01       4.545026345489e-07 
       4.266739136701e+01       3.059986714100e-07 
       4.607118943941e+01       1.962026122001e-07 
       4.974652605557e+01       1.177017570007e-07 
       5.371506324689e+01       6.414770237898e-08 
       5.800019113685e+01       3.006363030929e-08 
       6.262716579983e+01       1.068528885863e-08 
       6.762325811764e+01       1.868656801751e-09 
