# Matter power spectrum P(k) at redshift z=99
# for k=1.04775e-05 to 67.6233 h/Mpc,
# number of wavenumbers equal to 246
#    1:k (h/Mpc)              2:P (Mpc/h)^3        
       1.047750691338e-05       7.261927673155e-03 
       1.131335172818e-05       7.820331745776e-03 
       1.221587619877e-05       8.421675986531e-03 
       1.319039970550e-05       9.069258192240e-03 
       1.424266598317e-05       9.766638404470e-03 
       1.537887697396e-05       1.051764069687e-02 
       1.660572938097e-05       1.132639105525e-02 
       1.793045413791e-05       1.219733231423e-02 
       1.936085902737e-05       1.313524224387e-02 
       2.090537469909e-05       1.414527121900e-02 
       2.257310435923e-05       1.523296272200e-02 
       2.437387742372e-05       1.640429444538e-02 
       2.631830745176e-05       1.766569582187e-02 
       2.841785470091e-05       1.902408601802e-02 
       3.068489367268e-05       2.048692970602e-02 
       3.313278604643e-05       2.206225513605e-02 
       3.577595943165e-05       2.375870704921e-02 
       3.862999240274e-05       2.558560727492e-02 
       4.171170631739e-05       2.755297763358e-02 
       4.503926445983e-05       2.967161927330e-02 
       4.863227909323e-05       3.195316450848e-02 
       5.251192705226e-05       3.441013519302e-02 
       5.670107455699e-05       3.705601722543e-02 
       6.122441198393e-05       3.990533413582e-02 
       6.610859938837e-05       4.297372168224e-02 
       7.138242363583e-05       4.627802141711e-02 
       7.707696806873e-05       4.983636194184e-02 
       8.322579570814e-05       5.366826847258e-02 
       8.986514707061e-05       5.779476394597e-02 
       9.703415376577e-05       6.223848243916e-02 
       1.047750691338e-04       6.702379865673e-02 
       1.131335172818e-04       7.217695153417e-02 
       1.221587619877e-04       7.772619073611e-02 
       1.319039970550e-04       8.370193432418e-02 
       1.424266598317e-04       9.013692507592e-02 
       1.537887697396e-04       9.706641242619e-02 
       1.660572938097e-04       1.045283354277e-01 
       1.793045413791e-04       1.125635349074e-01 
       1.936085902737e-04       1.212159614974e-01 
       2.090537469909e-04       1.305329132721e-01 
       2.257310435923e-04       1.405652846222e-01 
       2.437387742372e-04       1.513678302548e-01 
       2.631830745176e-04       1.629994504878e-01 
       2.841785470091e-04       1.755234921233e-01 
       3.068489367268e-04       1.890080670422e-01 
       3.313278604643e-04       2.035264002445e-01 
       3.577595943165e-04       2.191571803692e-01 
       3.862999240274e-04       2.359849437604e-01 
       4.171170631739e-04       2.541004741551e-01 
       4.503926445983e-04       2.736012080290e-01 
       4.863227909323e-04       2.945916790979e-01 
       5.251192705226e-04       3.171839525197e-01 
       5.670107455699e-04       3.414980764018e-01 
       6.122441198393e-04       3.676625413117e-01 
       6.610859938837e-04       3.958147252321e-01 
       7.138242363583e-04       4.261013284934e-01 
       7.707696806873e-04       4.586787792372e-01 
       8.322579570814e-04       4.937136001369e-01 
       8.986514707061e-04       5.313826801423e-01 
       9.703415376577e-04       5.718734972179e-01 
       1.047750691338e-03       6.153841629527e-01 
       1.131335172818e-03       6.621233239487e-01 
       1.221587619877e-03       7.123098220458e-01 
       1.319039970550e-03       7.661720584440e-01 
       1.424266598317e-03       8.239546297750e-01 
       1.537887697396e-03       8.859011173481e-01 
       1.660572938097e-03       9.522588006428e-01 
       1.793045413791e-03       1.023280099819e+00 
       1.936085902737e-03       1.099216304578e+00 
       2.090537469909e-03       1.180312990449e+00 
       2.257310435923e-03       1.266804115846e+00 
       2.437387742372e-03       1.358904853394e+00 
       2.631830745176e-03       1.456802683139e+00 
       2.841785470091e-03       1.560646890496e+00 
       3.068489367268e-03       1.670536062461e+00 
       3.313278604643e-03       1.786503852108e+00 
       3.577595943165e-03       1.908502930711e+00 
       3.862999240274e-03       2.036387730601e+00 
       4.171170631739e-03       2.169896177942e+00 
       4.503926445983e-03       2.308631878783e+00 
       4.863227909323e-03       2.452047290668e+00 
       5.251192705226e-03       2.599430627678e+00 
       5.670107455699e-03       2.749896931231e+00 
       6.122441198393e-03       2.902386512597e+00 
       6.610859938837e-03       3.055668711344e+00 
       7.138242363583e-03       3.208356460039e+00 
       7.707696806873e-03       3.358923890730e+00 
       8.322579570814e-03       3.505725592371e+00 
       8.986514707061e-03       3.647008936577e+00 
       9.703415376577e-03       3.780923298982e+00 
       1.047750691338e-02       3.905491162876e+00 
       1.131335172818e-02       4.018587976548e+00 
       1.221587619877e-02       4.117901579605e+00 
       1.319039970550e-02       4.200915350778e+00 
       1.424266598317e-02       4.264941009537e+00 
       1.537887697392e-02       4.307218681757e+00 
       1.660572938023e-02       4.325060464589e+00 
       1.793045412706e-02       4.316062844187e+00 
       1.936085890181e-02       4.278229701549e+00 
       2.090537352463e-02       4.210205879608e+00 
       2.257309535333e-02       4.111422514802e+00 
       2.437382002918e-02       3.982416907104e+00 
       2.631799944462e-02       3.825168856880e+00 
       2.841644545389e-02       3.643288420597e+00 
       3.067933355377e-02       3.442195015689e+00 
       3.311368470740e-02       3.229235416201e+00 
       3.571840443502e-02       3.013514552325e+00 
       3.847720348444e-02       2.805282095190e+00 
       4.135335538431e-02       2.614410560553e+00 
       4.429361667738e-02       2.448130607418e+00 
       4.724366439141e-02       2.309233258721e+00 
       5.016480835311e-02       2.196110805062e+00 
       5.303989620246e-02       2.104359508879e+00 
       5.586870669566e-02       2.028461866007e+00 
       5.866042680613e-02       1.963150525772e+00 
       6.142798932958e-02       1.903778357135e+00 
       6.418496440164e-02       1.846475200221e+00 
       6.694418833788e-02       1.788197854944e+00 
       6.971731106057e-02       1.726710173562e+00 
       7.251476155766e-02       1.660652707809e+00 
       7.534587671527e-02       1.589470239994e+00 
       7.821907666265e-02       1.513435000101e+00 
       8.114203772912e-02       1.433569341716e+00 
       8.412184535029e-02       1.351487646040e+00 
       8.716512279304e-02       1.269270296160e+00 
       9.027813695930e-02       1.189189278289e+00 
       9.346688431697e-02       1.113497482648e+00 
       9.673716028276e-02       1.044171957202e+00 
       1.000946150830e-01       9.827034518817e-01 
       1.035447986537e-01       9.299331682080e-01 
       1.070931966762e-01       8.859570253858e-01 
       1.107452594425e-01       8.500680675973e-01 
       1.145064249153e-01       8.207995597392e-01 
       1.183821370918e-01       7.960206323224e-01 
       1.223778605862e-01       7.731413207850e-01 
       1.264990921987e-01       7.494456181352e-01 
       1.307513701367e-01       7.225540023697e-01 
       1.351402814784e-01       6.909039024306e-01 
       1.396714684203e-01       6.541753924471e-01 
       1.443506338194e-01       6.134210772273e-01 
       1.491835465229e-01       5.708609072403e-01 
       1.541760469708e-01       5.293567333919e-01 
       1.593340535561e-01       4.917037360766e-01 
       1.646635702297e-01       4.599122109071e-01 
       1.701706958456e-01       4.347222413963e-01 
       1.758616357459e-01       4.154011061293e-01 
       1.817427160982e-01       3.999297355886e-01 
       1.878204015065e-01       3.856752793467e-01 
       1.941013164283e-01       3.698006866662e-01 
       2.005922709503e-01       3.505377945471e-01 
       2.073002914972e-01       3.280341894356e-01 
       2.142326570816e-01       3.042045329760e-01 
       2.213969417533e-01       2.816025600779e-01 
       2.288010639706e-01       2.622477420237e-01 
       2.364533437147e-01       2.469525641974e-01 
       2.443625682930e-01       2.350028526859e-01 
       2.525380679504e-01       2.244070427057e-01 
       2.609898026346e-01       2.130831536490e-01 
       2.697284615565e-01       2.000895356906e-01 
       2.787655775689e-01       1.860076666573e-01 
       2.881136588829e-01       1.725050554483e-01 
       2.977863412677e-01       1.610540732536e-01 
       3.077985646929e-01       1.517487024816e-01 
       3.181667794071e-01       1.435464203663e-01 
       3.289091877812e-01       1.351682471432e-01 
       3.400460299658e-01       1.261508883162e-01 
       3.515999236474e-01       1.171879557443e-01 
       3.635962711085e-01       1.091625088246e-01 
       3.760637506334e-01       1.022951486289e-01 
       3.890349143879e-01       9.592261271259e-02 
       4.025469216825e-01       8.949226371984e-02 
       4.166424456376e-01       8.309610740960e-02 
       4.313708035863e-01       7.719946573736e-02 
       4.467893782977e-01       7.188406527603e-02 
       4.629654199664e-01       6.685222793150e-02 
       4.799783501994e-01       6.190046591629e-02 
       4.979227319373e-01       5.720497127588e-02 
       5.169121270864e-01       5.288510359524e-02 
       5.370841404489e-01       4.875155378014e-02 
       5.586070464571e-01       4.477237079491e-02 
       5.816885094930e-01       4.103281772664e-02 
       6.065870144995e-01       3.747055430989e-02 
       6.336266468475e-01       3.405640234130e-02 
       6.632156059511e-01       3.081435775760e-02 
       6.958678639263e-01       2.770762987155e-02 
       7.322247985589e-01       2.474581056169e-02 
       7.730680195114e-01       2.191779514380e-02 
       8.193049553677e-01       1.923386850909e-02 
       8.718988016039e-01       1.670642384449e-02 
       9.317218031082e-01       1.436067946412e-02 
       9.993660908989e-01       1.222652622550e-02 
       1.075037110174e+00       1.032778795341e-02 
       1.158653485707e+00       8.674252736514e-03 
       1.250099157308e+00       7.258489951808e-03 
       1.349432401273e+00       6.058731725580e-03 
       1.456947457397e+00       5.048400766960e-03 
       1.573135111331e+00       4.200393013241e-03 
       1.698621895592e+00       3.490078846173e-03 
       1.834127512934e+00       2.895983105528e-03 
       1.980444934528e+00       2.399649870159e-03 
       2.138435191726e+00       1.985527847994e-03 
       2.309029199186e+00       1.640365969778e-03 
       2.493232377687e+00       1.353009132200e-03 
       2.692130395285e+00       1.114006023790e-03 
       2.906895534573e+00       9.154411741184e-04 
       3.138793597714e+00       7.506431348586e-04 
       3.389191366484e+00       6.140095606599e-04 
       3.659564657905e+00       5.008551967759e-04 
       3.951507022538e+00       4.072521488375e-04 
       4.266739136701e+00       3.299186640123e-04 
       4.607118943941e+00       2.661164832793e-04 
       4.974652605557e+00       2.135665763432e-04 
       5.371506324689e+00       1.703686601572e-04 
       5.800019113685e+00       1.349399749416e-04 
       6.262716579983e+00       1.059704840936e-04 
       6.762325811764e+00       8.237466516527e-05 
       7.301791451110e+00       6.324539068302e-05 
       7.884293049406e+00       4.783514687964e-05 
       8.513263807261e+00       3.552168992904e-05 
       9.192410809424e+00       2.578573030862e-05 
       9.925736873929e+00       1.819344151744e-05 
       1.071756414427e+01       1.237963109743e-05 
       1.157255956364e+01       8.034213913645e-06 
       1.249576238137e+01       4.890654505613e-06 
       1.349261385375e+01       2.717430581481e-06 
       1.456898931416e+01       1.311229752679e-06 
       1.573123280165e+01       4.923130557396e-07 
       1.698619445202e+01       1.015860124717e-07 
       1.834127087176e+01       8.669555864089e-12 
       1.980444873285e+01       6.909501636328e-08 
       2.138435184532e+01       2.125631864709e-07 
       2.309029198506e+01       3.581944131600e-07 
       2.493232377636e+01       4.589817965828e-07 
       2.692130395282e+01       4.927310217120e-07 
       2.906895534573e+01       4.593319641080e-07 
       3.138793597714e+01       3.753660100264e-07 
       3.389191366484e+01       2.667132848939e-07 
       3.659564657905e+01       1.602062717628e-07 
       3.951507022538e+01       7.627298016124e-08 
       4.266739136701e+01       2.438594936768e-08 
       4.607118943941e+01       2.600943799892e-09 
       4.974652605557e+01       9.548737457108e-10 
       5.371506324689e+01       7.147443668663e-09 
       5.800019113685e+01       1.188224448786e-08 
       6.262716579983e+01       1.156373278155e-08 
       6.762325811764e+01       7.550020508635e-09 
