# Matter power spectrum P(k) at redshift z=99
# for k=1.04775e-05 to 134.926 h/Mpc,
# number of wavenumbers equal to 255
#    1:k (h/Mpc)              2:P (Mpc/h)^3        
       1.047750691338e-05       7.261927095219e-03 
       1.131335172818e-05       7.820332150683e-03 
       1.221587619877e-05       8.421675382253e-03 
       1.319039970550e-05       9.069257737920e-03 
       1.424266598317e-05       9.766636451036e-03 
       1.537887697396e-05       1.051763973631e-02 
       1.660572938097e-05       1.132639250742e-02 
       1.793045413791e-05       1.219733201498e-02 
       1.936085902737e-05       1.313524187191e-02 
       2.090537469909e-05       1.414527084965e-02 
       2.257310435923e-05       1.523296544479e-02 
       2.437387742372e-05       1.640429654627e-02 
       2.631830745176e-05       1.766569603272e-02 
       2.841785470091e-05       1.902408711147e-02 
       3.068489367268e-05       2.048692967428e-02 
       3.313278604643e-05       2.206225467532e-02 
       3.577595943165e-05       2.375870883834e-02 
       3.862999240274e-05       2.558560669803e-02 
       4.171170631739e-05       2.755297672487e-02 
       4.503926445983e-05       2.967161933391e-02 
       4.863227909323e-05       3.195316455633e-02 
       5.251192705226e-05       3.441013466110e-02 
       5.670107455699e-05       3.705601741676e-02 
       6.122441198393e-05       3.990533412807e-02 
       6.610859938837e-05       4.297372242500e-02 
       7.138242363583e-05       4.627802054817e-02 
       7.707696806873e-05       4.983636159851e-02 
       8.322579570814e-05       5.366826786894e-02 
       8.986514707061e-05       5.779476319691e-02 
       9.703415376577e-05       6.223848221791e-02 
       1.047750691338e-04       6.702379824973e-02 
       1.131335172818e-04       7.217695031028e-02 
       1.221587619877e-04       7.772619030307e-02 
       1.319039970550e-04       8.370193379982e-02 
       1.424266598317e-04       9.013692506605e-02 
       1.537887697396e-04       9.706641130333e-02 
       1.660572938097e-04       1.045283343104e-01 
       1.793045413791e-04       1.125635329178e-01 
       1.936085902737e-04       1.212159592302e-01 
       2.090537469909e-04       1.305329107428e-01 
       2.257310435923e-04       1.405652819352e-01 
       2.437387742372e-04       1.513678275067e-01 
       2.631830745176e-04       1.629994475124e-01 
       2.841785470091e-04       1.755234890469e-01 
       3.068489367268e-04       1.890080645290e-01 
       3.313278604643e-04       2.035263977422e-01 
       3.577595943165e-04       2.191571778035e-01 
       3.862999240274e-04       2.359849423250e-01 
       4.171170631739e-04       2.541004712991e-01 
       4.503926445983e-04       2.736012061148e-01 
       4.863227909323e-04       2.945916774632e-01 
       5.251192705226e-04       3.171839507852e-01 
       5.670107455699e-04       3.414980769096e-01 
       6.122441198393e-04       3.676625416289e-01 
       6.610859938837e-04       3.958147272852e-01 
       7.138242363583e-04       4.261013332052e-01 
       7.707696806873e-04       4.586787880837e-01 
       8.322579570814e-04       4.937136112809e-01 
       8.986514707061e-04       5.313826962065e-01 
       9.703415376577e-04       5.718735176793e-01 
       1.047750691338e-03       6.153841926240e-01 
       1.131335172818e-03       6.621233623114e-01 
       1.221587619877e-03       7.123098743646e-01 
       1.319039970550e-03       7.661721263782e-01 
       1.424266598317e-03       8.239547181300e-01 
       1.537887697396e-03       8.859012282819e-01 
       1.660572938097e-03       9.522589495759e-01 
       1.793045413791e-03       1.023280284738e+00 
       1.936085902737e-03       1.099216542130e+00 
       2.090537469909e-03       1.180313285064e+00 
       2.257310435923e-03       1.266804486840e+00 
       2.437387742372e-03       1.358905328499e+00 
       2.631830745176e-03       1.456803285992e+00 
       2.841785470091e-03       1.560647663086e+00 
       3.068489367268e-03       1.670537010634e+00 
       3.313278604643e-03       1.786505039706e+00 
       3.577595943165e-03       1.908504410198e+00 
       3.862999240274e-03       2.036389468852e+00 
       4.171170631739e-03       2.169898252912e+00 
       4.503926445983e-03       2.308634492098e+00 
       4.863227909323e-03       2.452050674927e+00 
       5.251192705226e-03       2.599434681311e+00 
       5.670107455699e-03       2.749901126675e+00 
       6.122441198393e-03       2.902390058581e+00 
       6.610859938837e-03       3.055671270134e+00 
       7.138242363583e-03       3.208360123224e+00 
       7.707696806873e-03       3.358926651835e+00 
       8.322579570814e-03       3.505726890472e+00 
       8.986514707061e-03       3.647012438644e+00 
       9.703415376577e-03       3.780926180394e+00 
       1.047750691338e-02       3.905492882082e+00 
       1.131335172818e-02       4.018589827896e+00 
       1.221587619877e-02       4.117902891237e+00 
       1.319039970550e-02       4.200917703602e+00 
       1.424266598317e-02       4.264943743184e+00 
       1.537887697392e-02       4.307219675206e+00 
       1.660572938023e-02       4.325062464988e+00 
       1.793045412706e-02       4.316060401197e+00 
       1.936085890181e-02       4.278228943302e+00 
       2.090537352463e-02       4.210204486572e+00 
       2.257309535333e-02       4.111418763956e+00 
       2.437382002918e-02       3.982420954204e+00 
       2.631799944462e-02       3.825168704871e+00 
       2.841644545389e-02       3.643282267247e+00 
       3.067933355377e-02       3.442198728718e+00 
       3.311368470740e-02       3.229241625367e+00 
       3.571840443502e-02       3.013516364114e+00 
       3.847720348444e-02       2.805283979090e+00 
       4.135335538431e-02       2.614410709967e+00 
       4.429361667738e-02       2.448132236791e+00 
       4.724366439141e-02       2.309240711637e+00 
       5.016480835311e-02       2.196115271107e+00 
       5.303989620246e-02       2.104369949958e+00 
       5.586870669566e-02       2.028462700452e+00 
       5.866042680613e-02       1.963155436759e+00 
       6.142798932958e-02       1.903779853836e+00 
       6.418496440164e-02       1.846479373907e+00 
       6.694418833788e-02       1.788197660715e+00 
       6.971731106057e-02       1.726715880926e+00 
       7.251476155766e-02       1.660654607594e+00 
       7.534587671527e-02       1.589470086610e+00 
       7.821907666265e-02       1.513436824166e+00 
       8.114203772912e-02       1.433569028670e+00 
       8.412184535029e-02       1.351492541573e+00 
       8.716512279304e-02       1.269274032378e+00 
       9.027813695930e-02       1.189193483734e+00 
       9.346688431697e-02       1.113501437229e+00 
       9.673716028276e-02       1.044174791537e+00 
       1.000946150830e-01       9.827063346710e-01 
       1.035447986537e-01       9.299362723094e-01 
       1.070931966762e-01       8.859588638324e-01 
       1.107452594425e-01       8.500714495182e-01 
       1.145064249153e-01       8.208036982120e-01 
       1.183821370918e-01       7.960246169406e-01 
       1.223778605862e-01       7.731460329338e-01 
       1.264990921987e-01       7.494524490521e-01 
       1.307513701367e-01       7.225569935794e-01 
       1.351402814784e-01       6.909079339490e-01 
       1.396714684203e-01       6.541803158482e-01 
       1.443506338194e-01       6.134265709774e-01 
       1.491835465229e-01       5.708688996467e-01 
       1.541760469708e-01       5.293643029357e-01 
       1.593340535561e-01       4.917108523092e-01 
       1.646635702297e-01       4.599199566198e-01 
       1.701706958456e-01       4.347279009631e-01 
       1.758616357459e-01       4.154077975578e-01 
       1.817427160982e-01       3.999362081795e-01 
       1.878204015065e-01       3.856855948328e-01 
       1.941013164283e-01       3.698122277241e-01 
       2.005922709503e-01       3.505492921920e-01 
       2.073002914972e-01       3.280464392152e-01 
       2.142326570816e-01       3.042130378005e-01 
       2.213969417533e-01       2.816115409332e-01 
       2.288010639706e-01       2.622567622455e-01 
       2.364533437147e-01       2.469617167894e-01 
       2.443625682930e-01       2.350128651046e-01 
       2.525380679504e-01       2.244202900862e-01 
       2.609898026346e-01       2.130960133133e-01 
       2.697284615565e-01       2.001025273733e-01 
       2.787655775689e-01       1.860197547852e-01 
       2.881136588829e-01       1.725173467711e-01 
       2.977863412677e-01       1.610658712611e-01 
       3.077985646929e-01       1.517604360950e-01 
       3.181667794071e-01       1.435592569430e-01 
       3.289091877812e-01       1.351816593328e-01 
       3.400460299658e-01       1.261641753645e-01 
       3.515999236474e-01       1.172017487144e-01 
       3.635962711085e-01       1.091768035512e-01 
       3.760637506334e-01       1.023090931753e-01 
       3.890349143879e-01       9.593744626767e-02 
       4.025469216825e-01       8.950752294939e-02 
       4.166424456376e-01       8.311152092385e-02 
       4.313708035863e-01       7.721529049012e-02 
       4.467893782977e-01       7.190041613847e-02 
       4.629654199664e-01       6.686887436003e-02 
       4.799783501994e-01       6.191737032107e-02 
       4.979227319373e-01       5.722204689591e-02 
       5.169121270864e-01       5.290271967550e-02 
       5.370841404489e-01       4.876962893517e-02 
       5.586070464571e-01       4.479058145828e-02 
       5.816885094930e-01       4.105175938557e-02 
       6.065870144995e-01       3.748978719561e-02 
       6.336266468475e-01       3.407608112963e-02 
       6.632156059511e-01       3.083441369086e-02 
       6.958678639263e-01       2.772824723938e-02 
       7.322247985589e-01       2.476703680889e-02 
       7.730680195114e-01       2.193951005709e-02 
       8.193049553677e-01       1.925605720540e-02 
       8.718988016039e-01       1.672922875872e-02 
       9.317218031082e-01       1.438409891399e-02 
       9.993660908989e-01       1.225058798302e-02 
       1.075037110174e+00       1.035252415231e-02 
       1.158653485707e+00       8.699604827836e-03 
       1.250099157308e+00       7.284515561243e-03 
       1.349432401273e+00       6.085389990490e-03 
       1.456947457397e+00       5.075667593583e-03 
       1.573135111331e+00       4.228240638132e-03 
       1.698621895592e+00       3.518482318291e-03 
       1.834127512934e+00       2.924918611326e-03 
       1.980444934528e+00       2.429102239559e-03 
       2.138435191726e+00       2.015451159460e-03 
       2.309029199186e+00       1.670718214749e-03 
       2.493232377687e+00       1.383736322051e-03 
       2.692130395285e+00       1.145077416412e-03 
       2.906895534573e+00       9.468041429678e-04 
       3.138793597714e+00       7.822376516557e-04 
       3.389191366484e+00       6.457713178822e-04 
       3.659564657905e+00       5.327195775868e-04 
       3.951507022538e+00       4.391354915817e-04 
       4.266739136701e+00       3.617443400586e-04 
       4.607118943941e+00       2.977823881739e-04 
       4.974652605557e+00       2.449687653574e-04 
       5.371506324689e+00       2.013937347661e-04 
       5.800019113685e+00       1.654636091905e-04 
       6.262716579983e+00       1.358616267976e-04 
       6.762325811764e+00       1.114888978628e-04 
       7.301791451110e+00       9.143548778401e-05 
       7.884293049406e+00       7.494694114749e-05 
       8.513263807261e+00       6.139755371023e-05 
       9.192410809424e+00       5.027044380974e-05 
       9.925736873929e+00       4.113842990556e-05 
       1.071756414427e+01       3.364747428004e-05 
       1.157255956364e+01       2.750659533876e-05 
       1.249576238137e+01       2.247505192230e-05 
       1.349261385375e+01       1.835431236043e-05 
       1.456898931416e+01       1.498195129517e-05 
       1.573123280165e+01       1.222290861332e-05 
       1.698619445202e+01       9.966982024464e-06 
       1.834127087176e+01       8.123382355005e-06 
       1.980444873285e+01       6.617377760963e-06 
       2.138435184532e+01       5.387692715424e-06 
       2.309029198506e+01       4.384136240769e-06 
       2.493232377636e+01       3.565500649622e-06 
       2.692130395282e+01       2.898002827056e-06 
       2.906895534573e+01       2.353992374688e-06 
       3.138793597714e+01       1.910831455812e-06 
       3.389191366484e+01       1.549949548323e-06 
       3.659564657905e+01       1.256233138046e-06 
       3.951507022538e+01       1.017278518353e-06 
       4.266739136701e+01       8.229855354380e-07 
       4.607118943941e+01       6.650705162097e-07 
       4.974652605557e+01       5.367918460802e-07 
       5.371506324689e+01       4.326446457281e-07 
       5.800019113685e+01       3.481451984000e-07 
       6.262716579983e+01       2.796205305606e-07 
       6.762325811764e+01       2.241003791446e-07 
       7.301791451110e+01       1.791539079924e-07 
       7.884293049406e+01       1.427941358433e-07 
       8.513263807261e+01       1.134194999048e-07 
       9.192410809424e+01       8.971856302747e-08 
       9.925736873929e+01       7.062397108633e-08 
       1.071756414427e+02       5.527254583604e-08 
       1.157255956364e+02       4.295845466840e-08 
       1.249576238137e+02       3.311208800287e-08 
       1.349261385375e+02       2.526971574027e-08 
