# Matter power spectrum P(k) at redshift z=0
# for k=1.04775e-05 to 67.6233 h/Mpc,
# number of wavenumbers equal to 246
#    1:k (h/Mpc)              2:P (Mpc/h)^3        
       1.047750691338e-05       5.020964806750e+01 
       1.131335172818e-05       5.407048206553e+01 
       1.221587619877e-05       5.822819063883e+01 
       1.319039970550e-05       6.270562589686e+01 
       1.424266598317e-05       6.752731788102e+01 
       1.537887697396e-05       7.271977200258e+01 
       1.660572938097e-05       7.831147241542e+01 
       1.793045413791e-05       8.433311815128e+01 
       1.936085902737e-05       9.081778242446e+01 
       2.090537469909e-05       9.780108061343e+01 
       2.257310435923e-05       1.053213197032e+02 
       2.437387742372e-05       1.134197377001e+02 
       2.631830745176e-05       1.221408202816e+02 
       2.841785470091e-05       1.315324720917e+02 
       3.068489367268e-05       1.416462093728e+02 
       3.313278604643e-05       1.525374500691e+02 
       3.577595943165e-05       1.642660687078e+02 
       3.862999240274e-05       1.768963504868e+02 
       4.171170631739e-05       1.904975992460e+02 
       4.503926445983e-05       2.051444490305e+02 
       4.863227909323e-05       2.209171463752e+02 
       5.251192705226e-05       2.379022222314e+02 
       5.670107455699e-05       2.561927925545e+02 
       6.122441198393e-05       2.758890441790e+02 
       6.610859938837e-05       2.970989225466e+02 
       7.138242363583e-05       3.199385558200e+02 
       7.707696806873e-05       3.445329780878e+02 
       8.322579570814e-05       3.710167315928e+02 
       8.986514707061e-05       3.995346440954e+02 
       9.703415376577e-05       4.302425403883e+02 
       1.047750691338e-04       4.633080762974e+02 
       1.131335172818e-04       4.989116267507e+02 
       1.221587619877e-04       5.372471946561e+02 
       1.319039970550e-04       5.785234124636e+02 
       1.424266598317e-04       6.229645930980e+02 
       1.537887697396e-04       6.708118484951e+02 
       1.660572938097e-04       7.223242660220e+02 
       1.793045413791e-04       7.777801554108e+02 
       1.936085902737e-04       8.374783607332e+02 
       2.090537469909e-04       9.017396264495e+02 
       2.257310435923e-04       9.709080260152e+02 
       2.437387742372e-04       1.045352448644e+03 
       2.631830745176e-04       1.125468122836e+03 
       2.841785470091e-04       1.211678179511e+03 
       3.068489367268e-04       1.304435249091e+03 
       3.313278604643e-04       1.404223052541e+03 
       3.577595943165e-04       1.511558013390e+03 
       3.862999240274e-04       1.626990836432e+03 
       4.171170631739e-04       1.751108027370e+03 
       4.503926445983e-04       1.884533381345e+03 
       4.863227909323e-04       2.027929376471e+03 
       5.251192705226e-04       2.181998446367e+03 
       5.670107455699e-04       2.347484100857e+03 
       6.122441198393e-04       2.525171869335e+03 
       6.610859938837e-04       2.715889981400e+03 
       7.138242363583e-04       2.920509686083e+03 
       7.707696806873e-04       3.139945097710e+03 
       8.322579570814e-04       3.375152334395e+03 
       8.986514707061e-04       3.627127828231e+03 
       9.703415376577e-04       3.896905450016e+03 
       1.047750691338e-03       4.185552170958e+03 
       1.131335172818e-03       4.494162426790e+03 
       1.221587619877e-03       4.823850702674e+03 
       1.319039970550e-03       5.175742740384e+03 
       1.424266598317e-03       5.551019592516e+03 
       1.537887697396e-03       5.950788335875e+03 
       1.660572938097e-03       6.376123046808e+03 
       1.793045413791e-03       6.828073896115e+03 
       1.936085902737e-03       7.307625375380e+03 
       2.090537469909e-03       7.815671860184e+03 
       2.257310435923e-03       8.352990369395e+03 
       2.437387742372e-03       8.920211057504e+03 
       2.631830745176e-03       9.517783061860e+03 
       2.841785470091e-03       1.014593703667e+04 
       3.068489367268e-03       1.080464505730e+04 
       3.313278604643e-03       1.149357459463e+04 
       3.577595943165e-03       1.221203620814e+04 
       3.862999240274e-03       1.295892538487e+04 
       4.171170631739e-03       1.373266001056e+04 
       4.503926445983e-03       1.453111834558e+04 
       4.863227909323e-03       1.535154984164e+04 
       5.251192705226e-03       1.619063613296e+04 
       5.670107455699e-03       1.704431256473e+04 
       6.122441198393e-03       1.790755938354e+04 
       6.610859938837e-03       1.877460365446e+04 
       7.138242363583e-03       1.963872428945e+04 
       7.707696806873e-03       2.049215712813e+04 
       8.322579570814e-03       2.132607230415e+04 
       8.986514707061e-03       2.213055000108e+04 
       9.703415376577e-03       2.289445470331e+04 
       1.047750691338e-02       2.360548896944e+04 
       1.131335172818e-02       2.425023090936e+04 
       1.221587619877e-02       2.481423919855e+04 
       1.319039970550e-02       2.528218600458e+04 
       1.424266598317e-02       2.563815207561e+04 
       1.537887697392e-02       2.586606590942e+04 
       1.660572938023e-02       2.595027498111e+04 
       1.793045412706e-02       2.587633981505e+04 
       1.936085890181e-02       2.563220540030e+04 
       2.090537352463e-02       2.520936377676e+04 
       2.257309535333e-02       2.460447008629e+04 
       2.437382002918e-02       2.382086305887e+04 
       2.631799944462e-02       2.287043066745e+04 
       2.841644545389e-02       2.177448014693e+04 
       3.067933355377e-02       2.056554580051e+04 
       3.311368470740e-02       1.928732540773e+04 
       3.571840443502e-02       1.799401903842e+04 
       3.847720348444e-02       1.674682189121e+04 
       4.135335538431e-02       1.560457837566e+04 
       4.429361667738e-02       1.461036470770e+04 
       4.724366439141e-02       1.378053078050e+04 
       5.016480835311e-02       1.310506161165e+04 
       5.303989620246e-02       1.255714606033e+04 
       5.586870669566e-02       1.210426281791e+04 
       5.866042680613e-02       1.171461651091e+04 
       6.142798932958e-02       1.136046823600e+04 
       6.418496440164e-02       1.101856510460e+04 
       6.694418833788e-02       1.067067509197e+04 
       6.971731106057e-02       1.030355513125e+04 
       7.251476155766e-02       9.908992464223e+03 
       7.534587671527e-02       9.483744275844e+03 
       7.821907666265e-02       9.029500178508e+03 
       8.114203772912e-02       8.552300028130e+03 
       8.412184535029e-02       8.061912147591e+03 
       8.716512279304e-02       7.570791765978e+03 
       9.027813695930e-02       7.092463459487e+03 
       9.346688431697e-02       6.640525076020e+03 
       9.673716028276e-02       6.226700901442e+03 
       1.000946150830e-01       5.859947462524e+03 
       1.035447986537e-01       5.545232337730e+03 
       1.070931966762e-01       5.283133171710e+03 
       1.107452594425e-01       5.069414763876e+03 
       1.145064249153e-01       4.895243376402e+03 
       1.183821370918e-01       4.747825647571e+03 
       1.223778605862e-01       4.611727526379e+03 
       1.264990921987e-01       4.470603180614e+03 
       1.307513701367e-01       4.310266613544e+03 
       1.351402814784e-01       4.121380632480e+03 
       1.396714684203e-01       3.902039619460e+03 
       1.443506338194e-01       3.658651950935e+03 
       1.491835465229e-01       3.404472981699e+03 
       1.541760469708e-01       3.156660836902e+03 
       1.593340535561e-01       2.931965238421e+03 
       1.646635702297e-01       2.742351346147e+03 
       1.701706958456e-01       2.592241663722e+03 
       1.758616357459e-01       2.477222580346e+03 
       1.817427160982e-01       2.385169337390e+03 
       1.878204015065e-01       2.300343616775e+03 
       1.941013164283e-01       2.205743346641e+03 
       2.005922709503e-01       2.090801633093e+03 
       2.073002914972e-01       1.956452292641e+03 
       2.142326570816e-01       1.814176304419e+03 
       2.213969417533e-01       1.679279831375e+03 
       2.288010639706e-01       1.563827661834e+03 
       2.364533437147e-01       1.472671187771e+03 
       2.443625682930e-01       1.401498552403e+03 
       2.525380679504e-01       1.338394341001e+03 
       2.609898026346e-01       1.270882567268e+03 
       2.697284615565e-01       1.193364319650e+03 
       2.787655775689e-01       1.109315759101e+03 
       2.881136588829e-01       1.028749317905e+03 
       2.977863412677e-01       9.604592861037e+02 
       3.077985646929e-01       9.050038320762e+02 
       3.181667794071e-01       8.561226039412e+02 
       3.289091877812e-01       8.061644275734e+02 
       3.400460299658e-01       7.523643405052e+02 
       3.515999236474e-01       6.988988991941e+02 
       3.635962711085e-01       6.510373687541e+02 
       3.760637506334e-01       6.100991167794e+02 
       3.890349143879e-01       5.721067647774e+02 
       4.025469216825e-01       5.337550263587e+02 
       4.166424456376e-01       4.956033094516e+02 
       4.313708035863e-01       4.604399776081e+02 
       4.467893782977e-01       4.287493937374e+02 
       4.629654199664e-01       3.987427932426e+02 
       4.799783501994e-01       3.692114037711e+02 
       4.979227319373e-01       3.412080539141e+02 
       5.169121270864e-01       3.154516205164e+02 
       5.370841404489e-01       2.908041510629e+02 
       5.586070464571e-01       2.670734848430e+02 
       5.816885094930e-01       2.447753366173e+02 
       6.065870144995e-01       2.235331525798e+02 
       6.336266468475e-01       2.031754313128e+02 
       6.632156059511e-01       1.838433804218e+02 
       6.958678639263e-01       1.653183299097e+02 
       7.322247985589e-01       1.476580021749e+02 
       7.730680195114e-01       1.307951698974e+02 
       8.193049553677e-01       1.147919204320e+02 
       8.718988016039e-01       9.972201188454e+01 
       9.317218031082e-01       8.573617316979e+01 
       9.993660908989e-01       7.301189803291e+01 
       1.075037110174e+00       6.169181641027e+01 
       1.158653485707e+00       5.183416789474e+01 
       1.250099157308e+00       4.339382287706e+01 
       1.349432401273e+00       3.624173726272e+01 
       1.456947457397e+00       3.021934541298e+01 
       1.573135111331e+00       2.516486357146e+01 
       1.698621895592e+00       2.093147342887e+01 
       1.834127512934e+00       1.739077036280e+01 
       1.980444934528e+00       1.443310782634e+01 
       2.138435191726e+00       1.196552138638e+01 
       2.309029199186e+00       9.908848816098e+00 
       2.493232377687e+00       8.196741136016e+00 
       2.692130395285e+00       6.772733116492e+00 
       2.906895534573e+00       5.589691354699e+00 
       3.138793597714e+00       4.607670338015e+00 
       3.389191366484e+00       3.793332738098e+00 
       3.659564657905e+00       3.118654114518e+00 
       3.951507022538e+00       2.560161718138e+00 
       4.266739136701e+00       2.098269359425e+00 
       4.607118943941e+00       1.716588770191e+00 
       4.974652605557e+00       1.401493649393e+00 
       5.371506324689e+00       1.141579889429e+00 
       5.800019113685e+00       9.273943464143e-01 
       6.262716579983e+00       7.510740966238e-01 
       6.762325811764e+00       6.060908146975e-01 
       7.301791451110e+00       4.870289815418e-01 
       7.884293049406e+00       3.894027870863e-01 
       8.513263807261e+00       3.095008426474e-01 
       9.192410809424e+00       2.442577174023e-01 
       9.925736873929e+00       1.911392878709e-01 
       1.071756414427e+01       1.480505662850e-01 
       1.157255956364e+01       1.132669553669e-01 
       1.249576238137e+01       8.535986211344e-02 
       1.349261385375e+01       6.315161771349e-02 
       1.456898931416e+01       4.566563137733e-02 
       1.573123280165e+01       3.208618497516e-02 
       1.698619445202e+01       2.173313280641e-02 
       1.834127087176e+01       1.403027935095e-02 
       1.980444873285e+01       8.485445052323e-03 
       2.138435184532e+01       4.674181358835e-03 
       2.309029198506e+01       2.226213771361e-03 
       2.493232377636e+01       8.157189409285e-04 
       2.692130395282e+01       1.567059302539e-04 
       2.906895534573e+01       8.499732908077e-07 
       3.138793597714e+01       1.379965499007e-04 
       3.389191366484e+01       3.986644881448e-04 
       3.659564657905e+01       6.567738511918e-04 
       3.951507022538e+01       8.313571050300e-04 
       4.266739136701e+01       8.853942965475e-04 
       4.607118943941e+01       8.204911788163e-04 
       4.974652605557e+01       6.673310984815e-04 
       5.371506324689e+01       4.722094119075e-04 
       5.800019113685e+01       2.825276461185e-04 
       6.262716579983e+01       1.339260925523e-04 
       6.762325811764e+01       4.255916235219e-05 
