# Matter power spectrum P(k) at redshift z=99
# for k=1.04775e-05 to 134.926 h/Mpc,
# number of wavenumbers equal to 255
#    1:k (h/Mpc)              2:P (Mpc/h)^3        
       1.047750691338e-05       7.261927105172e-03 
       1.131335172818e-05       7.820332161401e-03 
       1.221587619877e-05       8.421675393796e-03 
       1.319039970550e-05       9.069257750346e-03 
       1.424266598317e-05       9.766636464425e-03 
       1.537887697396e-05       1.051763975074e-02 
       1.660572938097e-05       1.132639252297e-02 
       1.793045413791e-05       1.219733203137e-02 
       1.936085902737e-05       1.313524188998e-02 
       2.090537469909e-05       1.414527086898e-02 
       2.257310435923e-05       1.523296546568e-02 
       2.437387742372e-05       1.640429656875e-02 
       2.631830745176e-05       1.766569605688e-02 
       2.841785470091e-05       1.902408713781e-02 
       3.068489367268e-05       2.048692970230e-02 
       3.313278604643e-05       2.206225470554e-02 
       3.577595943165e-05       2.375870887085e-02 
       3.862999240274e-05       2.558560673291e-02 
       4.171170631739e-05       2.755297676310e-02 
       4.503926445983e-05       2.967161937451e-02 
       4.863227909323e-05       3.195316460008e-02 
       5.251192705226e-05       3.441013470812e-02 
       5.670107455699e-05       3.705601746735e-02 
       6.122441198393e-05       3.990533418276e-02 
       6.610859938837e-05       4.297372248387e-02 
       7.138242363583e-05       4.627802062646e-02 
       7.707696806873e-05       4.983636166646e-02 
       8.322579570814e-05       5.366826794240e-02 
       8.986514707061e-05       5.779476327591e-02 
       9.703415376577e-05       6.223848230293e-02 
       1.047750691338e-04       6.702379834440e-02 
       1.131335172818e-04       7.217694995579e-02 
       1.221587619877e-04       7.772619037777e-02 
       1.319039970550e-04       8.370193392457e-02 
       1.424266598317e-04       9.013692517325e-02 
       1.537887697396e-04       9.706641143120e-02 
       1.660572938097e-04       1.045283344531e-01 
       1.793045413791e-04       1.125635330696e-01 
       1.936085902737e-04       1.212159593131e-01 
       2.090537469909e-04       1.305329109158e-01 
       2.257310435923e-04       1.405652821258e-01 
       2.437387742372e-04       1.513678277032e-01 
       2.631830745176e-04       1.629994477240e-01 
       2.841785470091e-04       1.755234892798e-01 
       3.068489367268e-04       1.890080647799e-01 
       3.313278604643e-04       2.035263980094e-01 
       3.577595943165e-04       2.191571780891e-01 
       3.862999240274e-04       2.359849426312e-01 
       4.171170631739e-04       2.541004716259e-01 
       4.503926445983e-04       2.736012064627e-01 
       4.863227909323e-04       2.945916778329e-01 
       5.251192705226e-04       3.171839511772e-01 
       5.670107455699e-04       3.414980773240e-01 
       6.122441198393e-04       3.676625420653e-01 
       6.610859938837e-04       3.958147277430e-01 
       7.138242363583e-04       4.261013336827e-01 
       7.707696806873e-04       4.586787885785e-01 
       8.322579570814e-04       4.937136117893e-01 
       8.986514707061e-04       5.313826967232e-01 
       9.703415376577e-04       5.718735181970e-01 
       1.047750691338e-03       6.153841931326e-01 
       1.131335172818e-03       6.621233627977e-01 
       1.221587619877e-03       7.123098748106e-01 
       1.319039970550e-03       7.661721267605e-01 
       1.424266598317e-03       8.239547184207e-01 
       1.537887697396e-03       8.859012284173e-01 
       1.660572938097e-03       9.522589494552e-01 
       1.793045413791e-03       1.023280284216e+00 
       1.936085902737e-03       1.099216540998e+00 
       2.090537469909e-03       1.180313283015e+00 
       2.257310435923e-03       1.266804483441e+00 
       2.437387742372e-03       1.358905323111e+00 
       2.631830745176e-03       1.456803277721e+00 
       2.841785470091e-03       1.560647629673e+00 
       3.068489367268e-03       1.670537000837e+00 
       3.313278604643e-03       1.786504996797e+00 
       3.577595943165e-03       1.908504387228e+00 
       3.862999240274e-03       2.036389546692e+00 
       4.171170631739e-03       2.169898388332e+00 
       4.503926445983e-03       2.308634554250e+00 
       4.863227909323e-03       2.452050503795e+00 
       5.251192705226e-03       2.599434564734e+00 
       5.670107455699e-03       2.749900551754e+00 
       6.122441198393e-03       2.902389439805e+00 
       6.610859938837e-03       3.055671061746e+00 
       7.138242363583e-03       3.208358417379e+00 
       7.707696806873e-03       3.358924499549e+00 
       8.322579570814e-03       3.505725224136e+00 
       8.986514707061e-03       3.647008594084e+00 
       9.703415376577e-03       3.780920115027e+00 
       1.047750691338e-02       3.905484212647e+00 
       1.131335172818e-02       4.018577651319e+00 
       1.221587619877e-02       4.117885604676e+00 
       1.319039970550e-02       4.200893543884e+00 
       1.424266598317e-02       4.264910226958e+00 
       1.537887697392e-02       4.307173747215e+00 
       1.660572938023e-02       4.325000034874e+00 
       1.793045412706e-02       4.315976395631e+00 
       1.936085890181e-02       4.278116976963e+00 
       2.090537352463e-02       4.210056578393e+00 
       2.257309535333e-02       4.111225039745e+00 
       2.437382002918e-02       3.982169425865e+00 
       2.631799944462e-02       3.824845157918e+00 
       2.841644545389e-02       3.642869208915e+00 
       3.067933355377e-02       3.441677982182e+00 
       3.311368470740e-02       3.228585818350e+00 
       3.571840443502e-02       3.012713756385e+00 
       3.847720348444e-02       2.804313825874e+00 
       4.135335538431e-02       2.613244712614e+00 
       4.429361667738e-02       2.446755273519e+00 
       4.724366439141e-02       2.307628542576e+00 
       5.016480835311e-02       2.194257068955e+00 
       5.303989620246e-02       2.102258785132e+00 
       5.586870669566e-02       2.026083262904e+00 
       5.866042680613e-02       1.960492207286e+00 
       6.142798932958e-02       1.900818956461e+00 
       6.418496440164e-02       1.843210255201e+00 
       6.694418833788e-02       1.784594542406e+00 
       6.971731106057e-02       1.722766454855e+00 
       7.251476155766e-02       1.656342282793e+00 
       7.534587671527e-02       1.584780458450e+00 
       7.821907666265e-02       1.508356712009e+00 
       8.114203772912e-02       1.428083515070e+00 
       8.412184535029e-02       1.345596113662e+00 
       8.716512279304e-02       1.262953243118e+00 
       9.027813695930e-02       1.182440084202e+00 
       9.346688431697e-02       1.106306366022e+00 
       9.673716028276e-02       1.036520598285e+00 
       1.000946150830e-01       9.745741041654e-01 
       1.035447986537e-01       9.213006695327e-01 
       1.070931966762e-01       8.767815986557e-01 
       1.107452594425e-01       8.403129007410e-01 
       1.145064249153e-01       8.104212122531e-01 
       1.183821370918e-01       7.849751557108e-01 
       1.223778605862e-01       7.613889126207e-01 
       1.264990921987e-01       7.369589088608e-01 
       1.307513701367e-01       7.093131501071e-01 
       1.351402814784e-01       6.769111784271e-01 
       1.396714684203e-01       6.394409488895e-01 
       1.443506338194e-01       5.979612376410e-01 
       1.491835465229e-01       5.546920493391e-01 
       1.541760469708e-01       5.124763316558e-01 
       1.593340535561e-01       4.740846961201e-01 
       1.646635702297e-01       4.414929584070e-01 
       1.701706958456e-01       4.154113297980e-01 
       1.758616357459e-01       3.951004440504e-01 
       1.817427160982e-01       3.785553328049e-01 
       1.878204015065e-01       3.631875218367e-01 
       1.941013164283e-01       3.462206991519e-01 
       2.005922709503e-01       3.259430100442e-01 
       2.073002914972e-01       3.025313813860e-01 
       2.142326570816e-01       2.778646461644e-01 
       2.213969417533e-01       2.544303333809e-01 
       2.288010639706e-01       2.341684700967e-01 
       2.364533437147e-01       2.178321857539e-01 
       2.443625682930e-01       2.047132961774e-01 
       2.525380679504e-01       1.929093701475e-01 
       2.609898026346e-01       1.804631463248e-01 
       2.697284615565e-01       1.665175872145e-01 
       2.787655775689e-01       1.516412404851e-01 
       2.881136588829e-01       1.373924247612e-01 
       2.977863412677e-01       1.251050652974e-01 
       3.077985646929e-01       1.148453892622e-01 
       3.181667794071e-01       1.056642672817e-01 
       3.289091877812e-01       9.644062783586e-02 
       3.400460299658e-01       8.679564588502e-02 
       3.515999236474e-01       7.734392439942e-02 
       3.635962711085e-01       6.883062351013e-02 
       3.760637506334e-01       6.142256553401e-02 
       3.890349143879e-01       5.458233340947e-02 
       4.025469216825e-01       4.788559230265e-02 
       4.166424456376e-01       4.141955732588e-02 
       4.313708035863e-01       3.553715656160e-02 
       4.467893782977e-01       3.029233329036e-02 
       4.629654199664e-01       2.548237013889e-02 
       4.799783501994e-01       2.098560790017e-02 
       4.979227319373e-01       1.692220984543e-02 
       5.169121270864e-01       1.336517164954e-02 
       5.370841404489e-01       1.021476435008e-02 
       5.586070464571e-01       7.465987710734e-03 
       5.816885094930e-01       5.164085507913e-03 
       6.065870144995e-01       3.288761239549e-03 
       6.336266468475e-01       1.835572385209e-03 
       6.632156059511e-01       8.123225924304e-04 
       6.958678639263e-01       2.057926496951e-04 
       7.322247985589e-01       3.254803041427e-07 
       7.730680195114e-01       1.587783500735e-04 
       8.193049553677e-01       6.131442724833e-04 
       8.718988016039e-01       1.251510679686e-03 
       9.317218031082e-01       1.912944612699e-03 
       9.993660908989e-01       2.406325429910e-03 
       1.075037110174e+00       2.570815277352e-03 
       1.158653485707e+00       2.344202296525e-03 
       1.250099157308e+00       1.799304966386e-03 
       1.349432401273e+00       1.116177691117e-03 
       1.456947457397e+00       5.064737240346e-04 
       1.573135111331e+00       1.224572665414e-04 
       1.698621895592e+00       3.346852516899e-07 
       1.834127512934e+00       5.800093612807e-05 
       1.980444934528e+00       1.567104029579e-04 
       2.138435191726e+00       1.889457593993e-04 
       2.309029199186e+00       1.357504579454e-04 
       2.493232377687e+00       5.349221645598e-05 
       2.692130395285e+00       5.246339373613e-06 
       2.906895534573e+00       3.427385080080e-06 
       3.138793597714e+00       1.584598754219e-05 
       3.389191366484e+00       1.483447677585e-05 
       3.659564657905e+00       4.707319174275e-06 
       3.951507022538e+00       1.321677167747e-08 
       4.266739136701e+00       1.311928758824e-06 
       4.607118943941e+00       1.460719340459e-06 
       4.974652605557e+00       2.485188724942e-07 
       5.371506324689e+00       4.990959997956e-08 
       5.800019113685e+00       1.902840013722e-07 
       6.262716579983e+00       3.533021800091e-08 
       6.762325811764e+00       1.507349611235e-08 
       7.301791451110e+00       9.691778319200e-09 
       7.884293049406e+00       3.602153981027e-09 
       8.513263807261e+00       2.450065164217e-09 
       9.192410809424e+00       1.866208257587e-08 
       9.925736873929e+00       2.059733696774e-11 
       1.071756414427e+01       1.862555408600e-10 
       1.157255956364e+01       1.933838792877e-09 
       1.249576238137e+01       6.093098354463e-12 
       1.349261385375e+01       9.487996239466e-10 
       1.456898931416e+01       1.550465600169e-11 
       1.573123280165e+01       9.472970769067e-10 
       1.698619445202e+01       1.012074428231e-11 
       1.834127087176e+01       1.660275018504e-09 
       1.980444873285e+01       1.053562781784e-09 
       2.138435184532e+01       6.106571408592e-12 
       2.309029198506e+01       1.095049415107e-10 
       2.493232377636e+01       1.244009636956e-10 
       2.692130395282e+01       1.349849607551e-12 
       2.906895534573e+01       3.417155538472e-13 
       3.138793597714e+01       2.712762584810e-12 
       3.389191366484e+01       2.089460879940e-10 
       3.659564657905e+01       8.814477244179e-11 
       3.951507022538e+01       1.033395134154e-10 
       4.266739136701e+01       7.932786452896e-11 
       4.607118943941e+01       1.509475513642e-12 
       4.974652605557e+01       4.121402280786e-12 
       5.371506324689e+01       8.128202938117e-13 
       5.800019113685e+01       4.279550654672e-12 
       6.262716579983e+01       1.674953950626e-11 
       6.762325811764e+01       1.466328020115e-11 
       7.301791451110e+01       1.431004801467e-11 
       7.884293049406e+01       7.916478837793e-12 
       8.513263807261e+01       2.635005012143e-13 
       9.192410809424e+01       4.947723070881e-12 
       9.925736873929e+01       2.351884650306e-15 
       1.071756414427e+02       2.865503375190e-11 
       1.157255956364e+02       3.784098290507e-14 
       1.249576238137e+02       2.200075785147e-13 
       1.349261385375e+02       6.881154405260e-15 
