# Matter power spectrum P(k) at redshift z=99
# for k=1.04775e-05 to 67.6233 h/Mpc,
# number of wavenumbers equal to 246
#    1:k (h/Mpc)              2:P (Mpc/h)^3        
       1.047750691338e-05       7.261927673119e-03 
       1.131335172818e-05       7.820331745737e-03 
       1.221587619877e-05       8.421675986489e-03 
       1.319039970550e-05       9.069258192194e-03 
       1.424266598317e-05       9.766638404421e-03 
       1.537887697396e-05       1.051764069681e-02 
       1.660572938097e-05       1.132639105520e-02 
       1.793045413791e-05       1.219733231416e-02 
       1.936085902737e-05       1.313524224380e-02 
       2.090537469909e-05       1.414527121893e-02 
       2.257310435923e-05       1.523296272192e-02 
       2.437387742372e-05       1.640429444530e-02 
       2.631830745176e-05       1.766569582178e-02 
       2.841785470091e-05       1.902408601793e-02 
       3.068489367268e-05       2.048692970591e-02 
       3.313278604643e-05       2.206225513594e-02 
       3.577595943165e-05       2.375870704909e-02 
       3.862999240274e-05       2.558560727479e-02 
       4.171170631739e-05       2.755297763344e-02 
       4.503926445983e-05       2.967161927315e-02 
       4.863227909323e-05       3.195316450832e-02 
       5.251192705226e-05       3.441013519284e-02 
       5.670107455699e-05       3.705601722524e-02 
       6.122441198393e-05       3.990533413559e-02 
       6.610859938837e-05       4.297372168203e-02 
       7.138242363583e-05       4.627802141688e-02 
       7.707696806873e-05       4.983636194159e-02 
       8.322579570814e-05       5.366826847231e-02 
       8.986514707061e-05       5.779476394568e-02 
       9.703415376577e-05       6.223848243885e-02 
       1.047750691338e-04       6.702379865640e-02 
       1.131335172818e-04       7.217695153381e-02 
       1.221587619877e-04       7.772619073572e-02 
       1.319039970550e-04       8.370193432376e-02 
       1.424266598317e-04       9.013692507546e-02 
       1.537887697396e-04       9.706641242570e-02 
       1.660572938097e-04       1.045283354271e-01 
       1.793045413791e-04       1.125635349068e-01 
       1.936085902737e-04       1.212159614968e-01 
       2.090537469909e-04       1.305329132714e-01 
       2.257310435923e-04       1.405652846215e-01 
       2.437387742372e-04       1.513678302540e-01 
       2.631830745176e-04       1.629994504870e-01 
       2.841785470091e-04       1.755234921224e-01 
       3.068489367268e-04       1.890080670413e-01 
       3.313278604643e-04       2.035264002435e-01 
       3.577595943165e-04       2.191571803681e-01 
       3.862999240274e-04       2.359849437595e-01 
       4.171170631739e-04       2.541004741539e-01 
       4.503926445983e-04       2.736012080277e-01 
       4.863227909323e-04       2.945916790965e-01 
       5.251192705226e-04       3.171839525182e-01 
       5.670107455699e-04       3.414980764002e-01 
       6.122441198393e-04       3.676625413100e-01 
       6.610859938837e-04       3.958147252304e-01 
       7.138242363583e-04       4.261013284915e-01 
       7.707696806873e-04       4.586787792353e-01 
       8.322579570814e-04       4.937136001344e-01 
       8.986514707061e-04       5.313826801401e-01 
       9.703415376577e-04       5.718734972157e-01 
       1.047750691338e-03       6.153841629505e-01 
       1.131335172818e-03       6.621233239465e-01 
       1.221587619877e-03       7.123098220430e-01 
       1.319039970550e-03       7.661720584283e-01 
       1.424266598317e-03       8.239546297730e-01 
       1.537887697396e-03       8.859011173466e-01 
       1.660572938097e-03       9.522588006422e-01 
       1.793045413791e-03       1.023280099819e+00 
       1.936085902737e-03       1.099216304579e+00 
       2.090537469909e-03       1.180312990453e+00 
       2.257310435923e-03       1.266804115851e+00 
       2.437387742372e-03       1.358904853406e+00 
       2.631830745176e-03       1.456802683156e+00 
       2.841785470091e-03       1.560646890522e+00 
       3.068489367268e-03       1.670536062500e+00 
       3.313278604643e-03       1.786503852155e+00 
       3.577595943165e-03       1.908502930789e+00 
       3.862999240274e-03       2.036387730709e+00 
       4.171170631739e-03       2.169896178758e+00 
       4.503926445983e-03       2.308631878994e+00 
       4.863227909323e-03       2.452047290962e+00 
       5.251192705226e-03       2.599430628088e+00 
       5.670107455699e-03       2.749896931766e+00 
       6.122441198393e-03       2.902386513384e+00 
       6.610859938837e-03       3.055668702664e+00 
       7.138242363583e-03       3.208356461547e+00 
       7.707696806873e-03       3.358923892186e+00 
       8.322579570814e-03       3.505725275025e+00 
       8.986514707061e-03       3.647008939429e+00 
       9.703415376577e-03       3.780923304336e+00 
       1.047750691338e-02       3.905491063485e+00 
       1.131335172818e-02       4.018587641284e+00 
       1.221587619877e-02       4.117901587546e+00 
       1.319039970550e-02       4.200915286743e+00 
       1.424266598317e-02       4.264944873360e+00 
       1.537887697392e-02       4.307218197613e+00 
       1.660572938023e-02       4.325062862135e+00 
       1.793045412706e-02       4.316058251213e+00 
       1.936085890181e-02       4.278230748246e+00 
       2.090537352463e-02       4.210201662059e+00 
       2.257309535333e-02       4.111423280820e+00 
       2.437382002918e-02       3.982423811982e+00 
       2.631799944462e-02       3.825170568170e+00 
       2.841644545389e-02       3.643275340523e+00 
       3.067933355377e-02       3.442191924516e+00 
       3.311368470740e-02       3.229237192578e+00 
       3.571840443502e-02       3.013506466595e+00 
       3.847720348444e-02       2.805289443530e+00 
       4.135335538431e-02       2.614414103942e+00 
       4.429361667738e-02       2.448129242700e+00 
       4.724366439141e-02       2.309244297341e+00 
       5.016480835311e-02       2.196117074176e+00 
       5.303989620246e-02       2.104368654647e+00 
       5.586870669566e-02       2.028460790843e+00 
       5.866042680613e-02       1.963150945197e+00 
       6.142798932958e-02       1.903777475758e+00 
       6.418496440164e-02       1.846477428240e+00 
       6.694418833788e-02       1.788199177960e+00 
       6.971731106057e-02       1.726715431216e+00 
       7.251476155766e-02       1.660650902822e+00 
       7.534587671527e-02       1.589470277749e+00 
       7.821907666265e-02       1.513438160173e+00 
       8.114203772912e-02       1.433569320285e+00 
       8.412184535029e-02       1.351492050153e+00 
       8.716512279304e-02       1.269277472503e+00 
       9.027813695930e-02       1.189194707741e+00 
       9.346688431697e-02       1.113501260132e+00 
       9.673716028276e-02       1.044170242197e+00 
       1.000946150830e-01       9.827073109265e-01 
       1.035447986537e-01       9.299393586531e-01 
       1.070931966762e-01       8.859609943981e-01 
       1.107452594425e-01       8.500707067322e-01 
       1.145064249153e-01       8.208029275312e-01 
       1.183821370918e-01       7.960244796323e-01 
       1.223778605862e-01       7.731452568028e-01 
       1.264990921987e-01       7.494508983511e-01 
       1.307513701367e-01       7.225571871869e-01 
       1.351402814784e-01       6.909092802506e-01 
       1.396714684203e-01       6.541811095970e-01 
       1.443506338194e-01       6.134285502877e-01 
       1.491835465229e-01       5.708684668887e-01 
       1.541760469708e-01       5.293636570215e-01 
       1.593340535561e-01       4.917119014167e-01 
       1.646635702297e-01       4.599201305838e-01 
       1.701706958456e-01       4.347278794420e-01 
       1.758616357459e-01       4.154082170797e-01 
       1.817427160982e-01       3.999362612957e-01 
       1.878204015065e-01       3.856834336676e-01 
       1.941013164283e-01       3.698102337926e-01 
       2.005922709503e-01       3.505465360620e-01 
       2.073002914972e-01       3.280434373128e-01 
       2.142326570816e-01       3.042146480091e-01 
       2.213969417533e-01       2.816130408471e-01 
       2.288010639706e-01       2.622576939634e-01 
       2.364533437147e-01       2.469620932494e-01 
       2.443625682930e-01       2.350132669424e-01 
       2.525380679504e-01       2.244183973925e-01 
       2.609898026346e-01       2.130936453835e-01 
       2.697284615565e-01       2.001011337494e-01 
       2.787655775689e-01       1.860201001897e-01 
       2.881136588829e-01       1.725168082737e-01 
       2.977863412677e-01       1.610662323229e-01 
       3.077985646929e-01       1.517611003894e-01 
       3.181667794071e-01       1.435592842735e-01 
       3.289091877812e-01       1.351818117464e-01 
       3.400460299658e-01       1.261643519460e-01 
       3.515999236474e-01       1.172020147275e-01 
       3.635962711085e-01       1.091766494255e-01 
       3.760637506334e-01       1.023095178276e-01 
       3.890349143879e-01       9.593765631828e-02 
       4.025469216825e-01       8.950783534633e-02 
       4.166424456376e-01       8.311195126144e-02 
       4.313708035863e-01       7.721555252879e-02 
       4.467893782977e-01       7.190063457526e-02 
       4.629654199664e-01       6.686893717075e-02 
       4.799783501994e-01       6.191745171176e-02 
       4.979227319373e-01       5.722231680167e-02 
       5.169121270864e-01       5.290296948661e-02 
       5.370841404489e-01       4.876991959101e-02 
       5.586070464571e-01       4.479087518828e-02 
       5.816885094930e-01       4.105191869255e-02 
       6.065870144995e-01       3.748997277688e-02 
       6.336266468475e-01       3.407636523363e-02 
       6.632156059511e-01       3.083459501969e-02 
       6.958678639263e-01       2.772839028856e-02 
       7.322247985589e-01       2.476707675286e-02 
       7.730680195114e-01       2.193958460175e-02 
       8.193049553677e-01       1.925613216452e-02 
       8.718988016039e-01       1.672927207349e-02 
       9.317218031082e-01       1.438422496028e-02 
       9.993660908989e-01       1.225063792272e-02 
       1.075037110174e+00       1.035261222953e-02 
       1.158653485707e+00       8.699728553906e-03 
       1.250099157308e+00       7.284595234672e-03 
       1.349432401273e+00       6.085455672434e-03 
       1.456947457397e+00       5.075714997196e-03 
       1.573135111331e+00       4.228304967436e-03 
       1.698621895592e+00       3.518554683528e-03 
       1.834127512934e+00       2.924979010931e-03 
       1.980444934528e+00       2.429161887433e-03 
       2.138435191726e+00       2.015509077117e-03 
       2.309029199186e+00       1.670774198804e-03 
       2.493232377687e+00       1.383790488372e-03 
       2.692130395285e+00       1.145128191801e-03 
       2.906895534573e+00       9.468536624843e-04 
       3.138793597714e+00       7.822880523886e-04 
       3.389191366484e+00       6.458282091494e-04 
       3.659564657905e+00       5.327658547846e-04 
       3.951507022538e+00       4.391850640605e-04 
       4.266739136701e+00       3.617836225339e-04 
       4.607118943941e+00       2.978278467046e-04 
       4.974652605557e+00       2.450118987352e-04 
       5.371506324689e+00       2.014349230263e-04 
       5.800019113685e+00       1.655032281696e-04 
       6.262716579983e+00       1.359014286953e-04 
       6.762325811764e+00       1.115274297125e-04 
       7.301791451110e+00       9.147411654796e-05 
       7.884293049406e+00       7.498468651722e-05 
       8.513263807261e+00       6.143339231038e-05 
       9.192410809424e+00       5.030583816556e-05 
       9.925736873929e+00       4.117281459543e-05 
       1.071756414427e+01       3.368114916285e-05 
       1.157255956364e+01       2.753899959265e-05 
       1.249576238137e+01       2.250663543648e-05 
       1.349261385375e+01       1.838535480898e-05 
       1.456898931416e+01       1.501194525067e-05 
       1.573123280165e+01       1.225207160596e-05 
       1.698619445202e+01       9.995375088211e-06 
       1.834127087176e+01       8.150880759538e-06 
       1.980444873285e+01       6.643956042712e-06 
       2.138435184532e+01       5.413483818289e-06 
       2.309029198506e+01       4.409137271240e-06 
       2.493232377636e+01       3.589689086091e-06 
       2.692130395282e+01       2.921400834125e-06 
       2.906895534573e+01       2.376600949700e-06 
       3.138793597714e+01       1.932642104311e-06 
       3.389191366484e+01       1.570998389779e-06 
       3.659564657905e+01       1.276519451426e-06 
       3.951507022538e+01       1.036822043149e-06 
       4.266739136701e+01       8.417914692226e-07 
       4.607118943941e+01       6.831555422732e-07 
       4.974652605557e+01       5.541643065604e-07 
       5.371506324689e+01       4.493176463394e-07 
       5.800019113685e+01       3.641272886782e-07 
       6.262716579983e+01       2.949252894789e-07 
       6.762325811764e+01       2.387361861851e-07 
