# Matter power spectrum P(k) at redshift z=99
# for k=1.04775e-05 to 67.6233 h/Mpc,
# number of wavenumbers equal to 246
#    1:k (h/Mpc)              2:P (Mpc/h)^3        
       1.047750691338e-05       7.261927673119e-03 
       1.131335172818e-05       7.820331745737e-03 
       1.221587619877e-05       8.421675986489e-03 
       1.319039970550e-05       9.069258192194e-03 
       1.424266598317e-05       9.766638404421e-03 
       1.537887697396e-05       1.051764069681e-02 
       1.660572938097e-05       1.132639105520e-02 
       1.793045413791e-05       1.219733231416e-02 
       1.936085902737e-05       1.313524224380e-02 
       2.090537469909e-05       1.414527121893e-02 
       2.257310435923e-05       1.523296272192e-02 
       2.437387742372e-05       1.640429444530e-02 
       2.631830745176e-05       1.766569582177e-02 
       2.841785470091e-05       1.902408601793e-02 
       3.068489367268e-05       2.048692970591e-02 
       3.313278604643e-05       2.206225513594e-02 
       3.577595943165e-05       2.375870704909e-02 
       3.862999240274e-05       2.558560727479e-02 
       4.171170631739e-05       2.755297763344e-02 
       4.503926445983e-05       2.967161927316e-02 
       4.863227909323e-05       3.195316450832e-02 
       5.251192705226e-05       3.441013519284e-02 
       5.670107455699e-05       3.705601722525e-02 
       6.122441198393e-05       3.990533413562e-02 
       6.610859938837e-05       4.297372168203e-02 
       7.138242363583e-05       4.627802141688e-02 
       7.707696806873e-05       4.983636194159e-02 
       8.322579570814e-05       5.366826847231e-02 
       8.986514707061e-05       5.779476394568e-02 
       9.703415376577e-05       6.223848243885e-02 
       1.047750691338e-04       6.702379865640e-02 
       1.131335172818e-04       7.217695153381e-02 
       1.221587619877e-04       7.772619073572e-02 
       1.319039970550e-04       8.370193432376e-02 
       1.424266598317e-04       9.013692507547e-02 
       1.537887697396e-04       9.706641242570e-02 
       1.660572938097e-04       1.045283354271e-01 
       1.793045413791e-04       1.125635349068e-01 
       1.936085902737e-04       1.212159614968e-01 
       2.090537469909e-04       1.305329132714e-01 
       2.257310435923e-04       1.405652846215e-01 
       2.437387742372e-04       1.513678302540e-01 
       2.631830745176e-04       1.629994504870e-01 
       2.841785470091e-04       1.755234921224e-01 
       3.068489367268e-04       1.890080670413e-01 
       3.313278604643e-04       2.035264002435e-01 
       3.577595943165e-04       2.191571803681e-01 
       3.862999240274e-04       2.359849437592e-01 
       4.171170631739e-04       2.541004741539e-01 
       4.503926445983e-04       2.736012080277e-01 
       4.863227909323e-04       2.945916790965e-01 
       5.251192705226e-04       3.171839525182e-01 
       5.670107455699e-04       3.414980764002e-01 
       6.122441198393e-04       3.676625413100e-01 
       6.610859938837e-04       3.958147252304e-01 
       7.138242363583e-04       4.261013284919e-01 
       7.707696806873e-04       4.586787792350e-01 
       8.322579570814e-04       4.937136001355e-01 
       8.986514707061e-04       5.313826801402e-01 
       9.703415376577e-04       5.718734972158e-01 
       1.047750691338e-03       6.153841629505e-01 
       1.131335172818e-03       6.621233239465e-01 
       1.221587619877e-03       7.123098220422e-01 
       1.319039970550e-03       7.661720584804e-01 
       1.424266598317e-03       8.239546297731e-01 
       1.537887697396e-03       8.859011173466e-01 
       1.660572938097e-03       9.522588006419e-01 
       1.793045413791e-03       1.023280099819e+00 
       1.936085902737e-03       1.099216304579e+00 
       2.090537469909e-03       1.180312990453e+00 
       2.257310435923e-03       1.266804115852e+00 
       2.437387742372e-03       1.358904853405e+00 
       2.631830745176e-03       1.456802683156e+00 
       2.841785470091e-03       1.560646890522e+00 
       3.068489367268e-03       1.670536062500e+00 
       3.313278604643e-03       1.786503852160e+00 
       3.577595943165e-03       1.908502930790e+00 
       3.862999240274e-03       2.036387730709e+00 
       4.171170631739e-03       2.169896176224e+00 
       4.503926445983e-03       2.308631878994e+00 
       4.863227909323e-03       2.452047290962e+00 
       5.251192705226e-03       2.599430628088e+00 
       5.670107455699e-03       2.749896931803e+00 
       6.122441198393e-03       2.902386513385e+00 
       6.610859938837e-03       3.055668702613e+00 
       7.138242363583e-03       3.208356461547e+00 
       7.707696806873e-03       3.358923892385e+00 
       8.322579570814e-03       3.505725595290e+00 
       8.986514707061e-03       3.647009721168e+00 
       9.703415376577e-03       3.780923304306e+00 
       1.047750691338e-02       3.905490355870e+00 
       1.131335172818e-02       4.018587641026e+00 
       1.221587619877e-02       4.117901585378e+00 
       1.319039970550e-02       4.200915309145e+00 
       1.424266598317e-02       4.264942387904e+00 
       1.537887697392e-02       4.307223945925e+00 
       1.660572938023e-02       4.325059519475e+00 
       1.793045412706e-02       4.316057628272e+00 
       1.936085890181e-02       4.278230629498e+00 
       2.090537352463e-02       4.210198934496e+00 
       2.257309535333e-02       4.111423231730e+00 
       2.437382002918e-02       3.982420438479e+00 
       2.631799944462e-02       3.825170453300e+00 
       2.841644545389e-02       3.643280997764e+00 
       3.067933355377e-02       3.442199141651e+00 
       3.311368470740e-02       3.229239099825e+00 
       3.571840443502e-02       3.013507668960e+00 
       3.847720348444e-02       2.805283027884e+00 
       4.135335538431e-02       2.614417130428e+00 
       4.429361667738e-02       2.448136040972e+00 
       4.724366439141e-02       2.309235698837e+00 
       5.016480835311e-02       2.196107448424e+00 
       5.303989620246e-02       2.104366857393e+00 
       5.586870669566e-02       2.028465783004e+00 
       5.866042680613e-02       1.963154477320e+00 
       6.142798932958e-02       1.903779353962e+00 
       6.418496440164e-02       1.846478766239e+00 
       6.694418833788e-02       1.788197859554e+00 
       6.971731106057e-02       1.726712291517e+00 
       7.251476155766e-02       1.660656093600e+00 
       7.534587671527e-02       1.589470601073e+00 
       7.821907666265e-02       1.513435577118e+00 
       8.114203772912e-02       1.433570152233e+00 
       8.412184535029e-02       1.351491511414e+00 
       8.716512279304e-02       1.269274346488e+00 
       9.027813695930e-02       1.189192182728e+00 
       9.346688431697e-02       1.113501596144e+00 
       9.673716028276e-02       1.044174706811e+00 
       1.000946150830e-01       9.827060782046e-01 
       1.035447986537e-01       9.299373840595e-01 
       1.070931966762e-01       8.859585053648e-01 
       1.107452594425e-01       8.500701276184e-01 
       1.145064249153e-01       8.208037692278e-01 
       1.183821370918e-01       7.960251064208e-01 
       1.223778605862e-01       7.731461043983e-01 
       1.264990921987e-01       7.494517545667e-01 
       1.307513701367e-01       7.225588811218e-01 
       1.351402814784e-01       6.909080223338e-01 
       1.396714684203e-01       6.541810978378e-01 
       1.443506338194e-01       6.134252279236e-01 
       1.491835465229e-01       5.708682169242e-01 
       1.541760469708e-01       5.293632432921e-01 
       1.593340535561e-01       4.917113277494e-01 
       1.646635702297e-01       4.599199587897e-01 
       1.701706958456e-01       4.347283020080e-01 
       1.758616357459e-01       4.154088956637e-01 
       1.817427160982e-01       3.999375818197e-01 
       1.878204015065e-01       3.856831582700e-01 
       1.941013164283e-01       3.698093725925e-01 
       2.005922709503e-01       3.505466724574e-01 
       2.073002914972e-01       3.280435401496e-01 
       2.142326570816e-01       3.042147693864e-01 
       2.213969417533e-01       2.816119441392e-01 
       2.288010639706e-01       2.622574010492e-01 
       2.364533437147e-01       2.469623365061e-01 
       2.443625682930e-01       2.350125303791e-01 
       2.525380679504e-01       2.244180653738e-01 
       2.609898026346e-01       2.130934230912e-01 
       2.697284615565e-01       2.001018975131e-01 
       2.787655775689e-01       1.860195945561e-01 
       2.881136588829e-01       1.725167916630e-01 
       2.977863412677e-01       1.610663919278e-01 
       3.077985646929e-01       1.517608254699e-01 
       3.181667794071e-01       1.435597471085e-01 
       3.289091877812e-01       1.351813303811e-01 
       3.400460299658e-01       1.261640494221e-01 
       3.515999236474e-01       1.172019101248e-01 
       3.635962711085e-01       1.091771384070e-01 
       3.760637506334e-01       1.023095349459e-01 
       3.890349143879e-01       9.593762419780e-02 
       4.025469216825e-01       8.950771419367e-02 
       4.166424456376e-01       8.311177496171e-02 
       4.313708035863e-01       7.721559277162e-02 
       4.467893782977e-01       7.190073954331e-02 
       4.629654199664e-01       6.686893072311e-02 
       4.799783501994e-01       6.191759162230e-02 
       4.979227319373e-01       5.722221839435e-02 
       5.169121270864e-01       5.290288476684e-02 
       5.370841404489e-01       4.876993109531e-02 
       5.586070464571e-01       4.479084867114e-02 
       5.816885094930e-01       4.105193816547e-02 
       6.065870144995e-01       3.749002151066e-02 
       6.336266468475e-01       3.407631708817e-02 
       6.632156059511e-01       3.083470399602e-02 
       6.958678639263e-01       2.772829498237e-02 
       7.322247985589e-01       2.476707801171e-02 
       7.730680195114e-01       2.193965629453e-02 
       8.193049553677e-01       1.925618064601e-02 
       8.718988016039e-01       1.672927202012e-02 
       9.317218031082e-01       1.438419994569e-02 
       9.993660908989e-01       1.225067678108e-02 
       1.075037110174e+00       1.035263225420e-02 
       1.158653485707e+00       8.699702318563e-03 
       1.250099157308e+00       7.284570949465e-03 
       1.349432401273e+00       6.085484073249e-03 
       1.456947457397e+00       5.075707162130e-03 
       1.573135111331e+00       4.228303501819e-03 
       1.698621895592e+00       3.518550659393e-03 
       1.834127512934e+00       2.924974388998e-03 
       1.980444934528e+00       2.429157820534e-03 
       2.138435191726e+00       2.015506049633e-03 
       2.309029199186e+00       1.670772573527e-03 
       2.493232377687e+00       1.383798366464e-03 
       2.692130395285e+00       1.145127408042e-03 
       2.906895534573e+00       9.468542098350e-04 
       3.138793597714e+00       7.822866038667e-04 
       3.389191366484e+00       6.458158426324e-04 
       3.659564657905e+00       5.327627285290e-04 
       3.951507022538e+00       4.391806218521e-04 
       4.266739136701e+00       3.617836355767e-04 
       4.607118943941e+00       2.978233987781e-04 
       4.974652605557e+00       2.450089059613e-04 
       5.371506324689e+00       2.014306018861e-04 
       5.800019113685e+00       1.655008581489e-04 
       6.262716579983e+00       1.358981631690e-04 
       6.762325811764e+00       1.115239330659e-04 
       7.301791451110e+00       9.147024148071e-05 
       7.884293049406e+00       7.498069005320e-05 
       8.513263807261e+00       6.143043356837e-05 
       9.192410809424e+00       5.030209369780e-05 
       9.925736873929e+00       4.116908625082e-05 
       1.071756414427e+01       3.367739846848e-05 
       1.157255956364e+01       2.753539038993e-05 
       1.249576238137e+01       2.250295500092e-05 
       1.349261385375e+01       1.838166908342e-05 
       1.456898931416e+01       1.500835541279e-05 
       1.573123280165e+01       1.224848986257e-05 
       1.698619445202e+01       9.991767468637e-06 
       1.834127087176e+01       8.147326358750e-06 
       1.980444873285e+01       6.640447410578e-06 
       2.138435184532e+01       5.409968661623e-06 
       2.309029198506e+01       4.405631974330e-06 
       2.493232377636e+01       3.586195299404e-06 
       2.692130395282e+01       2.917912953781e-06 
       2.906895534573e+01       2.373141610234e-06 
       3.138793597714e+01       1.929188233508e-06 
       3.389191366484e+01       1.567573834372e-06 
       3.659564657905e+01       1.273108903220e-06 
       3.951507022538e+01       1.033443056161e-06 
       4.266739136701e+01       8.384384117845e-07 
       4.607118943941e+01       6.798238806390e-07 
       4.974652605557e+01       5.508581369953e-07 
       5.371506324689e+01       4.460404766122e-07 
       5.800019113685e+01       3.608762633500e-07 
       6.262716579983e+01       2.917051755214e-07 
       6.762325811764e+01       2.355517449992e-07 
