# Matter power spectrum P(k) at redshift z=99
# for k=1.04775e-05 to 67.6233 h/Mpc,
# number of wavenumbers equal to 246
#    1:k (h/Mpc)              2:P (Mpc/h)^3        
       1.047750691338e-05       7.261927673119e-03 
       1.131335172818e-05       7.820331745737e-03 
       1.221587619877e-05       8.421675986489e-03 
       1.319039970550e-05       9.069258192195e-03 
       1.424266598317e-05       9.766638404421e-03 
       1.537887697396e-05       1.051764069682e-02 
       1.660572938097e-05       1.132639105520e-02 
       1.793045413791e-05       1.219733231417e-02 
       1.936085902737e-05       1.313524224381e-02 
       2.090537469909e-05       1.414527121893e-02 
       2.257310435923e-05       1.523296272192e-02 
       2.437387742372e-05       1.640429444530e-02 
       2.631830745176e-05       1.766569582177e-02 
       2.841785470091e-05       1.902408601793e-02 
       3.068489367268e-05       2.048692970592e-02 
       3.313278604643e-05       2.206225513594e-02 
       3.577595943165e-05       2.375870704909e-02 
       3.862999240274e-05       2.558560727479e-02 
       4.171170631739e-05       2.755297763344e-02 
       4.503926445983e-05       2.967161927315e-02 
       4.863227909323e-05       3.195316450832e-02 
       5.251192705226e-05       3.441013519284e-02 
       5.670107455699e-05       3.705601722523e-02 
       6.122441198393e-05       3.990533413560e-02 
       6.610859938837e-05       4.297372168203e-02 
       7.138242363583e-05       4.627802141688e-02 
       7.707696806873e-05       4.983636194159e-02 
       8.322579570814e-05       5.366826847231e-02 
       8.986514707061e-05       5.779476394569e-02 
       9.703415376577e-05       6.223848243885e-02 
       1.047750691338e-04       6.702379865640e-02 
       1.131335172818e-04       7.217695153381e-02 
       1.221587619877e-04       7.772619073573e-02 
       1.319039970550e-04       8.370193432377e-02 
       1.424266598317e-04       9.013692507548e-02 
       1.537887697396e-04       9.706641242571e-02 
       1.660572938097e-04       1.045283354271e-01 
       1.793045413791e-04       1.125635349068e-01 
       1.936085902737e-04       1.212159614968e-01 
       2.090537469909e-04       1.305329132714e-01 
       2.257310435923e-04       1.405652846215e-01 
       2.437387742372e-04       1.513678302540e-01 
       2.631830745176e-04       1.629994504871e-01 
       2.841785470091e-04       1.755234921224e-01 
       3.068489367268e-04       1.890080670413e-01 
       3.313278604643e-04       2.035264002435e-01 
       3.577595943165e-04       2.191571803681e-01 
       3.862999240274e-04       2.359849437592e-01 
       4.171170631739e-04       2.541004741539e-01 
       4.503926445983e-04       2.736012080278e-01 
       4.863227909323e-04       2.945916790965e-01 
       5.251192705226e-04       3.171839525183e-01 
       5.670107455699e-04       3.414980764002e-01 
       6.122441198393e-04       3.676625413100e-01 
       6.610859938837e-04       3.958147252304e-01 
       7.138242363583e-04       4.261013284902e-01 
       7.707696806873e-04       4.586787792352e-01 
       8.322579570814e-04       4.937136001380e-01 
       8.986514707061e-04       5.313826801402e-01 
       9.703415376577e-04       5.718734972158e-01 
       1.047750691338e-03       6.153841629505e-01 
       1.131335172818e-03       6.621233239466e-01 
       1.221587619877e-03       7.123098220424e-01 
       1.319039970550e-03       7.661720584390e-01 
       1.424266598317e-03       8.239546297732e-01 
       1.537887697396e-03       8.859011173467e-01 
       1.660572938097e-03       9.522588006418e-01 
       1.793045413791e-03       1.023280099819e+00 
       1.936085902737e-03       1.099216304579e+00 
       2.090537469909e-03       1.180312990454e+00 
       2.257310435923e-03       1.266804115850e+00 
       2.437387742372e-03       1.358904853406e+00 
       2.631830745176e-03       1.456802683156e+00 
       2.841785470091e-03       1.560646890521e+00 
       3.068489367268e-03       1.670536062499e+00 
       3.313278604643e-03       1.786503852163e+00 
       3.577595943165e-03       1.908502930789e+00 
       3.862999240274e-03       2.036387730708e+00 
       4.171170631739e-03       2.169896178698e+00 
       4.503926445983e-03       2.308631878992e+00 
       4.863227909323e-03       2.452047290960e+00 
       5.251192705226e-03       2.599430628085e+00 
       5.670107455699e-03       2.749896931796e+00 
       6.122441198393e-03       2.902386513379e+00 
       6.610859938837e-03       3.055668713718e+00 
       7.138242363583e-03       3.208356461535e+00 
       7.707696806873e-03       3.358923892614e+00 
       8.322579570814e-03       3.505725595262e+00 
       8.986514707061e-03       3.647010225235e+00 
       9.703415376577e-03       3.780923304231e+00 
       1.047750691338e-02       3.905491090408e+00 
       1.131335172818e-02       4.018588038459e+00 
       1.221587619877e-02       4.117901586092e+00 
       1.319039970550e-02       4.200915401149e+00 
       1.424266598317e-02       4.264943948347e+00 
       1.537887697392e-02       4.307219429485e+00 
       1.660572938023e-02       4.325062347890e+00 
       1.793045412706e-02       4.316057983587e+00 
       1.936085890181e-02       4.278232046065e+00 
       2.090537352463e-02       4.210206598314e+00 
       2.257309535333e-02       4.111421388040e+00 
       2.437382002918e-02       3.982421600336e+00 
       2.631799944462e-02       3.825164922096e+00 
       2.841644545389e-02       3.643274894087e+00 
       3.067933355377e-02       3.442198315338e+00 
       3.311368470740e-02       3.229242257034e+00 
       3.571840443502e-02       3.013521125274e+00 
       3.847720348444e-02       2.805276136705e+00 
       4.135335538431e-02       2.614414580892e+00 
       4.429361667738e-02       2.448127026747e+00 
       4.724366439141e-02       2.309237889761e+00 
       5.016480835311e-02       2.196110778300e+00 
       5.303989620246e-02       2.104363933699e+00 
       5.586870669566e-02       2.028461016946e+00 
       5.866042680613e-02       1.963153578569e+00 
       6.142798932958e-02       1.903778724145e+00 
       6.418496440164e-02       1.846477941663e+00 
       6.694418833788e-02       1.788197811985e+00 
       6.971731106057e-02       1.726715748348e+00 
       7.251476155766e-02       1.660652483860e+00 
       7.534587671527e-02       1.589469727606e+00 
       7.821907666265e-02       1.513439211381e+00 
       8.114203772912e-02       1.433568985869e+00 
       8.412184535029e-02       1.351491140232e+00 
       8.716512279304e-02       1.269275036694e+00 
       9.027813695930e-02       1.189193470977e+00 
       9.346688431697e-02       1.113500370508e+00 
       9.673716028276e-02       1.044177285416e+00 
       1.000946150830e-01       9.827081775889e-01 
       1.035447986537e-01       9.299404246792e-01 
       1.070931966762e-01       8.859604525438e-01 
       1.107452594425e-01       8.500713689339e-01 
       1.145064249153e-01       8.208010955205e-01 
       1.183821370918e-01       7.960247203917e-01 
       1.223778605862e-01       7.731446490586e-01 
       1.264990921987e-01       7.494507311988e-01 
       1.307513701367e-01       7.225571897639e-01 
       1.351402814784e-01       6.909076671241e-01 
       1.396714684203e-01       6.541812180016e-01 
       1.443506338194e-01       6.134266799333e-01 
       1.491835465229e-01       5.708678913670e-01 
       1.541760469708e-01       5.293640366105e-01 
       1.593340535561e-01       4.917108037438e-01 
       1.646635702297e-01       4.599190597586e-01 
       1.701706958456e-01       4.347284493082e-01 
       1.758616357459e-01       4.154084372110e-01 
       1.817427160982e-01       3.999373262056e-01 
       1.878204015065e-01       3.856820777635e-01 
       1.941013164283e-01       3.698100844974e-01 
       2.005922709503e-01       3.505464775188e-01 
       2.073002914972e-01       3.280430344779e-01 
       2.142326570816e-01       3.042137176279e-01 
       2.213969417533e-01       2.816127299447e-01 
       2.288010639706e-01       2.622576069185e-01 
       2.364533437147e-01       2.469615285151e-01 
       2.443625682930e-01       2.350129339657e-01 
       2.525380679504e-01       2.244175421670e-01 
       2.609898026346e-01       2.130937245885e-01 
       2.697284615565e-01       2.001014505039e-01 
       2.787655775689e-01       1.860200720646e-01 
       2.881136588829e-01       1.725167442109e-01 
       2.977863412677e-01       1.610663281573e-01 
       3.077985646929e-01       1.517612371989e-01 
       3.181667794071e-01       1.435596698023e-01 
       3.289091877812e-01       1.351815962188e-01 
       3.400460299658e-01       1.261646321625e-01 
       3.515999236474e-01       1.172019468359e-01 
       3.635962711085e-01       1.091770163663e-01 
       3.760637506334e-01       1.023091443509e-01 
       3.890349143879e-01       9.593759006020e-02 
       4.025469216825e-01       8.950762909231e-02 
       4.166424456376e-01       8.311163849192e-02 
       4.313708035863e-01       7.721543125159e-02 
       4.467893782977e-01       7.190070862854e-02 
       4.629654199664e-01       6.686901841820e-02 
       4.799783501994e-01       6.191751789619e-02 
       4.979227319373e-01       5.722213966664e-02 
       5.169121270864e-01       5.290290074273e-02 
       5.370841404489e-01       4.876969859652e-02 
       5.586070464571e-01       4.479078915094e-02 
       5.816885094930e-01       4.105182241778e-02 
       6.065870144995e-01       3.748980060790e-02 
       6.336266468475e-01       3.407624991071e-02 
       6.632156059511e-01       3.083444845888e-02 
       6.958678639263e-01       2.772817754601e-02 
       7.322247985589e-01       2.476700079598e-02 
       7.730680195114e-01       2.193949068507e-02 
       8.193049553677e-01       1.925596485329e-02 
       8.718988016039e-01       1.672912917972e-02 
       9.317218031082e-01       1.438403311278e-02 
       9.993660908989e-01       1.225050536594e-02 
       1.075037110174e+00       1.035247843118e-02 
       1.158653485707e+00       8.699583775928e-03 
       1.250099157308e+00       7.284419442797e-03 
       1.349432401273e+00       6.085286894760e-03 
       1.456947457397e+00       5.075548754837e-03 
       1.573135111331e+00       4.228109935918e-03 
       1.698621895592e+00       3.518364872297e-03 
       1.834127512934e+00       2.924789187591e-03 
       1.980444934528e+00       2.428979439498e-03 
       2.138435191726e+00       2.015316465924e-03 
       2.309029199186e+00       1.670576763829e-03 
       2.493232377687e+00       1.383594736138e-03 
       2.692130395285e+00       1.144931283494e-03 
       2.906895534573e+00       9.466574186233e-04 
       3.138793597714e+00       7.820870120131e-04 
       3.389191366484e+00       6.456205590819e-04 
       3.659564657905e+00       5.325644130494e-04 
       3.951507022538e+00       4.389766240400e-04 
       4.266739136701e+00       3.615809276115e-04 
       4.607118943941e+00       2.976160635376e-04 
       4.974652605557e+00       2.448014098732e-04 
       5.371506324689e+00       2.012231420719e-04 
       5.800019113685e+00       1.652921101642e-04 
       6.262716579983e+00       1.356889612204e-04 
       6.762325811764e+00       1.113148507192e-04 
       7.301791451110e+00       9.125932567570e-05 
       7.884293049406e+00       7.476944299233e-05 
       8.513263807261e+00       6.121808909768e-05 
       9.192410809424e+00       5.009040135003e-05 
       9.925736873929e+00       4.095669022679e-05 
       1.071756414427e+01       3.346496750642e-05 
       1.157255956364e+01       2.732303535561e-05 
       1.249576238137e+01       2.229059893034e-05 
       1.349261385375e+01       1.816945532690e-05 
       1.456898931416e+01       1.479662855159e-05 
       1.573123280165e+01       1.203727911155e-05 
       1.698619445202e+01       9.781359699865e-06 
       1.834127087176e+01       7.937840928656e-06 
       1.980444873285e+01       6.432305841828e-06 
       2.138435184532e+01       5.203280596118e-06 
       2.309029198506e+01       4.200755716732e-06 
       2.493232377636e+01       3.383432735173e-06 
       2.692130395282e+01       2.717655342365e-06 
       2.906895534573e+01       2.175793835894e-06 
       3.138793597714e+01       1.735206509228e-06 
       3.389191366484e+01       1.377458191405e-06 
       3.659564657905e+01       1.087414841770e-06 
       3.951507022538e+01       8.527335513955e-07 
       4.266739136701e+01       6.633463943501e-07 
       4.607118943941e+01       5.110297039097e-07 
       4.974652605557e+01       3.890674250323e-07 
       5.371506324689e+01       2.919664282999e-07 
       5.800019113685e+01       2.152488214070e-07 
       6.262716579983e+01       1.552329721126e-07 
       6.762325811764e+01       1.088984174050e-07 
