# Matter power spectrum P(k) at redshift z=0
# for k=1.04775e-05 to 67.6233 h/Mpc,
# number of wavenumbers equal to 246
#    1:k (h/Mpc)              2:P (Mpc/h)^3        
       1.047750691338e-05       5.020964806755e+01 
       1.131335172818e-05       5.407048206554e+01 
       1.221587619877e-05       5.822819063845e+01 
       1.319039970550e-05       6.270562589673e+01 
       1.424266598317e-05       6.752731788102e+01 
       1.537887697396e-05       7.271977200258e+01 
       1.660572938097e-05       7.831147241542e+01 
       1.793045413791e-05       8.433311815128e+01 
       1.936085902737e-05       9.081778242446e+01 
       2.090537469909e-05       9.780108061340e+01 
       2.257310435923e-05       1.053213197032e+02 
       2.437387742372e-05       1.134197377001e+02 
       2.631830745176e-05       1.221408202816e+02 
       2.841785470091e-05       1.315324720916e+02 
       3.068489367268e-05       1.416462093730e+02 
       3.313278604643e-05       1.525374500691e+02 
       3.577595943165e-05       1.642660687078e+02 
       3.862999240274e-05       1.768963504868e+02 
       4.171170631739e-05       1.904975992461e+02 
       4.503926445983e-05       2.051444490305e+02 
       4.863227909323e-05       2.209171463752e+02 
       5.251192705226e-05       2.379022222314e+02 
       5.670107455699e-05       2.561927925783e+02 
       6.122441198393e-05       2.758890441791e+02 
       6.610859938837e-05       2.970989225466e+02 
       7.138242363583e-05       3.199385558200e+02 
       7.707696806873e-05       3.445329780878e+02 
       8.322579570814e-05       3.710167315928e+02 
       8.986514707061e-05       3.995346440954e+02 
       9.703415376577e-05       4.302425403884e+02 
       1.047750691338e-04       4.633080762974e+02 
       1.131335172818e-04       4.989116267507e+02 
       1.221587619877e-04       5.372471946561e+02 
       1.319039970550e-04       5.785234124629e+02 
       1.424266598317e-04       6.229645930980e+02 
       1.537887697396e-04       6.708118484951e+02 
       1.660572938097e-04       7.223242660220e+02 
       1.793045413791e-04       7.777801554318e+02 
       1.936085902737e-04       8.374783607332e+02 
       2.090537469909e-04       9.017396264495e+02 
       2.257310435923e-04       9.709080260152e+02 
       2.437387742372e-04       1.045352448644e+03 
       2.631830745176e-04       1.125468122836e+03 
       2.841785470091e-04       1.211678179511e+03 
       3.068489367268e-04       1.304435249091e+03 
       3.313278604643e-04       1.404223052541e+03 
       3.577595943165e-04       1.511558013390e+03 
       3.862999240274e-04       1.626990836457e+03 
       4.171170631739e-04       1.751108027370e+03 
       4.503926445983e-04       1.884533381345e+03 
       4.863227909323e-04       2.027929376471e+03 
       5.251192705226e-04       2.181998446367e+03 
       5.670107455699e-04       2.347484100857e+03 
       6.122441198393e-04       2.525171869334e+03 
       6.610859938837e-04       2.715889981401e+03 
       7.138242363583e-04       2.920509686087e+03 
       7.707696806873e-04       3.139945097710e+03 
       8.322579570814e-04       3.375152334395e+03 
       8.986514707061e-04       3.627127828231e+03 
       9.703415376577e-04       3.896905450016e+03 
       1.047750691338e-03       4.185552170959e+03 
       1.131335172818e-03       4.494162426791e+03 
       1.221587619877e-03       4.823850702664e+03 
       1.319039970550e-03       5.175742734711e+03 
       1.424266598317e-03       5.551019592520e+03 
       1.537887697396e-03       5.950788335878e+03 
       1.660572938097e-03       6.376123046810e+03 
       1.793045413791e-03       6.828073896123e+03 
       1.936085902737e-03       7.307625375386e+03 
       2.090537469909e-03       7.815671860121e+03 
       2.257310435923e-03       8.352990369400e+03 
       2.437387742372e-03       8.920211057537e+03 
       2.631830745176e-03       9.517783061890e+03 
       2.841785470091e-03       1.014593703671e+04 
       3.068489367268e-03       1.080464505727e+04 
       3.313278604643e-03       1.149357459451e+04 
       3.577595943165e-03       1.221203620826e+04 
       3.862999240274e-03       1.295892538505e+04 
       4.171170631739e-03       1.373266002274e+04 
       4.503926445983e-03       1.453111834595e+04 
       4.863227909323e-03       1.535154984226e+04 
       5.251192705226e-03       1.619063613430e+04 
       5.670107455699e-03       1.704431256585e+04 
       6.122441198393e-03       1.790755938454e+04 
       6.610859938837e-03       1.877460419545e+04 
       7.138242363583e-03       1.963872429105e+04 
       7.707696806873e-03       2.049215713490e+04 
       8.322579570814e-03       2.132607230569e+04 
       8.986514707061e-03       2.213055264381e+04 
       9.703415376577e-03       2.289445470820e+04 
       1.047750691338e-02       2.360548193631e+04 
       1.131335172818e-02       2.425022856715e+04 
       1.221587619877e-02       2.481423921770e+04 
       1.319039970550e-02       2.528218787659e+04 
       1.424266598317e-02       2.563814312310e+04 
       1.537887697392e-02       2.586606739639e+04 
       1.660572938023e-02       2.595026445486e+04 
       1.793045412706e-02       2.587634007161e+04 
       1.936085890181e-02       2.563221923447e+04 
       2.090537352463e-02       2.520932156351e+04 
       2.257309535333e-02       2.460447600484e+04 
       2.437382002918e-02       2.382089670579e+04 
       2.631799944462e-02       2.287043167612e+04 
       2.841644545389e-02       2.177449826223e+04 
       3.067933355377e-02       2.056556544724e+04 
       3.311368470740e-02       1.928730370990e+04 
       3.571840443502e-02       1.799399893667e+04 
       3.847720348444e-02       1.674682068292e+04 
       4.135335538431e-02       1.560463062102e+04 
       4.429361667738e-02       1.461044611734e+04 
       4.724366439141e-02       1.378054764548e+04 
       5.016480835311e-02       1.310507382767e+04 
       5.303989620246e-02       1.255715379722e+04 
       5.586870669566e-02       1.210425129049e+04 
       5.866042680613e-02       1.171463536946e+04 
       6.142798932958e-02       1.136044531252e+04 
       6.418496440164e-02       1.101855503858e+04 
       6.694418833788e-02       1.067068769001e+04 
       6.971731106057e-02       1.030357163777e+04 
       7.251476155766e-02       9.909001563687e+03 
       7.534587671527e-02       9.483778832354e+03 
       7.821907666265e-02       9.029510281116e+03 
       8.114203772912e-02       8.552326765317e+03 
       8.412184535029e-02       8.061951992716e+03 
       8.716512279304e-02       7.570792335422e+03 
       9.027813695930e-02       7.092527639439e+03 
       9.346688431697e-02       6.640527961798e+03 
       9.673716028276e-02       6.226726986992e+03 
       1.000946150830e-01       5.859944082254e+03 
       1.035447986537e-01       5.545238818711e+03 
       1.070931966762e-01       5.283147930807e+03 
       1.107452594425e-01       5.069420325471e+03 
       1.145064249153e-01       4.895246611308e+03 
       1.183821370918e-01       4.747866271827e+03 
       1.223778605862e-01       4.611737496660e+03 
       1.264990921987e-01       4.470614302002e+03 
       1.307513701367e-01       4.310272590719e+03 
       1.351402814784e-01       4.121391804870e+03 
       1.396714684203e-01       3.902053649438e+03 
       1.443506338194e-01       3.658642339586e+03 
       1.491835465229e-01       3.404478697056e+03 
       1.541760469708e-01       3.156678981360e+03 
       1.593340535561e-01       2.931979317757e+03 
       1.646635702297e-01       2.742375071271e+03 
       1.701706958456e-01       2.592255740941e+03 
       1.758616357459e-01       2.477246277517e+03 
       1.817427160982e-01       2.385179232515e+03 
       1.878204015065e-01       2.300358635010e+03 
       1.941013164283e-01       2.205762729842e+03 
       2.005922709503e-01       2.090814150429e+03 
       2.073002914972e-01       1.956470253867e+03 
       2.142326570816e-01       1.814189289276e+03 
       2.213969417533e-01       1.679298702055e+03 
       2.288010639706e-01       1.563849460093e+03 
       2.364533437147e-01       1.472686748709e+03 
       2.443625682930e-01       1.401511136031e+03 
       2.525380679504e-01       1.338414396606e+03 
       2.609898026346e-01       1.270900739414e+03 
       2.697284615565e-01       1.193383319488e+03 
       2.787655775689e-01       1.109342297410e+03 
       2.881136588829e-01       1.028770873868e+03 
       2.977863412677e-01       9.604800058327e+02 
       3.077985646929e-01       9.050276159177e+02 
       3.181667794071e-01       8.561455093839e+02 
       3.289091877812e-01       8.061856705027e+02 
       3.400460299658e-01       7.523912638166e+02 
       3.515999236474e-01       6.989225778341e+02 
       3.635962711085e-01       6.510639179642e+02 
       3.760637506334e-01       6.101245223057e+02 
       3.890349143879e-01       5.721328913979e+02 
       4.025469216825e-01       5.337829034158e+02 
       4.166424456376e-01       4.956338481221e+02 
       4.313708035863e-01       4.604700628775e+02 
       4.467893782977e-01       4.287775830227e+02 
       4.629654199664e-01       3.987728517325e+02 
       4.799783501994e-01       3.692415676846e+02 
       4.979227319373e-01       3.412410958072e+02 
       5.169121270864e-01       3.154831469030e+02 
       5.370841404489e-01       2.908355417449e+02 
       5.586070464571e-01       2.671071228214e+02 
       5.816885094930e-01       2.448097604578e+02 
       6.065870144995e-01       2.235673149442e+02 
       6.336266468475e-01       2.032106930652e+02 
       6.632156059511e-01       1.838790286549e+02 
       6.958678639263e-01       1.653553449672e+02 
       7.322247985589e-01       1.476954890720e+02 
       7.730680195114e-01       1.308337435017e+02 
       8.193049553677e-01       1.148314623251e+02 
       8.718988016039e-01       9.976284261777e+01 
       9.317218031082e-01       8.577804918036e+01 
       9.993660908989e-01       7.305509509685e+01 
       1.075037110174e+00       6.173609661995e+01 
       1.158653485707e+00       5.187915483398e+01 
       1.250099157308e+00       4.344034171142e+01 
       1.349432401273e+00       3.628936559950e+01 
       1.456947457397e+00       3.026795943437e+01 
       1.573135111331e+00       2.521444954197e+01 
       1.698621895592e+00       2.098197085835e+01 
       1.834127512934e+00       1.744236834702e+01 
       1.980444934528e+00       1.448562310243e+01 
       2.138435191726e+00       1.201893520013e+01 
       2.309029199186e+00       9.963133683457e+00 
       2.493232377687e+00       8.251765237598e+00 
       2.692130395285e+00       6.828517232408e+00 
       2.906895534573e+00       5.646160103575e+00 
       3.138793597714e+00       4.664789215053e+00 
       3.389191366484e+00       3.851045140821e+00 
       3.659564657905e+00       3.176851315782e+00 
       3.951507022538e+00       2.618782878048e+00 
       4.266739136701e+00       2.157251596863e+00 
       4.607118943941e+00       1.775825373150e+00 
       4.974652605557e+00       1.460895926066e+00 
       5.371506324689e+00       1.201025922577e+00 
       5.800019113685e+00       9.867729453209e-01 
       6.262716579983e+00       8.102389937075e-01 
       6.762325811764e+00       6.649009770049e-01 
       7.301791451110e+00       5.453109495301e-01 
       7.884293049406e+00       4.469806172952e-01 
       8.513263807261e+00       3.661837423418e-01 
       9.192410809424e+00       2.998286886842e-01 
       9.925736873929e+00       2.453653086218e-01 
       1.071756414427e+01       2.006933923551e-01 
       1.157255956364e+01       1.640694497370e-01 
       1.249576238137e+01       1.340620213171e-01 
       1.349261385375e+01       1.094868906529e-01 
       1.456898931416e+01       8.937381056629e-02 
       1.573123280165e+01       7.291877124932e-02 
       1.698619445202e+01       5.946358997729e-02 
       1.834127087176e+01       4.846687281940e-02 
       1.980444873285e+01       3.948276815272e-02 
       2.138435184532e+01       3.214703634484e-02 
       2.309029198506e+01       2.616027976261e-02 
       2.493232377636e+01       2.127579814968e-02 
       2.692130395282e+01       1.729246548591e-02 
       2.906895534573e+01       1.404573941939e-02 
       3.138793597714e+01       1.140036434128e-02 
       3.389191366484e+01       9.245716056907e-03 
       3.659564657905e+01       7.491806309575e-03 
       3.951507022538e+01       6.064565511458e-03 
       4.266739136701e+01       4.903440495510e-03 
       4.607118943941e+01       3.959565023186e-03 
       4.974652605557e+01       3.192552902683e-03 
       5.371506324689e+01       2.569635233182e-03 
       5.800019113685e+01       2.063858368754e-03 
       6.262716579983e+01       1.653655651935e-03 
       6.762325811764e+01       1.321154386974e-03 
