# Matter power spectrum P(k) at redshift z=99
# for k=1.04775e-05 to 134.926 h/Mpc,
# number of wavenumbers equal to 255
#    1:k (h/Mpc)              2:P (Mpc/h)^3        
       1.047750691338e-05       7.261927297587e-03 
       1.131335172818e-05       7.820332368571e-03 
       1.221587619877e-05       8.421675616932e-03 
       1.319039970550e-05       9.069257990504e-03 
       1.424266598317e-05       9.766636723267e-03 
       1.537887697396e-05       1.051764006676e-02 
       1.660572938097e-05       1.132639282506e-02 
       1.793045413791e-05       1.219733234972e-02 
       1.936085902737e-05       1.313524224180e-02 
       2.090537469909e-05       1.414527124246e-02 
       2.257310435923e-05       1.523296587374e-02 
       2.437387742372e-05       1.640429700348e-02 
       2.631830745176e-05       1.766569652324e-02 
       2.841785470091e-05       1.902408763720e-02 
       3.068489367268e-05       2.048693024343e-02 
       3.313278604643e-05       2.206225528985e-02 
       3.577595943165e-05       2.375870949879e-02 
       3.862999240274e-05       2.558560740767e-02 
       4.171170631739e-05       2.755297748964e-02 
       4.503926445983e-05       2.967162002626e-02 
       4.863227909323e-05       3.195316544258e-02 
       5.251192705226e-05       3.441013562516e-02 
       5.670107455699e-05       3.705601844407e-02 
       6.122441198393e-05       3.990533523170e-02 
       6.610859938837e-05       4.297372368706e-02 
       7.138242363583e-05       4.627802210338e-02 
       7.707696806873e-05       4.983636299675e-02 
       8.322579570814e-05       5.366826936497e-02 
       8.986514707061e-05       5.779476481350e-02 
       9.703415376577e-05       6.223848426628e-02 
       1.047750691338e-04       6.702380010328e-02 
       1.131335172818e-04       7.217695140078e-02 
       1.221587619877e-04       7.772619244770e-02 
       1.319039970550e-04       8.370193603202e-02 
       1.424266598317e-04       9.013692745830e-02 
       1.537887697396e-04       9.706641390861e-02 
       1.660572938097e-04       1.045283372147e-01 
       1.793045413791e-04       1.125635360430e-01 
       1.936085902737e-04       1.212159625655e-01 
       2.090537469909e-04       1.305329144214e-01 
       2.257310435923e-04       1.405652857474e-01 
       2.437387742372e-04       1.513678319873e-01 
       2.631830745176e-04       1.629994519524e-01 
       2.841785470091e-04       1.755234933461e-01 
       3.068489367268e-04       1.890080702751e-01 
       3.313278604643e-04       2.035264032040e-01 
       3.577595943165e-04       2.191571835583e-01 
       3.862999240274e-04       2.359849485781e-01 
       4.171170631739e-04       2.541004779741e-01 
       4.503926445983e-04       2.736012132289e-01 
       4.863227909323e-04       2.945916850319e-01 
       5.251192705226e-04       3.171839588189e-01 
       5.670107455699e-04       3.414980854136e-01 
       6.122441198393e-04       3.676625506035e-01 
       6.610859938837e-04       3.958147367168e-01 
       7.138242363583e-04       4.261013430686e-01 
       7.707696806873e-04       4.586787983380e-01 
       8.322579570814e-04       4.937136218600e-01 
       8.986514707061e-04       5.313827070138e-01 
       9.703415376577e-04       5.718735285800e-01 
       1.047750691338e-03       6.153842034288e-01 
       1.131335172818e-03       6.621233727715e-01 
       1.221587619877e-03       7.123098841348e-01 
       1.319039970550e-03       7.661721350122e-01 
       1.424266598317e-03       8.239547253234e-01 
       1.537887697396e-03       8.859012343607e-01 
       1.660572938097e-03       9.522589491003e-01 
       1.793045413791e-03       1.023280277033e+00 
       1.936085902737e-03       1.099216519999e+00 
       2.090537469909e-03       1.180313243751e+00 
       2.257310435923e-03       1.266804414658e+00 
       2.437387742372e-03       1.358905203972e+00 
       2.631830745176e-03       1.456803098451e+00 
       2.841785470091e-03       1.560647355752e+00 
       3.068489367268e-03       1.670536558901e+00 
       3.313278604643e-03       1.786504335046e+00 
       3.577595943165e-03       1.908503386901e+00 
       3.862999240274e-03       2.036388078102e+00 
       4.171170631739e-03       2.169896218748e+00 
       4.503926445983e-03       2.308631357567e+00 
       4.863227909323e-03       2.452045846900e+00 
       5.251192705226e-03       2.599427821972e+00 
       5.670107455699e-03       2.749890831059e+00 
       6.122441198393e-03       2.902375511490e+00 
       6.610859938837e-03       3.055651373740e+00 
       7.138242363583e-03       3.208330739444e+00 
       7.707696806873e-03       3.358885984166e+00 
       8.322579570814e-03       3.505671835007e+00 
       8.986514707061e-03       3.646935125992e+00 
       9.703415376577e-03       3.780819551129e+00 
       1.047750691338e-02       3.905348067566e+00 
       1.131335172818e-02       4.018391772337e+00 
       1.221587619877e-02       4.117634453061e+00 
       1.319039970550e-02       4.200555665976e+00 
       1.424266598317e-02       4.264457499083e+00 
       1.537887697392e-02       4.306569740723e+00 
       1.660572938023e-02       4.324197789942e+00 
       1.793045412706e-02       4.314916174186e+00 
       1.936085890181e-02       4.276722562033e+00 
       2.090537352463e-02       4.208235630239e+00 
       2.257309535333e-02       4.108861456622e+00 
       2.437382002918e-02       3.979122742683e+00 
       2.631799944462e-02       3.820951999190e+00 
       2.841644545389e-02       3.637934103929e+00 
       3.067933355377e-02       3.435487002562e+00 
       3.311368470740e-02       3.220892555526e+00 
       3.571840443502e-02       3.003262491411e+00 
       3.847720348444e-02       2.792843426750e+00 
       4.135335538431e-02       2.599523275380e+00 
       4.429361667738e-02       2.430583181684e+00 
       4.724366439141e-02       2.288863457993e+00 
       5.016480835311e-02       2.172757717444e+00 
       5.303989620246e-02       2.077937302375e+00 
       5.586870669566e-02       1.998864265885e+00 
       5.866042680613e-02       1.930285022643e+00 
       6.142798932958e-02       1.867540619909e+00 
       6.418496440164e-02       1.806767332673e+00 
       6.694418833788e-02       1.744911121065e+00 
       6.971731106057e-02       1.679752431538e+00 
       7.251476155766e-02       1.609920192710e+00 
       7.534587671527e-02       1.534879837288e+00 
       7.821907666265e-02       1.454914206516e+00 
       8.114203772912e-02       1.371051544085e+00 
       8.412184535029e-02       1.284927770644e+00 
       8.716512279304e-02       1.198608126988e+00 
       9.027813695930e-02       1.114370146880e+00 
       9.346688431697e-02       1.034442416773e+00 
       9.673716028276e-02       9.607656694348e-01 
       1.000946150830e-01       8.947822357706e-01 
       1.035447986537e-01       8.372848850723e-01 
       1.070931966762e-01       7.883044992731e-01 
       1.107452594425e-01       7.471294906067e-01 
       1.145064249153e-01       7.123017149890e-01 
       1.183821370918e-01       6.817589940761e-01 
       1.223778605862e-01       6.530301898729e-01 
       1.264990921987e-01       6.235667383717e-01 
       1.307513701367e-01       5.911632465180e-01 
       1.351402814784e-01       5.544313035074e-01 
       1.396714684203e-01       5.131560294333e-01 
       1.443506338194e-01       4.684113165839e-01 
       1.491835465229e-01       4.223331412241e-01 
       1.541760469708e-01       3.775759735490e-01 
       1.593340535561e-01       3.366480143415e-01 
       1.646635702297e-01       3.012459528431e-01 
       1.701706958456e-01       2.719108807635e-01 
       1.758616357459e-01       2.479235050611e-01 
       1.817427160982e-01       2.275703047930e-01 
       1.878204015065e-01       2.087515067625e-01 
       1.941013164283e-01       1.893176115845e-01 
       2.005922709503e-01       1.680481384202e-01 
       2.073002914972e-01       1.452214207898e-01 
       2.142326570816e-01       1.223765162668e-01 
       2.213969417533e-01       1.013500405421e-01 
       2.288010639706e-01       8.343663722769e-02 
       2.364533437147e-01       6.897567009455e-02 
       2.443625682930e-01       5.738241802291e-02 
       2.525380679504e-01       4.748024913433e-02 
       2.609898026346e-01       3.822739615724e-02 
       2.697284615565e-01       2.928111096327e-02 
       2.787655775689e-01       2.101188171286e-02 
       2.881136588829e-01       1.411617303603e-02 
       2.977863412677e-01       8.971940289701e-03 
       3.077985646929e-01       5.379871424120e-03 
       3.181667794071e-01       2.896755192783e-03 
       3.289091877812e-01       1.197074321028e-03 
       3.400460299658e-01       2.210860546748e-04 
       3.515999236474e-01       2.115408145591e-05 
       3.635962711085e-01       5.016834898140e-04 
       3.760637506334e-01       1.429129211619e-03 
       3.890349143879e-01       2.645764060065e-03 
       4.025469216825e-01       4.111849552757e-03 
       4.166424456376e-01       5.744468737365e-03 
       4.313708035863e-01       7.323004666917e-03 
       4.467893782977e-01       8.658210144541e-03 
       4.629654199664e-01       9.704986936045e-03 
       4.799783501994e-01       1.045711976189e-02 
       4.979227319373e-01       1.081225466820e-02 
       5.169121270864e-01       1.065452871591e-02 
       5.370841404489e-01       1.004840122914e-02 
       5.586070464571e-01       9.045253107035e-03 
       5.816885094930e-01       7.667273318376e-03 
       6.065870144995e-01       6.055211820440e-03 
       6.336266468475e-01       4.353175033276e-03 
       6.632156059511e-01       2.726609625923e-03 
       6.958678639263e-01       1.369943553887e-03 
       7.322247985589e-01       4.373252206777e-04 
       7.730680195114e-01       2.403397153171e-05 
       8.193049553677e-01       9.482663081089e-05 
       8.718988016039e-01       4.515576142134e-04 
       9.317218031082e-01       7.776830404874e-04 
       9.993660908989e-01       8.046518716625e-04 
       1.075037110174e+00       5.221704267240e-04 
       1.158653485707e+00       1.716525809452e-04 
       1.250099157308e+00       6.077015407790e-06 
       1.349432401273e+00       3.073940440749e-05 
       1.456947457397e+00       7.900379950747e-05 
       1.573135111331e+00       5.523642513210e-05 
       1.698621895592e+00       1.064865071453e-05 
       1.834127512934e+00       9.508103934558e-07 
       1.980444934528e+00       8.132521324902e-06 
       2.138435191726e+00       5.051479039043e-06 
       2.309029199186e+00       1.495540762878e-07 
       2.493232377687e+00       6.627701925643e-07 
       2.692130395285e+00       6.713786173042e-07 
       2.906895534573e+00       1.835978831118e-08 
       3.138793597714e+00       4.225814523151e-08 
       3.389191366484e+00       3.996695556212e-08 
       3.659564657905e+00       2.255274295294e-08 
       3.951507022538e+00       1.130404748410e-08 
       4.266739136701e+00       3.098780846082e-09 
       4.607118943941e+00       1.279607044461e-13 
       4.974652605557e+00       3.832276148011e-09 
       5.371506324689e+00       7.503468559771e-10 
       5.800019113685e+00       3.460876700064e-10 
       6.262716579983e+00       1.600323204187e-10 
       6.762325811764e+00       2.236020055453e-13 
       7.301791451110e+00       3.751089864577e-11 
       7.884293049406e+00       1.806169345990e-13 
       8.513263807261e+00       3.217614160989e-11 
       9.192410809424e+00       2.329129803121e-11 
       9.925736873929e+00       6.654992580522e-12 
       1.071756414427e+01       2.448094494362e-11 
       1.157255956364e+01       1.427885412952e-12 
       1.249576238137e+01       4.925217191094e-11 
       1.349261385375e+01       5.739729838858e-13 
       1.456898931416e+01       6.823138646777e-12 
       1.573123280165e+01       8.115968075248e-12 
       1.698619445202e+01       3.654174680684e-13 
       1.834127087176e+01       4.181124609542e-11 
       1.980444873285e+01       4.212574313673e-12 
       2.138435184532e+01       2.433902431254e-10 
       2.309029198506e+01       2.301873633762e-11 
       2.493232377636e+01       4.825119953064e-12 
       2.692130395282e+01       1.956386538427e-12 
       2.906895534573e+01       6.699512724214e-15 
       3.138793597714e+01       2.576906558165e-14 
       3.389191366484e+01       2.723692229654e-12 
       3.659564657905e+01       7.365064087566e-13 
       3.951507022538e+01       1.791454712492e-12 
       4.266739136701e+01       4.643977656609e-12 
       4.607118943941e+01       2.674125132183e-13 
       4.974652605557e+01       1.516617394391e-12 
       5.371506324689e+01       3.642981606326e-12 
       5.800019113685e+01       1.663075965831e-13 
       6.262716579983e+01       9.911817571246e-14 
       6.762325811764e+01       5.387333157010e-13 
       7.301791451110e+01       1.013768714697e-13 
       7.884293049406e+01       8.699097055839e-13 
       8.513263807261e+01       4.874271313264e-13 
       9.192410809424e+01       8.638600321177e-13 
       9.925736873929e+01       1.177970011001e-15 
       1.071756414427e+02       5.621556676823e-14 
       1.157255956364e+02       2.701194588860e-13 
       1.249576238137e+02       8.640793023923e-15 
       1.349261385375e+02       1.065266413144e-14 
