# Matter power spectrum P(k) at redshift z=99
# for k=1.04775e-05 to 134.926 h/Mpc,
# number of wavenumbers equal to 255
#    1:k (h/Mpc)              2:P (Mpc/h)^3        
       1.047750691338e-05       7.261927096359e-03 
       1.131335172818e-05       7.820332151912e-03 
       1.221587619877e-05       8.421675383576e-03 
       1.319039970550e-05       9.069257739345e-03 
       1.424266598317e-05       9.766636452570e-03 
       1.537887697396e-05       1.051763973797e-02 
       1.660572938097e-05       1.132639250919e-02 
       1.793045413791e-05       1.219733201689e-02 
       1.936085902737e-05       1.313524187397e-02 
       2.090537469909e-05       1.414527085187e-02 
       2.257310435923e-05       1.523296544718e-02 
       2.437387742372e-05       1.640429654885e-02 
       2.631830745176e-05       1.766569603549e-02 
       2.841785470091e-05       1.902408711446e-02 
       3.068489367268e-05       2.048692967750e-02 
       3.313278604643e-05       2.206225467878e-02 
       3.577595943165e-05       2.375870884207e-02 
       3.862999240274e-05       2.558560670205e-02 
       4.171170631739e-05       2.755297672920e-02 
       4.503926445983e-05       2.967161933857e-02 
       4.863227909323e-05       3.195316456134e-02 
       5.251192705226e-05       3.441013466650e-02 
       5.670107455699e-05       3.705601742258e-02 
       6.122441198393e-05       3.990533413434e-02 
       6.610859938837e-05       4.297372243175e-02 
       7.138242363583e-05       4.627802055543e-02 
       7.707696806873e-05       4.983636160634e-02 
       8.322579570814e-05       5.366826787735e-02 
       8.986514707061e-05       5.779476320597e-02 
       9.703415376577e-05       6.223848222765e-02 
       1.047750691338e-04       6.702379826021e-02 
       1.131335172818e-04       7.217695032156e-02 
       1.221587619877e-04       7.772619031520e-02 
       1.319039970550e-04       8.370193381287e-02 
       1.424266598317e-04       9.013692508009e-02 
       1.537887697396e-04       9.706641131843e-02 
       1.660572938097e-04       1.045283343266e-01 
       1.793045413791e-04       1.125635329353e-01 
       1.936085902737e-04       1.212159592489e-01 
       2.090537469909e-04       1.305329107629e-01 
       2.257310435923e-04       1.405652819568e-01 
       2.437387742372e-04       1.513678275299e-01 
       2.631830745176e-04       1.629994475373e-01 
       2.841785470091e-04       1.755234890736e-01 
       3.068489367268e-04       1.890080645575e-01 
       3.313278604643e-04       2.035263977727e-01 
       3.577595943165e-04       2.191571778360e-01 
       3.862999240274e-04       2.359849423597e-01 
       4.171170631739e-04       2.541004713362e-01 
       4.503926445983e-04       2.736012061541e-01 
       4.863227909323e-04       2.945916775049e-01 
       5.251192705226e-04       3.171839508293e-01 
       5.670107455699e-04       3.414980769560e-01 
       6.122441198393e-04       3.676625416775e-01 
       6.610859938837e-04       3.958147273360e-01 
       7.138242363583e-04       4.261013332578e-01 
       7.707696806873e-04       4.586787881378e-01 
       8.322579570814e-04       4.937136113359e-01 
       8.986514707061e-04       5.313826962616e-01 
       9.703415376577e-04       5.718735177336e-01 
       1.047750691338e-03       6.153841926761e-01 
       1.131335172818e-03       6.621233623595e-01 
       1.221587619877e-03       7.123098744063e-01 
       1.319039970550e-03       7.661721264105e-01 
       1.424266598317e-03       8.239547181462e-01 
       1.537887697396e-03       8.859012282742e-01 
       1.660572938097e-03       9.522589495355e-01 
       1.793045413791e-03       1.023280284654e+00 
       1.936085902737e-03       1.099216541987e+00 
       2.090537469909e-03       1.180313284843e+00 
       2.257310435923e-03       1.266804486519e+00 
       2.437387742372e-03       1.358905328048e+00 
       2.631830745176e-03       1.456803285373e+00 
       2.841785470091e-03       1.560647662251e+00 
       3.068489367268e-03       1.670537009524e+00 
       3.313278604643e-03       1.786505038246e+00 
       3.577595943165e-03       1.908504408293e+00 
       3.862999240274e-03       2.036389466386e+00 
       4.171170631739e-03       2.169898249738e+00 
       4.503926445983e-03       2.308634488034e+00 
       4.863227909323e-03       2.452050669747e+00 
       5.251192705226e-03       2.599434674736e+00 
       5.670107455699e-03       2.749901118362e+00 
       6.122441198393e-03       2.902390048105e+00 
       6.610859938837e-03       3.055671256978e+00 
       7.138242363583e-03       3.208360106752e+00 
       7.707696806873e-03       3.358926631277e+00 
       8.322579570814e-03       3.505726864892e+00 
       8.986514707061e-03       3.647012406913e+00 
       9.703415376577e-03       3.780926141154e+00 
       1.047750691338e-02       3.905492833708e+00 
       1.131335172818e-02       4.018589768456e+00 
       1.221587619877e-02       4.117902818447e+00 
       1.319039970550e-02       4.200917614773e+00 
       1.424266598317e-02       4.264943635202e+00 
       1.537887697392e-02       4.307219544440e+00 
       1.660572938023e-02       4.325062307326e+00 
       1.793045412706e-02       4.316060211970e+00 
       1.936085890181e-02       4.278228717464e+00 
       2.090537352463e-02       4.210204218065e+00 
       2.257309535333e-02       4.111418446711e+00 
       2.437382002918e-02       3.982420581614e+00 
       2.631799944462e-02       3.825168269843e+00 
       2.841644545389e-02       3.643281766674e+00 
       3.067933355377e-02       3.442198146797e+00 
       3.311368470740e-02       3.229240949007e+00 
       3.571840443502e-02       3.013515604143e+00 
       3.847720348444e-02       2.805283119150e+00 
       4.135335538431e-02       2.614409744102e+00 
       4.429361667738e-02       2.448131154496e+00 
       4.724366439141e-02       2.309239511083e+00 
       5.016480835311e-02       2.196113946083e+00 
       5.303989620246e-02       2.104368496047e+00 
       5.586870669566e-02       2.028461113726e+00 
       5.866042680613e-02       1.963153713750e+00 
       6.142798932958e-02       1.903777991818e+00 
       6.418496440164e-02       1.846477371169e+00 
       6.694418833788e-02       1.788195516842e+00 
       6.971731106057e-02       1.726713596979e+00 
       7.251476155766e-02       1.660652186199e+00 
       7.534587671527e-02       1.589467531911e+00 
       7.821907666265e-02       1.513434141520e+00 
       8.114203772912e-02       1.433566224249e+00 
       8.412184535029e-02       1.351489621727e+00 
       8.716512279304e-02       1.269271002619e+00 
       9.027813695930e-02       1.189190347726e+00 
       9.346688431697e-02       1.113498104870e+00 
       9.673716028276e-02       1.044171443173e+00 
       1.000946150830e-01       9.827028724939e-01 
       1.035447986537e-01       9.299363940039e-01 
       1.070931966762e-01       8.859551382321e-01 
       1.107452594425e-01       8.500675743401e-01 
       1.145064249153e-01       8.207996442495e-01 
       1.183821370918e-01       7.960203747192e-01 
       1.223778605862e-01       7.731415920714e-01 
       1.264990921987e-01       7.494478809780e-01 
       1.307513701367e-01       7.225531067086e-01 
       1.351402814784e-01       6.909049845372e-01 
       1.396714684203e-01       6.541776448062e-01 
       1.443506338194e-01       6.134229813240e-01 
       1.491835465229e-01       5.708635387356e-01 
       1.541760469708e-01       5.293587426988e-01 
       1.593340535561e-01       4.917051732273e-01 
       1.646635702297e-01       4.599141415247e-01 
       1.701706958456e-01       4.347219157249e-01 
       1.758616357459e-01       4.154016050706e-01 
       1.817427160982e-01       3.999297785630e-01 
       1.878204015065e-01       3.856791007694e-01 
       1.941013164283e-01       3.698071677761e-01 
       2.005922709503e-01       3.505443710013e-01 
       2.073002914972e-01       3.280391460799e-01 
       2.142326570816e-01       3.042059505967e-01 
       2.213969417533e-01       2.816039833756e-01 
       2.288010639706e-01       2.622490540010e-01 
       2.364533437147e-01       2.469537826953e-01 
       2.443625682930e-01       2.350047243309e-01 
       2.525380679504e-01       2.244118776402e-01 
       2.609898026346e-01       2.130873665014e-01 
       2.697284615565e-01       2.000935102746e-01 
       2.787655775689e-01       1.860107321366e-01 
       2.881136588829e-01       1.725078581837e-01 
       2.977863412677e-01       1.610564413874e-01 
       3.077985646929e-01       1.517511235088e-01 
       3.181667794071e-01       1.435495356518e-01 
       3.289091877812e-01       1.351715889437e-01 
       3.400460299658e-01       1.261539344210e-01 
       3.515999236474e-01       1.171912908710e-01 
       3.635962711085e-01       1.091661601603e-01 
       3.760637506334e-01       1.022984130288e-01 
       3.890349143879e-01       9.592639395305e-02 
       4.025469216825e-01       8.949628430219e-02 
       4.166424456376e-01       8.310018935066e-02 
       4.313708035863e-01       7.720362949132e-02 
       4.467893782977e-01       7.188851517599e-02 
       4.629654199664e-01       6.685670439979e-02 
       4.799783501994e-01       6.190496080255e-02 
       4.979227319373e-01       5.720944528384e-02 
       5.169121270864e-01       5.288978186334e-02 
       5.370841404489e-01       4.875649268893e-02 
       5.586070464571e-01       4.477736371065e-02 
       5.816885094930e-01       4.103818279829e-02 
       6.065870144995e-01       3.747590028649e-02 
       6.336266468475e-01       3.406204684749e-02 
       6.632156059511e-01       3.082007192576e-02 
       6.958678639263e-01       2.771351632845e-02 
       7.322247985589e-01       2.475198763888e-02 
       7.730680195114e-01       2.192414886797e-02 
       8.193049553677e-01       1.924032500723e-02 
       8.718988016039e-01       1.671307244731e-02 
       9.317218031082e-01       1.436758120185e-02 
       9.993660908989e-01       1.223359261281e-02 
       1.075037110174e+00       1.033505263084e-02 
       1.158653485707e+00       8.681651496353e-03 
       1.250099157308e+00       7.266021639478e-03 
       1.349432401273e+00       6.066361443579e-03 
       1.456947457397e+00       5.056108792679e-03 
       1.573135111331e+00       4.208127600136e-03 
       1.698621895592e+00       3.497812692096e-03 
       1.834127512934e+00       2.903671463956e-03 
       1.980444934528e+00       2.407265618782e-03 
       2.138435191726e+00       1.993017926089e-03 
       2.309029199186e+00       1.647672285043e-03 
       2.493232377687e+00       1.360088453730e-03 
       2.692130395285e+00       1.120804083353e-03 
       2.906895534573e+00       9.219119195072e-04 
       3.138793597714e+00       7.567300690254e-04 
       3.389191366484e+00       6.196627728101e-04 
       3.659564657905e+00       5.060230669403e-04 
       3.951507022538e+00       4.118864674586e-04 
       4.266739136701e+00       3.339804234926e-04 
       4.607118943941e+00       2.695647343347e-04 
       4.974652605557e+00       2.163654977499e-04 
       5.371506324689e+00       1.725082779948e-04 
       5.800019113685e+00       1.364096097850e-04 
       6.262716579983e+00       1.067807596159e-04 
       6.762325811764e+00       8.255051127332e-05 
       7.301791451110e+00       6.283654128258e-05 
       7.884293049406e+00       4.691142748611e-05 
       8.513263807261e+00       3.417661751595e-05 
       9.192410809424e+00       2.413184682300e-05 
       9.925736873929e+00       1.636103369004e-05 
       1.071756414427e+01       1.050892895372e-05 
       1.157255956364e+01       6.266163559959e-06 
       1.249576238137e+01       3.352565250771e-06 
       1.349261385375e+01       1.509186303561e-06 
       1.456898931416e+01       4.905358570788e-07 
       1.573123280165e+01       6.364716316081e-08 
       1.698619445202e+01       1.218497384285e-08 
       1.834127087176e+01       1.465563725653e-07 
       1.980444873285e+01       3.172819601899e-07 
       2.138435184532e+01       4.261590955134e-07 
       2.309029198506e+01       4.330036920460e-07 
       2.493232377636e+01       3.505974495032e-07 
       2.692130395282e+01       2.245015335533e-07 
       2.906895534573e+01       1.073147423602e-07 
       3.138793597714e+01       3.253461023958e-08 
       3.389191366484e+01       3.302233763261e-09 
       3.659564657905e+01       5.222819762700e-10 
       3.951507022538e+01       2.929755242439e-09 
       4.266739136701e+01       1.886536236629e-09 
       4.607118943941e+01       1.033403883383e-10 
       4.974652605557e+01       4.920549878910e-10 
       5.371506324689e+01       1.294868675676e-09 
       5.800019113685e+01       7.809320284791e-10 
       6.262716579983e+01       7.732802621415e-11 
       6.762325811764e+01       3.819174449444e-11 
       7.301791451110e+01       4.979713036580e-11 
       7.884293049406e+01       4.342730689212e-15 
       8.513263807261e+01       1.702544757814e-11 
       9.192410809424e+01       4.226739099543e-12 
       9.925736873929e+01       2.246131047647e-12 
       1.071756414427e+02       4.553995553199e-13 
       1.157255956364e+02       4.968973895611e-13 
       1.249576238137e+02       1.614706483349e-14 
       1.349261385375e+02       7.366113908461e-14 
