# Matter power spectrum P(k) at redshift z=99
# for k=1.04775e-05 to 67.6233 h/Mpc,
# number of wavenumbers equal to 246
#    1:k (h/Mpc)              2:P (Mpc/h)^3        
       1.047750691338e-05       7.261927673119e-03 
       1.131335172818e-05       7.820331745737e-03 
       1.221587619877e-05       8.421675986488e-03 
       1.319039970550e-05       9.069258192194e-03 
       1.424266598317e-05       9.766638404421e-03 
       1.537887697396e-05       1.051764069682e-02 
       1.660572938097e-05       1.132639105520e-02 
       1.793045413791e-05       1.219733231416e-02 
       1.936085902737e-05       1.313524224380e-02 
       2.090537469909e-05       1.414527121893e-02 
       2.257310435923e-05       1.523296272192e-02 
       2.437387742372e-05       1.640429444530e-02 
       2.631830745176e-05       1.766569582177e-02 
       2.841785470091e-05       1.902408601793e-02 
       3.068489367268e-05       2.048692970591e-02 
       3.313278604643e-05       2.206225513594e-02 
       3.577595943165e-05       2.375870704909e-02 
       3.862999240274e-05       2.558560727479e-02 
       4.171170631739e-05       2.755297763344e-02 
       4.503926445983e-05       2.967161927316e-02 
       4.863227909323e-05       3.195316450832e-02 
       5.251192705226e-05       3.441013519284e-02 
       5.670107455699e-05       3.705601722524e-02 
       6.122441198393e-05       3.990533413562e-02 
       6.610859938837e-05       4.297372168203e-02 
       7.138242363583e-05       4.627802141688e-02 
       7.707696806873e-05       4.983636194159e-02 
       8.322579570814e-05       5.366826847231e-02 
       8.986514707061e-05       5.779476394569e-02 
       9.703415376577e-05       6.223848243885e-02 
       1.047750691338e-04       6.702379865640e-02 
       1.131335172818e-04       7.217695153381e-02 
       1.221587619877e-04       7.772619073571e-02 
       1.319039970550e-04       8.370193432377e-02 
       1.424266598317e-04       9.013692507549e-02 
       1.537887697396e-04       9.706641242570e-02 
       1.660572938097e-04       1.045283354271e-01 
       1.793045413791e-04       1.125635349068e-01 
       1.936085902737e-04       1.212159614968e-01 
       2.090537469909e-04       1.305329132714e-01 
       2.257310435923e-04       1.405652846215e-01 
       2.437387742372e-04       1.513678302540e-01 
       2.631830745176e-04       1.629994504871e-01 
       2.841785470091e-04       1.755234921224e-01 
       3.068489367268e-04       1.890080670413e-01 
       3.313278604643e-04       2.035264002435e-01 
       3.577595943165e-04       2.191571803681e-01 
       3.862999240274e-04       2.359849437593e-01 
       4.171170631739e-04       2.541004741539e-01 
       4.503926445983e-04       2.736012080277e-01 
       4.863227909323e-04       2.945916790965e-01 
       5.251192705226e-04       3.171839525183e-01 
       5.670107455699e-04       3.414980764002e-01 
       6.122441198393e-04       3.676625413100e-01 
       6.610859938837e-04       3.958147252303e-01 
       7.138242363583e-04       4.261013284918e-01 
       7.707696806873e-04       4.586787792354e-01 
       8.322579570814e-04       4.937136001344e-01 
       8.986514707061e-04       5.313826801401e-01 
       9.703415376577e-04       5.718734972158e-01 
       1.047750691338e-03       6.153841629505e-01 
       1.131335172818e-03       6.621233239465e-01 
       1.221587619877e-03       7.123098220421e-01 
       1.319039970550e-03       7.661720584593e-01 
       1.424266598317e-03       8.239546297730e-01 
       1.537887697396e-03       8.859011173466e-01 
       1.660572938097e-03       9.522588006423e-01 
       1.793045413791e-03       1.023280099819e+00 
       1.936085902737e-03       1.099216304579e+00 
       2.090537469909e-03       1.180312990453e+00 
       2.257310435923e-03       1.266804115851e+00 
       2.437387742372e-03       1.358904853407e+00 
       2.631830745176e-03       1.456802683156e+00 
       2.841785470091e-03       1.560646890522e+00 
       3.068489367268e-03       1.670536062499e+00 
       3.313278604643e-03       1.786503852162e+00 
       3.577595943165e-03       1.908502930788e+00 
       3.862999240274e-03       2.036387730709e+00 
       4.171170631739e-03       2.169896178610e+00 
       4.503926445983e-03       2.308631878994e+00 
       4.863227909323e-03       2.452047290962e+00 
       5.251192705226e-03       2.599430628088e+00 
       5.670107455699e-03       2.749896931841e+00 
       6.122441198393e-03       2.902386513385e+00 
       6.610859938837e-03       3.055668701667e+00 
       7.138242363583e-03       3.208356461545e+00 
       7.707696806873e-03       3.358923892875e+00 
       8.322579570814e-03       3.505724912888e+00 
       8.986514707061e-03       3.647009755886e+00 
       9.703415376577e-03       3.780923304291e+00 
       1.047750691338e-02       3.905489177644e+00 
       1.131335172818e-02       4.018587955741e+00 
       1.221587619877e-02       4.117901586071e+00 
       1.319039970550e-02       4.200915287675e+00 
       1.424266598317e-02       4.264942161221e+00 
       1.537887697392e-02       4.307217648059e+00 
       1.660572938023e-02       4.325060883722e+00 
       1.793045412706e-02       4.316057630963e+00 
       1.936085890181e-02       4.278231346480e+00 
       2.090537352463e-02       4.210204921169e+00 
       2.257309535333e-02       4.111414010074e+00 
       2.437382002918e-02       3.982418879524e+00 
       2.631799944462e-02       3.825166285850e+00 
       2.841644545389e-02       3.643275894084e+00 
       3.067933355377e-02       3.442198185785e+00 
       3.311368470740e-02       3.229236842179e+00 
       3.571840443502e-02       3.013522478831e+00 
       3.847720348444e-02       2.805285069212e+00 
       4.135335538431e-02       2.614409081549e+00 
       4.429361667738e-02       2.448134764290e+00 
       4.724366439141e-02       2.309233833872e+00 
       5.016480835311e-02       2.196107224656e+00 
       5.303989620246e-02       2.104367028572e+00 
       5.586870669566e-02       2.028462079241e+00 
       5.866042680613e-02       1.963155927522e+00 
       6.142798932958e-02       1.903782714668e+00 
       6.418496440164e-02       1.846476880932e+00 
       6.694418833788e-02       1.788196001362e+00 
       6.971731106057e-02       1.726715099607e+00 
       7.251476155766e-02       1.660651574605e+00 
       7.534587671527e-02       1.589473620011e+00 
       7.821907666265e-02       1.513441416307e+00 
       8.114203772912e-02       1.433570148715e+00 
       8.412184535029e-02       1.351494050398e+00 
       8.716512279304e-02       1.269273743257e+00 
       9.027813695930e-02       1.189194415838e+00 
       9.346688431697e-02       1.113505287010e+00 
       9.673716028276e-02       1.044174640719e+00 
       1.000946150830e-01       9.827047847702e-01 
       1.035447986537e-01       9.299417392383e-01 
       1.070931966762e-01       8.859592219408e-01 
       1.107452594425e-01       8.500710918617e-01 
       1.145064249153e-01       8.208036212492e-01 
       1.183821370918e-01       7.960265512931e-01 
       1.223778605862e-01       7.731453685666e-01 
       1.264990921987e-01       7.494516943706e-01 
       1.307513701367e-01       7.225577820888e-01 
       1.351402814784e-01       6.909085200669e-01 
       1.396714684203e-01       6.541821322755e-01 
       1.443506338194e-01       6.134269105576e-01 
       1.491835465229e-01       5.708673089702e-01 
       1.541760469708e-01       5.293641884073e-01 
       1.593340535561e-01       4.917109796069e-01 
       1.646635702297e-01       4.599204830659e-01 
       1.701706958456e-01       4.347293801756e-01 
       1.758616357459e-01       4.154086176943e-01 
       1.817427160982e-01       3.999364210957e-01 
       1.878204015065e-01       3.856832961041e-01 
       1.941013164283e-01       3.698096456854e-01 
       2.005922709503e-01       3.505459811788e-01 
       2.073002914972e-01       3.280430702487e-01 
       2.142326570816e-01       3.042138122709e-01 
       2.213969417533e-01       2.816120093363e-01 
       2.288010639706e-01       2.622576192471e-01 
       2.364533437147e-01       2.469620964514e-01 
       2.443625682930e-01       2.350130987142e-01 
       2.525380679504e-01       2.244175935256e-01 
       2.609898026346e-01       2.130936189488e-01 
       2.697284615565e-01       2.001015945963e-01 
       2.787655775689e-01       1.860196859095e-01 
       2.881136588829e-01       1.725172637393e-01 
       2.977863412677e-01       1.610665508269e-01 
       3.077985646929e-01       1.517610078346e-01 
       3.181667794071e-01       1.435593743953e-01 
       3.289091877812e-01       1.351813869445e-01 
       3.400460299658e-01       1.261645140141e-01 
       3.515999236474e-01       1.172023044462e-01 
       3.635962711085e-01       1.091769307064e-01 
       3.760637506334e-01       1.023095340342e-01 
       3.890349143879e-01       9.593768002111e-02 
       4.025469216825e-01       8.950783136326e-02 
       4.166424456376e-01       8.311163343557e-02 
       4.313708035863e-01       7.721549090045e-02 
       4.467893782977e-01       7.190062960760e-02 
       4.629654199664e-01       6.686915810358e-02 
       4.799783501994e-01       6.191752664266e-02 
       4.979227319373e-01       5.722232539894e-02 
       5.169121270864e-01       5.290279703116e-02 
       5.370841404489e-01       4.876984933651e-02 
       5.586070464571e-01       4.479088024124e-02 
       5.816885094930e-01       4.105204707036e-02 
       6.065870144995e-01       3.749003130283e-02 
       6.336266468475e-01       3.407641536391e-02 
       6.632156059511e-01       3.083472567686e-02 
       6.958678639263e-01       2.772833322645e-02 
       7.322247985589e-01       2.476709581720e-02 
       7.730680195114e-01       2.193955775439e-02 
       8.193049553677e-01       1.925617029870e-02 
       8.718988016039e-01       1.672930236617e-02 
       9.317218031082e-01       1.438422059837e-02 
       9.993660908989e-01       1.225068136816e-02 
       1.075037110174e+00       1.035262443689e-02 
       1.158653485707e+00       8.699721217291e-03 
       1.250099157308e+00       7.284584846413e-03 
       1.349432401273e+00       6.085485442432e-03 
       1.456947457397e+00       5.075730143123e-03 
       1.573135111331e+00       4.228309964703e-03 
       1.698621895592e+00       3.518554581138e-03 
       1.834127512934e+00       2.924985547081e-03 
       1.980444934528e+00       2.429181694127e-03 
       2.138435191726e+00       2.015511890341e-03 
       2.309029199186e+00       1.670776056982e-03 
       2.493232377687e+00       1.383794107860e-03 
       2.692130395285e+00       1.145129676767e-03 
       2.906895534573e+00       9.468586259309e-04 
       3.138793597714e+00       7.822866266354e-04 
       3.389191366484e+00       6.458221035525e-04 
       3.659564657905e+00       5.327733577282e-04 
       3.951507022538e+00       4.391848689048e-04 
       4.266739136701e+00       3.617903193684e-04 
       4.607118943941e+00       2.978286142470e-04 
       4.974652605557e+00       2.450138149390e-04 
       5.371506324689e+00       2.014370401649e-04 
       5.800019113685e+00       1.655069518570e-04 
       6.262716579983e+00       1.359043162324e-04 
       6.762325811764e+00       1.115302051880e-04 
       7.301791451110e+00       9.147576777129e-05 
       7.884293049406e+00       7.498608052853e-05 
       8.513263807261e+00       6.143597748204e-05 
       9.192410809424e+00       5.030827117163e-05 
       9.925736873929e+00       4.117502645679e-05 
       1.071756414427e+01       3.368310439429e-05 
       1.157255956364e+01       2.754127284622e-05 
       1.249576238137e+01       2.250869740393e-05 
       1.349261385375e+01       1.838735837989e-05 
       1.456898931416e+01       1.501400020285e-05 
       1.573123280165e+01       1.225415024440e-05 
       1.698619445202e+01       9.997394926875e-06 
       1.834127087176e+01       8.152923889116e-06 
       1.980444873285e+01       6.646023874082e-06 
       2.138435184532e+01       5.415570090093e-06 
       2.309029198506e+01       4.411179247653e-06 
       2.493232377636e+01       3.591713746650e-06 
       2.692130395282e+01       2.923389735740e-06 
       2.906895534573e+01       2.378572619617e-06 
       3.138793597714e+01       1.934599092314e-06 
       3.389191366484e+01       1.572955912103e-06 
       3.659564657905e+01       1.278457228834e-06 
       3.951507022538e+01       1.038757744836e-06 
       4.266739136701e+01       8.437030677828e-07 
       4.607118943941e+01       6.850657850056e-07 
       4.974652605557e+01       5.560575828975e-07 
       5.371506324689e+01       4.511926077283e-07 
       5.800019113685e+01       3.659853900173e-07 
       6.262716579983e+01       2.967690786212e-07 
       6.762325811764e+01       2.405618547195e-07 
