# Matter power spectrum P(k) at redshift z=99
# for k=1.04775e-05 to 67.6233 h/Mpc,
# number of wavenumbers equal to 246
#    1:k (h/Mpc)              2:P (Mpc/h)^3        
       1.047750691338e-05       7.261927673119e-03 
       1.131335172818e-05       7.820331745737e-03 
       1.221587619877e-05       8.421675986488e-03 
       1.319039970550e-05       9.069258192194e-03 
       1.424266598317e-05       9.766638404421e-03 
       1.537887697396e-05       1.051764069682e-02 
       1.660572938097e-05       1.132639105520e-02 
       1.793045413791e-05       1.219733231416e-02 
       1.936085902737e-05       1.313524224380e-02 
       2.090537469909e-05       1.414527121893e-02 
       2.257310435923e-05       1.523296272192e-02 
       2.437387742372e-05       1.640429444530e-02 
       2.631830745176e-05       1.766569582177e-02 
       2.841785470091e-05       1.902408601793e-02 
       3.068489367268e-05       2.048692970591e-02 
       3.313278604643e-05       2.206225513594e-02 
       3.577595943165e-05       2.375870704909e-02 
       3.862999240274e-05       2.558560727479e-02 
       4.171170631739e-05       2.755297763344e-02 
       4.503926445983e-05       2.967161927315e-02 
       4.863227909323e-05       3.195316450832e-02 
       5.251192705226e-05       3.441013519284e-02 
       5.670107455699e-05       3.705601722523e-02 
       6.122441198393e-05       3.990533413563e-02 
       6.610859938837e-05       4.297372168203e-02 
       7.138242363583e-05       4.627802141688e-02 
       7.707696806873e-05       4.983636194159e-02 
       8.322579570814e-05       5.366826847231e-02 
       8.986514707061e-05       5.779476394568e-02 
       9.703415376577e-05       6.223848243885e-02 
       1.047750691338e-04       6.702379865640e-02 
       1.131335172818e-04       7.217695153381e-02 
       1.221587619877e-04       7.772619073569e-02 
       1.319039970550e-04       8.370193432376e-02 
       1.424266598317e-04       9.013692507548e-02 
       1.537887697396e-04       9.706641242570e-02 
       1.660572938097e-04       1.045283354271e-01 
       1.793045413791e-04       1.125635349068e-01 
       1.936085902737e-04       1.212159614968e-01 
       2.090537469909e-04       1.305329132714e-01 
       2.257310435923e-04       1.405652846215e-01 
       2.437387742372e-04       1.513678302540e-01 
       2.631830745176e-04       1.629994504870e-01 
       2.841785470091e-04       1.755234921224e-01 
       3.068489367268e-04       1.890080670413e-01 
       3.313278604643e-04       2.035264002435e-01 
       3.577595943165e-04       2.191571803681e-01 
       3.862999240274e-04       2.359849437594e-01 
       4.171170631739e-04       2.541004741539e-01 
       4.503926445983e-04       2.736012080277e-01 
       4.863227909323e-04       2.945916790965e-01 
       5.251192705226e-04       3.171839525182e-01 
       5.670107455699e-04       3.414980764002e-01 
       6.122441198393e-04       3.676625413100e-01 
       6.610859938837e-04       3.958147252304e-01 
       7.138242363583e-04       4.261013284917e-01 
       7.707696806873e-04       4.586787792354e-01 
       8.322579570814e-04       4.937136001346e-01 
       8.986514707061e-04       5.313826801402e-01 
       9.703415376577e-04       5.718734972157e-01 
       1.047750691338e-03       6.153841629505e-01 
       1.131335172818e-03       6.621233239465e-01 
       1.221587619877e-03       7.123098220433e-01 
       1.319039970550e-03       7.661720584692e-01 
       1.424266598317e-03       8.239546297730e-01 
       1.537887697396e-03       8.859011173466e-01 
       1.660572938097e-03       9.522588006421e-01 
       1.793045413791e-03       1.023280099819e+00 
       1.936085902737e-03       1.099216304579e+00 
       2.090537469909e-03       1.180312990453e+00 
       2.257310435923e-03       1.266804115851e+00 
       2.437387742372e-03       1.358904853405e+00 
       2.631830745176e-03       1.456802683156e+00 
       2.841785470091e-03       1.560646890522e+00 
       3.068489367268e-03       1.670536062500e+00 
       3.313278604643e-03       1.786503852162e+00 
       3.577595943165e-03       1.908502930788e+00 
       3.862999240274e-03       2.036387730709e+00 
       4.171170631739e-03       2.169896177883e+00 
       4.503926445983e-03       2.308631878994e+00 
       4.863227909323e-03       2.452047290962e+00 
       5.251192705226e-03       2.599430628088e+00 
       5.670107455699e-03       2.749896931861e+00 
       6.122441198393e-03       2.902386513383e+00 
       6.610859938837e-03       3.055668710523e+00 
       7.138242363583e-03       3.208356461546e+00 
       7.707696806873e-03       3.358923893000e+00 
       8.322579570814e-03       3.505724988914e+00 
       8.986514707061e-03       3.647009936577e+00 
       9.703415376577e-03       3.780923304272e+00 
       1.047750691338e-02       3.905491537919e+00 
       1.131335172818e-02       4.018588039710e+00 
       1.221587619877e-02       4.117901586600e+00 
       1.319039970550e-02       4.200915359787e+00 
       1.424266598317e-02       4.264941419584e+00 
       1.537887697392e-02       4.307217637297e+00 
       1.660572938023e-02       4.325062113084e+00 
       1.793045412706e-02       4.316058932339e+00 
       1.936085890181e-02       4.278229349772e+00 
       2.090537352463e-02       4.210201551238e+00 
       2.257309535333e-02       4.111426783524e+00 
       2.437382002918e-02       3.982418799605e+00 
       2.631799944462e-02       3.825170091066e+00 
       2.841644545389e-02       3.643283167664e+00 
       3.067933355377e-02       3.442197801532e+00 
       3.311368470740e-02       3.229242568396e+00 
       3.571840443502e-02       3.013508844555e+00 
       3.847720348444e-02       2.805279453428e+00 
       4.135335538431e-02       2.614415957582e+00 
       4.429361667738e-02       2.448140794120e+00 
       4.724366439141e-02       2.309235145645e+00 
       5.016480835311e-02       2.196112491971e+00 
       5.303989620246e-02       2.104366060979e+00 
       5.586870669566e-02       2.028463732076e+00 
       5.866042680613e-02       1.963149570077e+00 
       6.142798932958e-02       1.903778766693e+00 
       6.418496440164e-02       1.846478312277e+00 
       6.694418833788e-02       1.788198470624e+00 
       6.971731106057e-02       1.726717880307e+00 
       7.251476155766e-02       1.660654438791e+00 
       7.534587671527e-02       1.589473852466e+00 
       7.821907666265e-02       1.513437466316e+00 
       8.114203772912e-02       1.433570402347e+00 
       8.412184535029e-02       1.351492230633e+00 
       8.716512279304e-02       1.269271650314e+00 
       9.027813695930e-02       1.189195284775e+00 
       9.346688431697e-02       1.113500130277e+00 
       9.673716028276e-02       1.044172358812e+00 
       1.000946150830e-01       9.827060555273e-01 
       1.035447986537e-01       9.299386030215e-01 
       1.070931966762e-01       8.859593683839e-01 
       1.107452594425e-01       8.500710957377e-01 
       1.145064249153e-01       8.208037938904e-01 
       1.183821370918e-01       7.960258006015e-01 
       1.223778605862e-01       7.731452528873e-01 
       1.264990921987e-01       7.494492543458e-01 
       1.307513701367e-01       7.225588707614e-01 
       1.351402814784e-01       6.909085937835e-01 
       1.396714684203e-01       6.541810382893e-01 
       1.443506338194e-01       6.134267657610e-01 
       1.491835465229e-01       5.708666500713e-01 
       1.541760469708e-01       5.293645983001e-01 
       1.593340535561e-01       4.917114893042e-01 
       1.646635702297e-01       4.599193180320e-01 
       1.701706958456e-01       4.347286207978e-01 
       1.758616357459e-01       4.154078814901e-01 
       1.817427160982e-01       3.999372630295e-01 
       1.878204015065e-01       3.856826181791e-01 
       1.941013164283e-01       3.698093211725e-01 
       2.005922709503e-01       3.505459983503e-01 
       2.073002914972e-01       3.280428099782e-01 
       2.142326570816e-01       3.042142110591e-01 
       2.213969417533e-01       2.816130008285e-01 
       2.288010639706e-01       2.622574591390e-01 
       2.364533437147e-01       2.469618462920e-01 
       2.443625682930e-01       2.350133036070e-01 
       2.525380679504e-01       2.244181159343e-01 
       2.609898026346e-01       2.130936438108e-01 
       2.697284615565e-01       2.001018807168e-01 
       2.787655775689e-01       1.860205992384e-01 
       2.881136588829e-01       1.725168647535e-01 
       2.977863412677e-01       1.610662497713e-01 
       3.077985646929e-01       1.517611916046e-01 
       3.181667794071e-01       1.435593401335e-01 
       3.289091877812e-01       1.351817020074e-01 
       3.400460299658e-01       1.261644932883e-01 
       3.515999236474e-01       1.172021355457e-01 
       3.635962711085e-01       1.091766914376e-01 
       3.760637506334e-01       1.023093224617e-01 
       3.890349143879e-01       9.593773196889e-02 
       4.025469216825e-01       8.950793187127e-02 
       4.166424456376e-01       8.311170210402e-02 
       4.313708035863e-01       7.721546677631e-02 
       4.467893782977e-01       7.190077131150e-02 
       4.629654199664e-01       6.686891360982e-02 
       4.799783501994e-01       6.191741419528e-02 
       4.979227319373e-01       5.722224050709e-02 
       5.169121270864e-01       5.290306673612e-02 
       5.370841404489e-01       4.876960976605e-02 
       5.586070464571e-01       4.479081994552e-02 
       5.816885094930e-01       4.105200174810e-02 
       6.065870144995e-01       3.748998438589e-02 
       6.336266468475e-01       3.407640496541e-02 
       6.632156059511e-01       3.083462665941e-02 
       6.958678639263e-01       2.772831398921e-02 
       7.322247985589e-01       2.476698221109e-02 
       7.730680195114e-01       2.193961687347e-02 
       8.193049553677e-01       1.925608828811e-02 
       8.718988016039e-01       1.672925659812e-02 
       9.317218031082e-01       1.438422995998e-02 
       9.993660908989e-01       1.225067640663e-02 
       1.075037110174e+00       1.035259307614e-02 
       1.158653485707e+00       8.699709689684e-03 
       1.250099157308e+00       7.284581278026e-03 
       1.349432401273e+00       6.085498904563e-03 
       1.456947457397e+00       5.075725926832e-03 
       1.573135111331e+00       4.228314427436e-03 
       1.698621895592e+00       3.518551097014e-03 
       1.834127512934e+00       2.924981658097e-03 
       1.980444934528e+00       2.429169139177e-03 
       2.138435191726e+00       2.015518013580e-03 
       2.309029199186e+00       1.670784073706e-03 
       2.493232377687e+00       1.383797327280e-03 
       2.692130395285e+00       1.145129307997e-03 
       2.906895534573e+00       9.468586981891e-04 
       3.138793597714e+00       7.822954537900e-04 
       3.389191366484e+00       6.458266929089e-04 
       3.659564657905e+00       5.327733754655e-04 
       3.951507022538e+00       4.391864183454e-04 
       4.266739136701e+00       3.617897132584e-04 
       4.607118943941e+00       2.978282891833e-04 
       4.974652605557e+00       2.450129179380e-04 
       5.371506324689e+00       2.014365445704e-04 
       5.800019113685e+00       1.655065574023e-04 
       6.262716579983e+00       1.359038822887e-04 
       6.762325811764e+00       1.115306220177e-04 
       7.301791451110e+00       9.147559271191e-05 
       7.884293049406e+00       7.498690200602e-05 
       8.513263807261e+00       6.143635580745e-05 
       9.192410809424e+00       5.030829459654e-05 
       9.925736873929e+00       4.117522559093e-05 
       1.071756414427e+01       3.368317740518e-05 
       1.157255956364e+01       2.754147456273e-05 
       1.249576238137e+01       2.250899734506e-05 
       1.349261385375e+01       1.838750026672e-05 
       1.456898931416e+01       1.501418909922e-05 
       1.573123280165e+01       1.225436378024e-05 
       1.698619445202e+01       9.997640887035e-06 
       1.834127087176e+01       8.153114631653e-06 
       1.980444873285e+01       6.646255709611e-06 
       2.138435184532e+01       5.415706919056e-06 
       2.309029198506e+01       4.411304903171e-06 
       2.493232377636e+01       3.591875448819e-06 
       2.692130395282e+01       2.923568143337e-06 
       2.906895534573e+01       2.378734508708e-06 
       3.138793597714e+01       1.934764773316e-06 
       3.389191366484e+01       1.573108415032e-06 
       3.659564657905e+01       1.278625338720e-06 
       3.951507022538e+01       1.038910617678e-06 
       4.266739136701e+01       8.438555354963e-07 
       4.607118943941e+01       6.852086270746e-07 
       4.974652605557e+01       5.562028633860e-07 
       5.371506324689e+01       4.513384883417e-07 
       5.800019113685e+01       3.661304099882e-07 
       6.262716579983e+01       2.969131187303e-07 
       6.762325811764e+01       2.407010044327e-07 
