# Matter power spectrum P(k) at redshift z=0
# for k=1.04775e-05 to 134.926 h/Mpc,
# number of wavenumbers equal to 255
#    1:k (h/Mpc)              2:P (Mpc/h)^3        
       1.047750691338e-05       5.020963906804e+01 
       1.131335172818e-05       5.407048937147e+01 
       1.221587619877e-05       5.822820724029e+01 
       1.319039970550e-05       6.270562047244e+01 
       1.424266598317e-05       6.752731476098e+01 
       1.537887697396e-05       7.271975715395e+01 
       1.660572938097e-05       7.831147101246e+01 
       1.793045413791e-05       8.433312302135e+01 
       1.936085902737e-05       9.081780130646e+01 
       2.090537469909e-05       9.780107448783e+01 
       2.257310435923e-05       1.053212938596e+02 
       2.437387742372e-05       1.134197268469e+02 
       2.631830745176e-05       1.221408285622e+02 
       2.841785470091e-05       1.315324590474e+02 
       3.068489367268e-05       1.416461671361e+02 
       3.313278604643e-05       1.525374478882e+02 
       3.577595943165e-05       1.642660517275e+02 
       3.862999240274e-05       1.768963429383e+02 
       4.171170631739e-05       1.904975997821e+02 
       4.503926445983e-05       2.051444243234e+02 
       4.863227909323e-05       2.209171412050e+02 
       5.251192705226e-05       2.379022266145e+02 
       5.670107455699e-05       2.561927841236e+02 
       6.122441198393e-05       2.758890479393e+02 
       6.610859938837e-05       2.970989213977e+02 
       7.138242363583e-05       3.199385559930e+02 
       7.707696806873e-05       3.445329727006e+02 
       8.322579570814e-05       3.710167324011e+02 
       8.986514707061e-05       3.995346444120e+02 
       9.703415376577e-05       4.302425389348e+02 
       1.047750691338e-04       4.633080773457e+02 
       1.131335172818e-04       4.989116274002e+02 
       1.221587619877e-04       5.372471938793e+02 
       1.319039970550e-04       5.785234116888e+02 
       1.424266598317e-04       6.229645933125e+02 
       1.537887697396e-04       6.708118487510e+02 
       1.660572938097e-04       7.223242657763e+02 
       1.793045413791e-04       7.777801571274e+02 
       1.936085902737e-04       8.374783638360e+02 
       2.090537469909e-04       9.017396276825e+02 
       2.257310435923e-04       9.709080297643e+02 
       2.437387742372e-04       1.045352453375e+03 
       2.631830745176e-04       1.125468127719e+03 
       2.841785470091e-04       1.211678185927e+03 
       3.068489367268e-04       1.304435256063e+03 
       3.313278604643e-04       1.404223062919e+03 
       3.577595943165e-04       1.511558029574e+03 
       3.862999240274e-04       1.626990852551e+03 
       4.171170631739e-04       1.751108045598e+03 
       4.503926445983e-04       1.884533404749e+03 
       4.863227909323e-04       2.027929406948e+03 
       5.251192705226e-04       2.181998483904e+03 
       5.670107455699e-04       2.347484146054e+03 
       6.122441198393e-04       2.525171925181e+03 
       6.610859938837e-04       2.715890054960e+03 
       7.138242363583e-04       2.920509779297e+03 
       7.707696806873e-04       3.139945208022e+03 
       8.322579570814e-04       3.375152476982e+03 
       8.986514707061e-04       3.627128020416e+03 
       9.703415376577e-04       3.896905669446e+03 
       1.047750691338e-03       4.185552452541e+03 
       1.131335172818e-03       4.494162775480e+03 
       1.221587619877e-03       4.823851150479e+03 
       1.319039970550e-03       5.175743278566e+03 
       1.424266598317e-03       5.551020298498e+03 
       1.537887697396e-03       5.950789185196e+03 
       1.660572938097e-03       6.376124149754e+03 
       1.793045413791e-03       6.828075236209e+03 
       1.936085902737e-03       7.307627050574e+03 
       2.090537469909e-03       7.815673958450e+03 
       2.257310435923e-03       8.352992922224e+03 
       2.437387742372e-03       8.920214305406e+03 
       2.631830745176e-03       9.517787165512e+03 
       2.841785470091e-03       1.014594130524e+04 
       3.068489367268e-03       1.080465136295e+04 
       3.313278604643e-03       1.149358239282e+04 
       3.577595943165e-03       1.221204586574e+04 
       3.862999240274e-03       1.295893666145e+04 
       4.171170631739e-03       1.373267338192e+04 
       4.503926445983e-03       1.453113499516e+04 
       4.863227909323e-03       1.535157090315e+04 
       5.251192705226e-03       1.619066004050e+04 
       5.670107455699e-03       1.704433871152e+04 
       6.122441198393e-03       1.790758209271e+04 
       6.610859938837e-03       1.877462037998e+04 
       7.138242363583e-03       1.963874880736e+04 
       7.707696806873e-03       2.049217332363e+04 
       8.322579570814e-03       2.132612045944e+04 
       8.986514707061e-03       2.213057448990e+04 
       9.703415376577e-03       2.289444025850e+04 
       1.047750691338e-02       2.360549010411e+04 
       1.131335172818e-02       2.425025459770e+04 
       1.221587619877e-02       2.481422895839e+04 
       1.319039970550e-02       2.528219376168e+04 
       1.424266598317e-02       2.563814918005e+04 
       1.537887697392e-02       2.586611729920e+04 
       1.660572938023e-02       2.595024546318e+04 
       1.793045412706e-02       2.587629792529e+04 
       1.936085890181e-02       2.563215566013e+04 
       2.090537352463e-02       2.520929277012e+04 
       2.257309535333e-02       2.460437281198e+04 
       2.437382002918e-02       2.382082162532e+04 
       2.631799944462e-02       2.287029832996e+04 
       2.841644545389e-02       2.177440726159e+04 
       3.067933355377e-02       2.056548348702e+04 
       3.311368470740e-02       1.928719105446e+04 
       3.571840443502e-02       1.799389289999e+04 
       3.847720348444e-02       1.674679455959e+04 
       4.135335538431e-02       1.560449922906e+04 
       4.429361667738e-02       1.461028214235e+04 
       4.724366439141e-02       1.378048286011e+04 
       5.016480835311e-02       1.310499189024e+04 
       5.303989620246e-02       1.255715922911e+04 
       5.586870669566e-02       1.210423313929e+04 
       5.866042680613e-02       1.171467966059e+04 
       6.142798932958e-02       1.136013989645e+04 
       6.418496440164e-02       1.101861071605e+04 
       6.694418833788e-02       1.067067043227e+04 
       6.971731106057e-02       1.030363957788e+04 
       7.251476155766e-02       9.909067490639e+03 
       7.534587671527e-02       9.483613177614e+03 
       7.821907666265e-02       9.029306668262e+03 
       8.114203772912e-02       8.552132477575e+03 
       8.412184535029e-02       8.061940465611e+03 
       8.716512279304e-02       7.570755334900e+03 
       9.027813695930e-02       7.092470687158e+03 
       9.346688431697e-02       6.640525810372e+03 
       9.673716028276e-02       6.226712684644e+03 
       1.000946150830e-01       5.859934881805e+03 
       1.035447986537e-01       5.545237300361e+03 
       1.070931966762e-01       5.283149129679e+03 
       1.107452594425e-01       5.069450922552e+03 
       1.145064249153e-01       4.895268455724e+03 
       1.183821370918e-01       4.747837240640e+03 
       1.223778605862e-01       4.611723454923e+03 
       1.264990921987e-01       4.470614524851e+03 
       1.307513701367e-01       4.310276311238e+03 
       1.351402814784e-01       4.121392224334e+03 
       1.396714684203e-01       3.902050351094e+03 
       1.443506338194e-01       3.658646781561e+03 
       1.491835465229e-01       3.404462675768e+03 
       1.541760469708e-01       3.156634048791e+03 
       1.593340535561e-01       2.931925603894e+03 
       1.646635702297e-01       2.742348712140e+03 
       1.701706958456e-01       2.592226400017e+03 
       1.758616357459e-01       2.477206879358e+03 
       1.817427160982e-01       2.385154771317e+03 
       1.878204015065e-01       2.300337068677e+03 
       1.941013164283e-01       2.205766204033e+03 
       2.005922709503e-01       2.090834228961e+03 
       2.073002914972e-01       1.956453335437e+03 
       2.142326570816e-01       1.814164539364e+03 
       2.213969417533e-01       1.679265884674e+03 
       2.288010639706e-01       1.563837118721e+03 
       2.364533437147e-01       1.472660158388e+03 
       2.443625682930e-01       1.401502671175e+03 
       2.525380679504e-01       1.338409594092e+03 
       2.609898026346e-01       1.270888821898e+03 
       2.697284615565e-01       1.193347919461e+03 
       2.787655775689e-01       1.109320053899e+03 
       2.881136588829e-01       1.028751037434e+03 
       2.977863412677e-01       9.604636035277e+02 
       3.077985646929e-01       9.050036896030e+02 
       3.181667794071e-01       8.561231830731e+02 
       3.289091877812e-01       8.061674150775e+02 
       3.400460299658e-01       7.523690068794e+02 
       3.515999236474e-01       6.989014178783e+02 
       3.635962711085e-01       6.510451773813e+02 
       3.760637506334e-01       6.101047991571e+02 
       3.890349143879e-01       5.721134813770e+02 
       4.025469216825e-01       5.337617556438e+02 
       4.166424456376e-01       4.956092272344e+02 
       4.313708035863e-01       4.604498661910e+02 
       4.467893782977e-01       4.287550034154e+02 
       4.629654199664e-01       3.987538478068e+02 
       4.799783501994e-01       3.692203056420e+02 
       4.979227319373e-01       3.412210258061e+02 
       5.169121270864e-01       3.154622856832e+02 
       5.370841404489e-01       2.908147227607e+02 
       5.586070464571e-01       2.670849519962e+02 
       5.816885094930e-01       2.447891121960e+02 
       6.065870144995e-01       2.235494312561e+02 
       6.336266468475e-01       2.031916274563e+02 
       6.632156059511e-01       1.838600967486e+02 
       6.958678639263e-01       1.653364075874e+02 
       7.322247985589e-01       1.476773358149e+02 
       7.730680195114e-01       1.308158937234e+02 
       8.193049553677e-01       1.148132665142e+02 
       8.718988016039e-01       9.974460470416e+01 
       9.317218031082e-01       8.575893379805e+01 
       9.993660908989e-01       7.303585391869e+01 
       1.075037110174e+00       6.171697655196e+01 
       1.158653485707e+00       5.185989110885e+01 
       1.250099157308e+00       4.342113029806e+01 
       1.349432401273e+00       3.627025008035e+01 
       1.456947457397e+00       3.024895575825e+01 
       1.573135111331e+00       2.519545944393e+01 
       1.698621895592e+00       2.096295868462e+01 
       1.834127512934e+00       1.742333806603e+01 
       1.980444934528e+00       1.446671126122e+01 
       2.138435191726e+00       1.200007819115e+01 
       2.309029199186e+00       9.944452818320e+00 
       2.493232377687e+00       8.233345648653e+00 
       2.692130395285e+00       6.810154539474e+00 
       2.906895534573e+00       5.627928850746e+00 
       3.138793597714e+00       4.646841448448e+00 
       3.389191366484e+00       3.833258872471e+00 
       3.659564657905e+00       3.159302235697e+00 
       3.951507022538e+00       2.601485888078e+00 
       4.266739136701e+00       2.140208994134e+00 
       4.607118943941e+00       1.759039236431e+00 
       4.974652605557e+00       1.444397533516e+00 
       5.371506324689e+00       1.184812831058e+00 
       5.800019113685e+00       9.708707951462e-01 
       6.262716579983e+00       7.946610585117e-01 
       6.762325811764e+00       6.496387278605e-01 
       7.301791451110e+00       5.303902332040e-01 
       7.884293049406e+00       4.324053428698e-01 
       8.513263807261e+00       3.519568197061e-01 
       9.192410809424e+00       2.859639044543e-01 
       9.925736873929e+00       2.318743870683e-01 
       1.071756414427e+01       1.875835919457e-01 
       1.157255956364e+01       1.513508601711e-01 
       1.249576238137e+01       1.217437817781e-01 
       1.349261385375e+01       9.757962362095e-02 
       1.456898931416e+01       7.788837297393e-02 
       1.573123280165e+01       6.186483020574e-02 
       1.698619445202e+01       4.885768093639e-02 
       1.834127087176e+01       3.832096184263e-02 
       1.980444873285e+01       2.981182161780e-02 
       2.138435184532e+01       2.296650903593e-02 
       2.309029198506e+01       1.748596831291e-02 
       2.493232377636e+01       1.312479789067e-02 
       2.692130395282e+01       9.681931746969e-03 
       2.906895534573e+01       6.991838555298e-03 
       3.138793597714e+01       4.917230313597e-03 
       3.389191366484e+01       3.345501579724e-03 
       3.659564657905e+01       2.182005808423e-03 
       3.951507022538e+01       1.346700818845e-03 
       4.266739136701e+01       7.717309094316e-04 
       4.607118943941e+01       3.981456642537e-04 
       4.974652605557e+01       1.751067199174e-04 
       5.371506324689e+01       5.827295570396e-05 
       5.800019113685e+01       1.005963394420e-05 
       6.262716579983e+01       2.343258670137e-08 
       6.762325811764e+01       5.493704557727e-06 
       7.301791451110e+01       1.245330081672e-05 
       7.884293049406e+01       1.382847098712e-05 
       8.513263807261e+01       1.032049397605e-05 
       9.192410809424e+01       5.074721761019e-06 
       9.925736873929e+01       1.216866247664e-06 
       1.071756414427e+02       9.906687878334e-09 
       1.157255956364e+02       2.675055034665e-07 
       1.249576238137e+02       4.008402703211e-07 
       1.349261385375e+02       1.794734013235e-07 
