# Matter power spectrum P(k) at redshift z=99
# for k=1.04775e-05 to 134.926 h/Mpc,
# number of wavenumbers equal to 255
#    1:k (h/Mpc)              2:P (Mpc/h)^3        
       1.047750691338e-05       7.261927095281e-03 
       1.131335172818e-05       7.820332150751e-03 
       1.221587619877e-05       8.421675382325e-03 
       1.319039970550e-05       9.069257737998e-03 
       1.424266598317e-05       9.766636451120e-03 
       1.537887697396e-05       1.051763973640e-02 
       1.660572938097e-05       1.132639250751e-02 
       1.793045413791e-05       1.219733201508e-02 
       1.936085902737e-05       1.313524187203e-02 
       2.090537469909e-05       1.414527084977e-02 
       2.257310435923e-05       1.523296544492e-02 
       2.437387742372e-05       1.640429654641e-02 
       2.631830745176e-05       1.766569603287e-02 
       2.841785470091e-05       1.902408711164e-02 
       3.068489367268e-05       2.048692967446e-02 
       3.313278604643e-05       2.206225467551e-02 
       3.577595943165e-05       2.375870883855e-02 
       3.862999240274e-05       2.558560669825e-02 
       4.171170631739e-05       2.755297672511e-02 
       4.503926445983e-05       2.967161933417e-02 
       4.863227909323e-05       3.195316455660e-02 
       5.251192705226e-05       3.441013466140e-02 
       5.670107455699e-05       3.705601741708e-02 
       6.122441198393e-05       3.990533412841e-02 
       6.610859938837e-05       4.297372242537e-02 
       7.138242363583e-05       4.627802054857e-02 
       7.707696806873e-05       4.983636159894e-02 
       8.322579570814e-05       5.366826786941e-02 
       8.986514707061e-05       5.779476319741e-02 
       9.703415376577e-05       6.223848221844e-02 
       1.047750691338e-04       6.702379825031e-02 
       1.131335172818e-04       7.217695031090e-02 
       1.221587619877e-04       7.772619030374e-02 
       1.319039970550e-04       8.370193380053e-02 
       1.424266598317e-04       9.013692506682e-02 
       1.537887697396e-04       9.706641130416e-02 
       1.660572938097e-04       1.045283343113e-01 
       1.793045413791e-04       1.125635329188e-01 
       1.936085902737e-04       1.212159592312e-01 
       2.090537469909e-04       1.305329107439e-01 
       2.257310435923e-04       1.405652819364e-01 
       2.437387742372e-04       1.513678275080e-01 
       2.631830745176e-04       1.629994475138e-01 
       2.841785470091e-04       1.755234890484e-01 
       3.068489367268e-04       1.890080645305e-01 
       3.313278604643e-04       2.035263977439e-01 
       3.577595943165e-04       2.191571778052e-01 
       3.862999240274e-04       2.359849423269e-01 
       4.171170631739e-04       2.541004713012e-01 
       4.503926445983e-04       2.736012061170e-01 
       4.863227909323e-04       2.945916774655e-01 
       5.251192705226e-04       3.171839507876e-01 
       5.670107455699e-04       3.414980769122e-01 
       6.122441198393e-04       3.676625416315e-01 
       6.610859938837e-04       3.958147272880e-01 
       7.138242363583e-04       4.261013332081e-01 
       7.707696806873e-04       4.586787880867e-01 
       8.322579570814e-04       4.937136112839e-01 
       8.986514707061e-04       5.313826962095e-01 
       9.703415376577e-04       5.718735176823e-01 
       1.047750691338e-03       6.153841926269e-01 
       1.131335172818e-03       6.621233623140e-01 
       1.221587619877e-03       7.123098743669e-01 
       1.319039970550e-03       7.661721263800e-01 
       1.424266598317e-03       8.239547181309e-01 
       1.537887697396e-03       8.859012282815e-01 
       1.660572938097e-03       9.522589495737e-01 
       1.793045413791e-03       1.023280284733e+00 
       1.936085902737e-03       1.099216542122e+00 
       2.090537469909e-03       1.180313285051e+00 
       2.257310435923e-03       1.266804486822e+00 
       2.437387742372e-03       1.358905328475e+00 
       2.631830745176e-03       1.456803285958e+00 
       2.841785470091e-03       1.560647663040e+00 
       3.068489367268e-03       1.670537010573e+00 
       3.313278604643e-03       1.786505039626e+00 
       3.577595943165e-03       1.908504410093e+00 
       3.862999240274e-03       2.036389468717e+00 
       4.171170631739e-03       2.169898252738e+00 
       4.503926445983e-03       2.308634491875e+00 
       4.863227909323e-03       2.452050674642e+00 
       5.251192705226e-03       2.599434680950e+00 
       5.670107455699e-03       2.749901126219e+00 
       6.122441198393e-03       2.902390058006e+00 
       6.610859938837e-03       3.055671269412e+00 
       7.138242363583e-03       3.208360122319e+00 
       7.707696806873e-03       3.358926650706e+00 
       8.322579570814e-03       3.505726889067e+00 
       8.986514707061e-03       3.647012436901e+00 
       9.703415376577e-03       3.780926178238e+00 
       1.047750691338e-02       3.905492879425e+00 
       1.131335172818e-02       4.018589824633e+00 
       1.221587619877e-02       4.117902887239e+00 
       1.319039970550e-02       4.200917698724e+00 
       1.424266598317e-02       4.264943737252e+00 
       1.537887697392e-02       4.307219668027e+00 
       1.660572938023e-02       4.325062456335e+00 
       1.793045412706e-02       4.316060390813e+00 
       1.936085890181e-02       4.278228930909e+00 
       2.090537352463e-02       4.210204471844e+00 
       2.257309535333e-02       4.111418746559e+00 
       2.437382002918e-02       3.982420933794e+00 
       2.631799944462e-02       3.825168681030e+00 
       2.841644545389e-02       3.643282239810e+00 
       3.067933355377e-02       3.442198696853e+00 
       3.311368470740e-02       3.229241587679e+00 
       3.571840443502e-02       3.013516322528e+00 
       3.847720348444e-02       2.805283932080e+00 
       4.135335538431e-02       2.614410657200e+00 
       4.429361667738e-02       2.448132176888e+00 
       4.724366439141e-02       2.309240646112e+00 
       5.016480835311e-02       2.196115198825e+00 
       5.303989620246e-02       2.104369870686e+00 
       5.586870669566e-02       2.028462613986e+00 
       5.866042680613e-02       1.963155342920e+00 
       6.142798932958e-02       1.903779752481e+00 
       6.418496440164e-02       1.846479264956e+00 
       6.694418833788e-02       1.788197544156e+00 
       6.971731106057e-02       1.726715756830e+00 
       7.251476155766e-02       1.660654476120e+00 
       7.534587671527e-02       1.589469947998e+00 
       7.821907666265e-02       1.513436678724e+00 
       8.114203772912e-02       1.433568876749e+00 
       8.412184535029e-02       1.351492383478e+00 
       8.716512279304e-02       1.269273868525e+00 
       9.027813695930e-02       1.189193314295e+00 
       9.346688431697e-02       1.113501262308e+00 
       9.673716028276e-02       1.044174610963e+00 
       1.000946150830e-01       9.827061481178e-01 
       1.035447986537e-01       9.299454825847e-01 
       1.070931966762e-01       8.859586634526e-01 
       1.107452594425e-01       8.500712413162e-01 
       1.145064249153e-01       8.208034807610e-01 
       1.183821370918e-01       7.960243894242e-01 
       1.223778605862e-01       7.731457950220e-01 
       1.264990921987e-01       7.494522052275e-01 
       1.307513701367e-01       7.225576879578e-01 
       1.351402814784e-01       6.909097394915e-01 
       1.396714684203e-01       6.541825543813e-01 
       1.443506338194e-01       6.134280244401e-01 
       1.491835465229e-01       5.708687055700e-01 
       1.541760469708e-01       5.293640080092e-01 
       1.593340535561e-01       4.917105517033e-01 
       1.646635702297e-01       4.599196492205e-01 
       1.701706958456e-01       4.347275850938e-01 
       1.758616357459e-01       4.154074713252e-01 
       1.817427160982e-01       3.999358700447e-01 
       1.878204015065e-01       3.856854317539e-01 
       1.941013164283e-01       3.698137263483e-01 
       2.005922709503e-01       3.505511233430e-01 
       2.073002914972e-01       3.280460589221e-01 
       2.142326570816e-01       3.042129996273e-01 
       2.213969417533e-01       2.816111482761e-01 
       2.288010639706e-01       2.622563636539e-01 
       2.364533437147e-01       2.469613333366e-01 
       2.443625682930e-01       2.350124462733e-01 
       2.525380679504e-01       2.244198590193e-01 
       2.609898026346e-01       2.130954411214e-01 
       2.697284615565e-01       2.001020682958e-01 
       2.787655775689e-01       1.860192971330e-01 
       2.881136588829e-01       1.725165287558e-01 
       2.977863412677e-01       1.610653940881e-01 
       3.077985646929e-01       1.517601253472e-01 
       3.181667794071e-01       1.435588190358e-01 
       3.289091877812e-01       1.351811569915e-01 
       3.400460299658e-01       1.261636420685e-01 
       3.515999236474e-01       1.172012322061e-01 
       3.635962711085e-01       1.091761860110e-01 
       3.760637506334e-01       1.023087387623e-01 
       3.890349143879e-01       9.593694874103e-02 
       4.025469216825e-01       8.950697210816e-02 
       4.166424456376e-01       8.311101164262e-02 
       4.313708035863e-01       7.721472681870e-02 
       4.467893782977e-01       7.189985393951e-02 
       4.629654199664e-01       6.686828813774e-02 
       4.799783501994e-01       6.191678244172e-02 
       4.979227319373e-01       5.722144632763e-02 
       5.169121270864e-01       5.290211860421e-02 
       5.370841404489e-01       4.876901552865e-02 
       5.586070464571e-01       4.478996168704e-02 
       5.816885094930e-01       4.105113210554e-02 
       6.065870144995e-01       3.748915220039e-02 
       6.336266468475e-01       3.407543892333e-02 
       6.632156059511e-01       3.083376318037e-02 
       6.958678639263e-01       2.772759123463e-02 
       7.322247985589e-01       2.476636882384e-02 
       7.730680195114e-01       2.193883413924e-02 
       8.193049553677e-01       1.925537414666e-02 
       8.718988016039e-01       1.672854116033e-02 
       9.317218031082e-01       1.438340474484e-02 
       9.993660908989e-01       1.224988718197e-02 
       1.075037110174e+00       1.035181744842e-02 
       1.158653485707e+00       8.698892804971e-03 
       1.250099157308e+00       7.283799502607e-03 
       1.349432401273e+00       6.084670808857e-03 
       1.456947457397e+00       5.074939806946e-03 
       1.573135111331e+00       4.227512843451e-03 
       1.698621895592e+00       3.517759484142e-03 
       1.834127512934e+00       2.924199375247e-03 
       1.980444934528e+00       2.428386931924e-03 
       2.138435191726e+00       2.014733211486e-03 
       2.309029199186e+00       1.669996670885e-03 
       2.493232377687e+00       1.383025422654e-03 
       2.692130395285e+00       1.144368236162e-03 
       2.906895534573e+00       9.461065731189e-04 
       3.138793597714e+00       7.815423229930e-04 
       3.389191366484e+00       6.450841936683e-04 
       3.659564657905e+00       5.320372079680e-04 
       3.951507022538e+00       4.384639093863e-04 
       4.266739136701e+00       3.610743657679e-04 
       4.607118943941e+00       2.971223005381e-04 
       4.974652605557e+00       2.443203802534e-04 
       5.371506324689e+00       2.007524911349e-04 
       5.800019113685e+00       1.648337423774e-04 
       6.262716579983e+00       1.352406324772e-04 
       6.762325811764e+00       1.108785837393e-04 
       7.301791451110e+00       9.083602277632e-05 
       7.884293049406e+00       7.435750935403e-05 
       8.513263807261e+00       6.081841226376e-05 
       9.192410809424e+00       4.970189965927e-05 
       9.925736873929e+00       4.058023482421e-05 
       1.071756414427e+01       3.309970894925e-05 
       1.157255956364e+01       2.696911862627e-05 
       1.249576238137e+01       2.194783016057e-05 
       1.349261385375e+01       1.783750692764e-05 
       1.456898931416e+01       1.447520846410e-05 
       1.573123280165e+01       1.172638907777e-05 
       1.698619445202e+01       9.480538978231e-06 
       1.834127087176e+01       7.646937974299e-06 
       1.980444873285e+01       6.151016324116e-06 
       2.138435184532e+01       4.931447431333e-06 
       2.309029198506e+01       3.938190514333e-06 
       2.493232377636e+01       3.130132310091e-06 
       2.692130395282e+01       2.473582187837e-06 
       2.906895534573e+01       1.941075103477e-06 
       3.138793597714e+01       1.510135149473e-06 
       3.389191366484e+01       1.162458307941e-06 
       3.659564657905e+01       8.831366531287e-07 
       3.951507022538e+01       6.599128710561e-07 
       4.266739136701e+01       4.831250574134e-07 
       4.607118943941e+01       3.445521375906e-07 
       4.974652605557e+01       2.376524311319e-07 
       5.371506324689e+01       1.569641052612e-07 
       5.800019113685e+01       9.788955911923e-08 
       6.262716579983e+01       5.647189254121e-08 
       6.762325811764e+01       2.925207685097e-08 
       7.301791451110e+01       1.275345039580e-08 
       7.884293049406e+01       4.161227255506e-09 
       8.513263807261e+01       6.861425375380e-10 
       9.192410809424e+01       3.665330999849e-12 
       9.925736873929e+01       3.597623895861e-10 
       1.071756414427e+02       6.790685043545e-10 
       1.157255956364e+02       6.174823870159e-10 
       1.249576238137e+02       2.274071279927e-10 
       1.349261385375e+02       1.515595709920e-11 
