# Matter power spectrum P(k) at redshift z=99
# for k=1.04775e-05 to 67.6233 h/Mpc,
# number of wavenumbers equal to 246
#    1:k (h/Mpc)              2:P (Mpc/h)^3        
       1.047750691338e-05       7.261927673142e-03 
       1.131335172818e-05       7.820331745761e-03 
       1.221587619877e-05       8.421675986515e-03 
       1.319039970550e-05       9.069258192223e-03 
       1.424266598317e-05       9.766638404451e-03 
       1.537887697396e-05       1.051764069685e-02 
       1.660572938097e-05       1.132639105523e-02 
       1.793045413791e-05       1.219733231420e-02 
       1.936085902737e-05       1.313524224385e-02 
       2.090537469909e-05       1.414527121898e-02 
       2.257310435923e-05       1.523296272197e-02 
       2.437387742372e-05       1.640429444535e-02 
       2.631830745176e-05       1.766569582183e-02 
       2.841785470091e-05       1.902408601799e-02 
       3.068489367268e-05       2.048692970598e-02 
       3.313278604643e-05       2.206225513601e-02 
       3.577595943165e-05       2.375870704916e-02 
       3.862999240274e-05       2.558560727487e-02 
       4.171170631739e-05       2.755297763352e-02 
       4.503926445983e-05       2.967161927325e-02 
       4.863227909323e-05       3.195316450842e-02 
       5.251192705226e-05       3.441013519295e-02 
       5.670107455699e-05       3.705601722537e-02 
       6.122441198393e-05       3.990533413574e-02 
       6.610859938837e-05       4.297372168216e-02 
       7.138242363583e-05       4.627802141703e-02 
       7.707696806873e-05       4.983636194174e-02 
       8.322579570814e-05       5.366826847248e-02 
       8.986514707061e-05       5.779476394586e-02 
       9.703415376577e-05       6.223848243904e-02 
       1.047750691338e-04       6.702379865661e-02 
       1.131335172818e-04       7.217695153403e-02 
       1.221587619877e-04       7.772619073597e-02 
       1.319039970550e-04       8.370193432402e-02 
       1.424266598317e-04       9.013692507575e-02 
       1.537887697396e-04       9.706641242600e-02 
       1.660572938097e-04       1.045283354275e-01 
       1.793045413791e-04       1.125635349072e-01 
       1.936085902737e-04       1.212159614972e-01 
       2.090537469909e-04       1.305329132718e-01 
       2.257310435923e-04       1.405652846219e-01 
       2.437387742372e-04       1.513678302545e-01 
       2.631830745176e-04       1.629994504875e-01 
       2.841785470091e-04       1.755234921230e-01 
       3.068489367268e-04       1.890080670419e-01 
       3.313278604643e-04       2.035264002441e-01 
       3.577595943165e-04       2.191571803688e-01 
       3.862999240274e-04       2.359849437600e-01 
       4.171170631739e-04       2.541004741546e-01 
       4.503926445983e-04       2.736012080285e-01 
       4.863227909323e-04       2.945916790973e-01 
       5.251192705226e-04       3.171839525192e-01 
       5.670107455699e-04       3.414980764011e-01 
       6.122441198393e-04       3.676625413110e-01 
       6.610859938837e-04       3.958147252314e-01 
       7.138242363583e-04       4.261013284918e-01 
       7.707696806873e-04       4.586787792362e-01 
       8.322579570814e-04       4.937136001389e-01 
       8.986514707061e-04       5.313826801413e-01 
       9.703415376577e-04       5.718734972168e-01 
       1.047750691338e-03       6.153841629515e-01 
       1.131335172818e-03       6.621233239475e-01 
       1.221587619877e-03       7.123098220440e-01 
       1.319039970550e-03       7.661720584405e-01 
       1.424266598317e-03       8.239546297732e-01 
       1.537887697396e-03       8.859011173464e-01 
       1.660572938097e-03       9.522588006393e-01 
       1.793045413791e-03       1.023280099818e+00 
       1.936085902737e-03       1.099216304576e+00 
       2.090537469909e-03       1.180312990449e+00 
       2.257310435923e-03       1.266804115843e+00 
       2.437387742372e-03       1.358904853396e+00 
       2.631830745176e-03       1.456802683144e+00 
       2.841785470091e-03       1.560646890505e+00 
       3.068489367268e-03       1.670536062477e+00 
       3.313278604643e-03       1.786503852126e+00 
       3.577595943165e-03       1.908502930751e+00 
       3.862999240274e-03       2.036387730660e+00 
       4.171170631739e-03       2.169896178559e+00 
       4.503926445983e-03       2.308631878913e+00 
       4.863227909323e-03       2.452047290859e+00 
       5.251192705226e-03       2.599430627957e+00 
       5.670107455699e-03       2.749896931643e+00 
       6.122441198393e-03       2.902386513177e+00 
       6.610859938837e-03       3.055668697472e+00 
       7.138242363583e-03       3.208356461217e+00 
       7.707696806873e-03       3.358923891887e+00 
       8.322579570814e-03       3.505724468843e+00 
       8.986514707061e-03       3.647009251126e+00 
       9.703415376577e-03       3.780923303501e+00 
       1.047750691338e-02       3.905492320156e+00 
       1.131335172818e-02       4.018587953036e+00 
       1.221587619877e-02       4.117901580142e+00 
       1.319039970550e-02       4.200915341366e+00 
       1.424266598317e-02       4.264941281031e+00 
       1.537887697392e-02       4.307219376647e+00 
       1.660572938023e-02       4.325063446191e+00 
       1.793045412706e-02       4.316057546514e+00 
       1.936085890181e-02       4.278231496632e+00 
       2.090537352463e-02       4.210202544079e+00 
       2.257309535333e-02       4.111422218742e+00 
       2.437382002918e-02       3.982418804581e+00 
       2.631799944462e-02       3.825167999709e+00 
       2.841644545389e-02       3.643285364676e+00 
       3.067933355377e-02       3.442196502404e+00 
       3.311368470740e-02       3.229236339252e+00 
       3.571840443502e-02       3.013506655244e+00 
       3.847720348444e-02       2.805278662481e+00 
       4.135335538431e-02       2.614413909954e+00 
       4.429361667738e-02       2.448132273070e+00 
       4.724366439141e-02       2.309235735580e+00 
       5.016480835311e-02       2.196114935544e+00 
       5.303989620246e-02       2.104367906428e+00 
       5.586870669566e-02       2.028467084743e+00 
       5.866042680613e-02       1.963151565100e+00 
       6.142798932958e-02       1.903780489053e+00 
       6.418496440164e-02       1.846481702638e+00 
       6.694418833788e-02       1.788198048325e+00 
       6.971731106057e-02       1.726717545054e+00 
       7.251476155766e-02       1.660652629719e+00 
       7.534587671527e-02       1.589470603945e+00 
       7.821907666265e-02       1.513435668720e+00 
       8.114203772912e-02       1.433566851770e+00 
       8.412184535029e-02       1.351490585081e+00 
       8.716512279304e-02       1.269273892693e+00 
       9.027813695930e-02       1.189192307364e+00 
       9.346688431697e-02       1.113501519085e+00 
       9.673716028276e-02       1.044177599347e+00 
       1.000946150830e-01       9.827039779341e-01 
       1.035447986537e-01       9.299365620272e-01 
       1.070931966762e-01       8.859590553308e-01 
       1.107452594425e-01       8.500706650004e-01 
       1.145064249153e-01       8.208021774422e-01 
       1.183821370918e-01       7.960230316152e-01 
       1.223778605862e-01       7.731427967132e-01 
       1.264990921987e-01       7.494510948036e-01 
       1.307513701367e-01       7.225543548106e-01 
       1.351402814784e-01       6.909053040807e-01 
       1.396714684203e-01       6.541773374543e-01 
       1.443506338194e-01       6.134233169392e-01 
       1.491835465229e-01       5.708649888534e-01 
       1.541760469708e-01       5.293613675202e-01 
       1.593340535561e-01       4.917071779753e-01 
       1.646635702297e-01       4.599168705059e-01 
       1.701706958456e-01       4.347242784302e-01 
       1.758616357459e-01       4.154034288555e-01 
       1.817427160982e-01       3.999329689389e-01 
       1.878204015065e-01       3.856783007615e-01 
       1.941013164283e-01       3.698041514574e-01 
       2.005922709503e-01       3.505411391855e-01 
       2.073002914972e-01       3.280384890894e-01 
       2.142326570816e-01       3.042088806778e-01 
       2.213969417533e-01       2.816058785428e-01 
       2.288010639706e-01       2.622509502659e-01 
       2.364533437147e-01       2.469549577163e-01 
       2.443625682930e-01       2.350061788916e-01 
       2.525380679504e-01       2.244107862243e-01 
       2.609898026346e-01       2.130859035294e-01 
       2.697284615565e-01       2.000932750119e-01 
       2.787655775689e-01       1.860110437982e-01 
       2.881136588829e-01       1.725079553234e-01 
       2.977863412677e-01       1.610562494835e-01 
       3.077985646929e-01       1.517506374689e-01 
       3.181667794071e-01       1.435483013066e-01 
       3.289091877812e-01       1.351698894716e-01 
       3.400460299658e-01       1.261521486886e-01 
       3.515999236474e-01       1.171887109473e-01 
       3.635962711085e-01       1.091631830229e-01 
       3.760637506334e-01       1.022952913205e-01 
       3.890349143879e-01       9.592265059436e-02 
       4.025469216825e-01       8.949175119254e-02 
       4.166424456376e-01       8.309491748883e-02 
       4.313708035863e-01       7.719779165140e-02 
       4.467893782977e-01       7.188164031002e-02 
       4.629654199664e-01       6.684930799815e-02 
       4.799783501994e-01       6.189673010482e-02 
       4.979227319373e-01       5.720029187463e-02 
       5.169121270864e-01       5.287972368163e-02 
       5.370841404489e-01       4.874512769864e-02 
       5.586070464571e-01       4.476467430372e-02 
       5.816885094930e-01       4.102427502604e-02 
       6.065870144995e-01       3.746064699211e-02 
       6.336266468475e-01       3.404505068773e-02 
       6.632156059511e-01       3.080125098397e-02 
       6.958678639263e-01       2.769276781157e-02 
       7.322247985589e-01       2.472892558170e-02 
       7.730680195114e-01       2.189847500891e-02 
       8.193049553677e-01       1.921169440118e-02 
       8.718988016039e-01       1.668098701931e-02 
       9.317218031082e-01       1.433153941698e-02 
       9.993660908989e-01       1.219299361391e-02 
       1.075037110174e+00       1.028924055193e-02 
       1.158653485707e+00       8.630197588014e-03 
       1.250099157308e+00       7.208290090870e-03 
       1.349432401273e+00       6.001828516228e-03 
       1.456947457397e+00       4.984230522248e-03 
       1.573135111331e+00       4.128466662890e-03 
       1.698621895592e+00       3.409842627119e-03 
       1.834127512934e+00       2.807007372496e-03 
       1.980444934528e+00       2.301538728995e-03 
       2.138435191726e+00       1.877957346971e-03 
       2.309029199186e+00       1.523176043850e-03 
       2.493232377687e+00       1.226176657049e-03 
       2.692130395285e+00       9.777743749163e-04 
       2.906895534573e+00       7.703460165300e-04 
       3.138793597714e+00       5.975668130623e-04 
       3.389191366484e+00       4.542741310913e-04 
       3.659564657905e+00       3.362994266283e-04 
       3.951507022538e+00       2.402556671070e-04 
       4.266739136701e+00       1.634613078617e-04 
       4.607118943941e+00       1.037367180872e-04 
       4.974652605557e+00       5.926935103860e-05 
       5.371506324689e+00       2.843865538922e-05 
       5.800019113685e+00       9.631177328766e-06 
       6.262716579983e+00       1.075164506363e-06 
       6.762325811764e+00       6.902689322773e-07 
       7.301791451110e+00       6.023092020715e-06 
       7.884293049406e+00       1.429594013774e-05 
       8.513263807261e+00       2.262666731992e-05 
       9.192410809424e+00       2.842106556058e-05 
       9.925736873929e+00       2.989265916659e-05 
       1.071756414427e+01       2.655601657837e-05 
       1.157255956364e+01       1.947175001268e-05 
       1.249576238137e+01       1.099617801323e-05 
       1.349261385375e+01       3.941409795635e-06 
       1.456898931416e+01       3.477001047396e-07 
       1.573123280165e+01       4.504821828496e-07 
       1.698619445202e+01       2.557640483251e-06 
       1.834127087176e+01       4.173642255487e-06 
       1.980444873285e+01       3.782736820653e-06 
       2.138435184532e+01       1.898140383438e-06 
       2.309029198506e+01       2.979527071239e-07 
       2.493232377636e+01       6.844139160881e-08 
       2.692130395282e+01       5.887165493215e-07 
       2.906895534573e+01       6.757872529232e-07 
       3.138793597714e+01       2.350661833658e-07 
       3.389191366484e+01       1.340729398323e-11 
       3.659564657905e+01       1.030158143255e-07 
       3.951507022538e+01       1.067485701160e-07 
       4.266739136701e+01       9.605104411452e-09 
       4.607118943941e+01       1.389440890084e-08 
       4.974652605557e+01       1.983132061094e-08 
       5.371506324689e+01       3.375908291385e-10 
       5.800019113685e+01       4.362153556654e-09 
       6.262716579983e+01       1.045629252187e-09 
       6.762325811764e+01       6.064283405396e-10 
