# Matter power spectrum P(k) at redshift z=99
# for k=1.04775e-05 to 67.6233 h/Mpc,
# number of wavenumbers equal to 246
#    1:k (h/Mpc)              2:P (Mpc/h)^3        
       1.047750691338e-05       7.261927673119e-03 
       1.131335172818e-05       7.820331745737e-03 
       1.221587619877e-05       8.421675986488e-03 
       1.319039970550e-05       9.069258192194e-03 
       1.424266598317e-05       9.766638404421e-03 
       1.537887697396e-05       1.051764069682e-02 
       1.660572938097e-05       1.132639105520e-02 
       1.793045413791e-05       1.219733231416e-02 
       1.936085902737e-05       1.313524224380e-02 
       2.090537469909e-05       1.414527121893e-02 
       2.257310435923e-05       1.523296272192e-02 
       2.437387742372e-05       1.640429444530e-02 
       2.631830745176e-05       1.766569582177e-02 
       2.841785470091e-05       1.902408601793e-02 
       3.068489367268e-05       2.048692970591e-02 
       3.313278604643e-05       2.206225513594e-02 
       3.577595943165e-05       2.375870704909e-02 
       3.862999240274e-05       2.558560727479e-02 
       4.171170631739e-05       2.755297763344e-02 
       4.503926445983e-05       2.967161927314e-02 
       4.863227909323e-05       3.195316450832e-02 
       5.251192705226e-05       3.441013519284e-02 
       5.670107455699e-05       3.705601722524e-02 
       6.122441198393e-05       3.990533413561e-02 
       6.610859938837e-05       4.297372168203e-02 
       7.138242363583e-05       4.627802141688e-02 
       7.707696806873e-05       4.983636194159e-02 
       8.322579570814e-05       5.366826847231e-02 
       8.986514707061e-05       5.779476394569e-02 
       9.703415376577e-05       6.223848243885e-02 
       1.047750691338e-04       6.702379865640e-02 
       1.131335172818e-04       7.217695153381e-02 
       1.221587619877e-04       7.772619073571e-02 
       1.319039970550e-04       8.370193432376e-02 
       1.424266598317e-04       9.013692507547e-02 
       1.537887697396e-04       9.706641242570e-02 
       1.660572938097e-04       1.045283354271e-01 
       1.793045413791e-04       1.125635349068e-01 
       1.936085902737e-04       1.212159614968e-01 
       2.090537469909e-04       1.305329132714e-01 
       2.257310435923e-04       1.405652846215e-01 
       2.437387742372e-04       1.513678302540e-01 
       2.631830745176e-04       1.629994504871e-01 
       2.841785470091e-04       1.755234921224e-01 
       3.068489367268e-04       1.890080670413e-01 
       3.313278604643e-04       2.035264002435e-01 
       3.577595943165e-04       2.191571803681e-01 
       3.862999240274e-04       2.359849437592e-01 
       4.171170631739e-04       2.541004741539e-01 
       4.503926445983e-04       2.736012080277e-01 
       4.863227909323e-04       2.945916790965e-01 
       5.251192705226e-04       3.171839525183e-01 
       5.670107455699e-04       3.414980764002e-01 
       6.122441198393e-04       3.676625413100e-01 
       6.610859938837e-04       3.958147252304e-01 
       7.138242363583e-04       4.261013284917e-01 
       7.707696806873e-04       4.586787792354e-01 
       8.322579570814e-04       4.937136001342e-01 
       8.986514707061e-04       5.313826801401e-01 
       9.703415376577e-04       5.718734972157e-01 
       1.047750691338e-03       6.153841629505e-01 
       1.131335172818e-03       6.621233239465e-01 
       1.221587619877e-03       7.123098220424e-01 
       1.319039970550e-03       7.661720584642e-01 
       1.424266598317e-03       8.239546297730e-01 
       1.537887697396e-03       8.859011173466e-01 
       1.660572938097e-03       9.522588006422e-01 
       1.793045413791e-03       1.023280099819e+00 
       1.936085902737e-03       1.099216304579e+00 
       2.090537469909e-03       1.180312990454e+00 
       2.257310435923e-03       1.266804115852e+00 
       2.437387742372e-03       1.358904853406e+00 
       2.631830745176e-03       1.456802683156e+00 
       2.841785470091e-03       1.560646890522e+00 
       3.068489367268e-03       1.670536062502e+00 
       3.313278604643e-03       1.786503852160e+00 
       3.577595943165e-03       1.908502930788e+00 
       3.862999240274e-03       2.036387730709e+00 
       4.171170631739e-03       2.169896177753e+00 
       4.503926445983e-03       2.308631878994e+00 
       4.863227909323e-03       2.452047290962e+00 
       5.251192705226e-03       2.599430628088e+00 
       5.670107455699e-03       2.749896931832e+00 
       6.122441198393e-03       2.902386513383e+00 
       6.610859938837e-03       3.055668702838e+00 
       7.138242363583e-03       3.208356461545e+00 
       7.707696806873e-03       3.358923892905e+00 
       8.322579570814e-03       3.505725595071e+00 
       8.986514707061e-03       3.647009533351e+00 
       9.703415376577e-03       3.780923304314e+00 
       1.047750691338e-02       3.905490795099e+00 
       1.131335172818e-02       4.018587640772e+00 
       1.221587619877e-02       4.117901585117e+00 
       1.319039970550e-02       4.200915389245e+00 
       1.424266598317e-02       4.264942421707e+00 
       1.537887697392e-02       4.307217627043e+00 
       1.660572938023e-02       4.325060186122e+00 
       1.793045412706e-02       4.316058872439e+00 
       1.936085890181e-02       4.278225127586e+00 
       2.090537352463e-02       4.210203169993e+00 
       2.257309535333e-02       4.111423127653e+00 
       2.437382002918e-02       3.982412480473e+00 
       2.631799944462e-02       3.825170905791e+00 
       2.841644545389e-02       3.643282187740e+00 
       3.067933355377e-02       3.442197945026e+00 
       3.311368470740e-02       3.229243571824e+00 
       3.571840443502e-02       3.013511310676e+00 
       3.847720348444e-02       2.805288314290e+00 
       4.135335538431e-02       2.614415835259e+00 
       4.429361667738e-02       2.448140819451e+00 
       4.724366439141e-02       2.309234976131e+00 
       5.016480835311e-02       2.196108413064e+00 
       5.303989620246e-02       2.104364847328e+00 
       5.586870669566e-02       2.028463410044e+00 
       5.866042680613e-02       1.963153905477e+00 
       6.142798932958e-02       1.903780714583e+00 
       6.418496440164e-02       1.846479370729e+00 
       6.694418833788e-02       1.788197311569e+00 
       6.971731106057e-02       1.726716638841e+00 
       7.251476155766e-02       1.660652549696e+00 
       7.534587671527e-02       1.589474576017e+00 
       7.821907666265e-02       1.513439122441e+00 
       8.114203772912e-02       1.433567797791e+00 
       8.412184535029e-02       1.351491277413e+00 
       8.716512279304e-02       1.269273786459e+00 
       9.027813695930e-02       1.189189709825e+00 
       9.346688431697e-02       1.113501761733e+00 
       9.673716028276e-02       1.044175282630e+00 
       1.000946150830e-01       9.827057574077e-01 
       1.035447986537e-01       9.299393395398e-01 
       1.070931966762e-01       8.859590718500e-01 
       1.107452594425e-01       8.500693841789e-01 
       1.145064249153e-01       8.208028862207e-01 
       1.183821370918e-01       7.960259977374e-01 
       1.223778605862e-01       7.731437320419e-01 
       1.264990921987e-01       7.494511413687e-01 
       1.307513701367e-01       7.225572862697e-01 
       1.351402814784e-01       6.909079117132e-01 
       1.396714684203e-01       6.541807131376e-01 
       1.443506338194e-01       6.134254580531e-01 
       1.491835465229e-01       5.708677372984e-01 
       1.541760469708e-01       5.293633187565e-01 
       1.593340535561e-01       4.917113280241e-01 
       1.646635702297e-01       4.599195040836e-01 
       1.701706958456e-01       4.347291439202e-01 
       1.758616357459e-01       4.154082007410e-01 
       1.817427160982e-01       3.999377131805e-01 
       1.878204015065e-01       3.856825734777e-01 
       1.941013164283e-01       3.698095533020e-01 
       2.005922709503e-01       3.505465014321e-01 
       2.073002914972e-01       3.280435417795e-01 
       2.142326570816e-01       3.042147007265e-01 
       2.213969417533e-01       2.816122606683e-01 
       2.288010639706e-01       2.622571663325e-01 
       2.364533437147e-01       2.469626604431e-01 
       2.443625682930e-01       2.350130259489e-01 
       2.525380679504e-01       2.244177608159e-01 
       2.609898026346e-01       2.130938758391e-01 
       2.697284615565e-01       2.001019350473e-01 
       2.787655775689e-01       1.860202621552e-01 
       2.881136588829e-01       1.725170460312e-01 
       2.977863412677e-01       1.610665255754e-01 
       3.077985646929e-01       1.517607374713e-01 
       3.181667794071e-01       1.435594222881e-01 
       3.289091877812e-01       1.351816202551e-01 
       3.400460299658e-01       1.261639873142e-01 
       3.515999236474e-01       1.172019350217e-01 
       3.635962711085e-01       1.091767989294e-01 
       3.760637506334e-01       1.023096568162e-01 
       3.890349143879e-01       9.593784881204e-02 
       4.025469216825e-01       8.950778165455e-02 
       4.166424456376e-01       8.311198374703e-02 
       4.313708035863e-01       7.721542109180e-02 
       4.467893782977e-01       7.190087018373e-02 
       4.629654199664e-01       6.686906541341e-02 
       4.799783501994e-01       6.191748172522e-02 
       4.979227319373e-01       5.722243062471e-02 
       5.169121270864e-01       5.290284763822e-02 
       5.370841404489e-01       4.876987351445e-02 
       5.586070464571e-01       4.479082741914e-02 
       5.816885094930e-01       4.105189931376e-02 
       6.065870144995e-01       3.748999038494e-02 
       6.336266468475e-01       3.407620577490e-02 
       6.632156059511e-01       3.083453501628e-02 
       6.958678639263e-01       2.772832591253e-02 
       7.322247985589e-01       2.476711233294e-02 
       7.730680195114e-01       2.193958710160e-02 
       8.193049553677e-01       1.925610133363e-02 
       8.718988016039e-01       1.672927257168e-02 
       9.317218031082e-01       1.438422202638e-02 
       9.993660908989e-01       1.225069913528e-02 
       1.075037110174e+00       1.035262137002e-02 
       1.158653485707e+00       8.699730817622e-03 
       1.250099157308e+00       7.284588965390e-03 
       1.349432401273e+00       6.085475998041e-03 
       1.456947457397e+00       5.075734937289e-03 
       1.573135111331e+00       4.228297823595e-03 
       1.698621895592e+00       3.518543894300e-03 
       1.834127512934e+00       2.924979691637e-03 
       1.980444934528e+00       2.429170281600e-03 
       2.138435191726e+00       2.015513292192e-03 
       2.309029199186e+00       1.670776673093e-03 
       2.493232377687e+00       1.383792880111e-03 
       2.692130395285e+00       1.145135882815e-03 
       2.906895534573e+00       9.468572841212e-04 
       3.138793597714e+00       7.822927344052e-04 
       3.389191366484e+00       6.458246305232e-04 
       3.659564657905e+00       5.327695169820e-04 
       3.951507022538e+00       4.391871280335e-04 
       4.266739136701e+00       3.617906807299e-04 
       4.607118943941e+00       2.978297437163e-04 
       4.974652605557e+00       2.450131792636e-04 
       5.371506324689e+00       2.014365112771e-04 
       5.800019113685e+00       1.655060398373e-04 
       6.262716579983e+00       1.359039661196e-04 
       6.762325811764e+00       1.115310325858e-04 
       7.301791451110e+00       9.147586469588e-05 
       7.884293049406e+00       7.498616241671e-05 
       8.513263807261e+00       6.143608584215e-05 
       9.192410809424e+00       5.030844584334e-05 
       9.925736873929e+00       4.117522010156e-05 
       1.071756414427e+01       3.368340831019e-05 
       1.157255956364e+01       2.754141547268e-05 
       1.249576238137e+01       2.250883904591e-05 
       1.349261385375e+01       1.838750563131e-05 
       1.456898931416e+01       1.501418484404e-05 
       1.573123280165e+01       1.225435115384e-05 
       1.698619445202e+01       9.997664250007e-06 
       1.834127087176e+01       8.153125527962e-06 
       1.980444873285e+01       6.646173422337e-06 
       2.138435184532e+01       5.415692483220e-06 
       2.309029198506e+01       4.411335173105e-06 
       2.493232377636e+01       3.591850822177e-06 
       2.692130395282e+01       2.923540998409e-06 
       2.906895534573e+01       2.378738616467e-06 
       3.138793597714e+01       1.934758065461e-06 
       3.389191366484e+01       1.573100708035e-06 
       3.659564657905e+01       1.278629525491e-06 
       3.951507022538e+01       1.038916655850e-06 
       4.266739136701e+01       8.438605842679e-07 
       4.607118943941e+01       6.852045132847e-07 
       4.974652605557e+01       5.562038899311e-07 
       5.371506324689e+01       4.513415703391e-07 
       5.800019113685e+01       3.661291582813e-07 
       6.262716579983e+01       2.969138521500e-07 
       6.762325811764e+01       2.407063664277e-07 
