# Matter power spectrum P(k) at redshift z=99
# for k=1.04775e-05 to 134.926 h/Mpc,
# number of wavenumbers equal to 255
#    1:k (h/Mpc)              2:P (Mpc/h)^3        
       1.047750691338e-05       7.261927095216e-03 
       1.131335172818e-05       7.820332150681e-03 
       1.221587619877e-05       8.421675382250e-03 
       1.319039970550e-05       9.069257737917e-03 
       1.424266598317e-05       9.766636451033e-03 
       1.537887697396e-05       1.051763973631e-02 
       1.660572938097e-05       1.132639250741e-02 
       1.793045413791e-05       1.219733201497e-02 
       1.936085902737e-05       1.313524187191e-02 
       2.090537469909e-05       1.414527084965e-02 
       2.257310435923e-05       1.523296544479e-02 
       2.437387742372e-05       1.640429654626e-02 
       2.631830745176e-05       1.766569603271e-02 
       2.841785470091e-05       1.902408711147e-02 
       3.068489367268e-05       2.048692967428e-02 
       3.313278604643e-05       2.206225467531e-02 
       3.577595943165e-05       2.375870883834e-02 
       3.862999240274e-05       2.558560669802e-02 
       4.171170631739e-05       2.755297672486e-02 
       4.503926445983e-05       2.967161933390e-02 
       4.863227909323e-05       3.195316455632e-02 
       5.251192705226e-05       3.441013466109e-02 
       5.670107455699e-05       3.705601741674e-02 
       6.122441198393e-05       3.990533412806e-02 
       6.610859938837e-05       4.297372242499e-02 
       7.138242363583e-05       4.627802054815e-02 
       7.707696806873e-05       4.983636159849e-02 
       8.322579570814e-05       5.366826786892e-02 
       8.986514707061e-05       5.779476319689e-02 
       9.703415376577e-05       6.223848221789e-02 
       1.047750691338e-04       6.702379824971e-02 
       1.131335172818e-04       7.217695031026e-02 
       1.221587619877e-04       7.772619030304e-02 
       1.319039970550e-04       8.370193379979e-02 
       1.424266598317e-04       9.013692506602e-02 
       1.537887697396e-04       9.706641130330e-02 
       1.660572938097e-04       1.045283343104e-01 
       1.793045413791e-04       1.125635329178e-01 
       1.936085902737e-04       1.212159592301e-01 
       2.090537469909e-04       1.305329107427e-01 
       2.257310435923e-04       1.405652819352e-01 
       2.437387742372e-04       1.513678275067e-01 
       2.631830745176e-04       1.629994475124e-01 
       2.841785470091e-04       1.755234890469e-01 
       3.068489367268e-04       1.890080645289e-01 
       3.313278604643e-04       2.035263977421e-01 
       3.577595943165e-04       2.191571778034e-01 
       3.862999240274e-04       2.359849423249e-01 
       4.171170631739e-04       2.541004712991e-01 
       4.503926445983e-04       2.736012061147e-01 
       4.863227909323e-04       2.945916774631e-01 
       5.251192705226e-04       3.171839507851e-01 
       5.670107455699e-04       3.414980769095e-01 
       6.122441198393e-04       3.676625416287e-01 
       6.610859938837e-04       3.958147272851e-01 
       7.138242363583e-04       4.261013332051e-01 
       7.707696806873e-04       4.586787880836e-01 
       8.322579570814e-04       4.937136112808e-01 
       8.986514707061e-04       5.313826962064e-01 
       9.703415376577e-04       5.718735176792e-01 
       1.047750691338e-03       6.153841926239e-01 
       1.131335172818e-03       6.621233623113e-01 
       1.221587619877e-03       7.123098743646e-01 
       1.319039970550e-03       7.661721263781e-01 
       1.424266598317e-03       8.239547181300e-01 
       1.537887697396e-03       8.859012282819e-01 
       1.660572938097e-03       9.522589495760e-01 
       1.793045413791e-03       1.023280284738e+00 
       1.936085902737e-03       1.099216542130e+00 
       2.090537469909e-03       1.180313285064e+00 
       2.257310435923e-03       1.266804486840e+00 
       2.437387742372e-03       1.358905328500e+00 
       2.631830745176e-03       1.456803285993e+00 
       2.841785470091e-03       1.560647663088e+00 
       3.068489367268e-03       1.670537010637e+00 
       3.313278604643e-03       1.786505039710e+00 
       3.577595943165e-03       1.908504410202e+00 
       3.862999240274e-03       2.036389468857e+00 
       4.171170631739e-03       2.169898252919e+00 
       4.503926445983e-03       2.308634492107e+00 
       4.863227909323e-03       2.452050674938e+00 
       5.251192705226e-03       2.599434681325e+00 
       5.670107455699e-03       2.749901126693e+00 
       6.122441198393e-03       2.902390058603e+00 
       6.610859938837e-03       3.055671270162e+00 
       7.138242363583e-03       3.208360123259e+00 
       7.707696806873e-03       3.358926651878e+00 
       8.322579570814e-03       3.505726890525e+00 
       8.986514707061e-03       3.647012438709e+00 
       9.703415376577e-03       3.780926180473e+00 
       1.047750691338e-02       3.905492882179e+00 
       1.131335172818e-02       4.018589828012e+00 
       1.221587619877e-02       4.117902891379e+00 
       1.319039970550e-02       4.200917703771e+00 
       1.424266598317e-02       4.264943743384e+00 
       1.537887697392e-02       4.307219675442e+00 
       1.660572938023e-02       4.325062465264e+00 
       1.793045412706e-02       4.316060401514e+00 
       1.936085890181e-02       4.278228943690e+00 
       2.090537352463e-02       4.210204486974e+00 
       2.257309535333e-02       4.111418764394e+00 
       2.437382002918e-02       3.982420954672e+00 
       2.631799944462e-02       3.825168705347e+00 
       2.841644545389e-02       3.643282267717e+00 
       3.067933355377e-02       3.442198729130e+00 
       3.311368470740e-02       3.229241625832e+00 
       3.571840443502e-02       3.013516364248e+00 
       3.847720348444e-02       2.805283979018e+00 
       4.135335538431e-02       2.614410709568e+00 
       4.429361667738e-02       2.448132235984e+00 
       4.724366439141e-02       2.309240710310e+00 
       5.016480835311e-02       2.196115269155e+00 
       5.303989620246e-02       2.104369947264e+00 
       5.586870669566e-02       2.028462696885e+00 
       5.866042680613e-02       1.963155432169e+00 
       6.142798932958e-02       1.903779848051e+00 
       6.418496440164e-02       1.846479366708e+00 
       6.694418833788e-02       1.788197647270e+00 
       6.971731106057e-02       1.726715856618e+00 
       7.251476155766e-02       1.660654574736e+00 
       7.534587671527e-02       1.589470053686e+00 
       7.821907666265e-02       1.513436801975e+00 
       8.114203772912e-02       1.433569007754e+00 
       8.412184535029e-02       1.351492517327e+00 
       8.716512279304e-02       1.269274004518e+00 
       9.027813695930e-02       1.189193451777e+00 
       9.346688431697e-02       1.113501400890e+00 
       9.673716028276e-02       1.044174750336e+00 
       1.000946150830e-01       9.827062881175e-01 
       1.035447986537e-01       9.299369448810e-01 
       1.070931966762e-01       8.859588045519e-01 
       1.107452594425e-01       8.500713829953e-01 
       1.145064249153e-01       8.208036224218e-01 
       1.183821370918e-01       7.960245139960e-01 
       1.223778605862e-01       7.731455696948e-01 
       1.264990921987e-01       7.494518007083e-01 
       1.307513701367e-01       7.225568463569e-01 
       1.351402814784e-01       6.909081822557e-01 
       1.396714684203e-01       6.541804558291e-01 
       1.443506338194e-01       6.134260159817e-01 
       1.491835465229e-01       5.708672228728e-01 
       1.541760469708e-01       5.293640999096e-01 
       1.593340535561e-01       4.917106067699e-01 
       1.646635702297e-01       4.599196874640e-01 
       1.701706958456e-01       4.347276037359e-01 
       1.758616357459e-01       4.154075112296e-01 
       1.817427160982e-01       3.999371799031e-01 
       1.878204015065e-01       3.856819145258e-01 
       1.941013164283e-01       3.698088458993e-01 
       2.005922709503e-01       3.505456665570e-01 
       2.073002914972e-01       3.280424835509e-01 
       2.142326570816e-01       3.042132338036e-01 
       2.213969417533e-01       2.816111441375e-01 
       2.288010639706e-01       2.622560843445e-01 
       2.364533437147e-01       2.469610513500e-01 
       2.443625682930e-01       2.350123474096e-01 
       2.525380679504e-01       2.244168362226e-01 
       2.609898026346e-01       2.130929145206e-01 
       2.697284615565e-01       2.001008260692e-01 
       2.787655775689e-01       1.860187627026e-01 
       2.881136588829e-01       1.725159625076e-01 
       2.977863412677e-01       1.610647075472e-01 
       3.077985646929e-01       1.517594832726e-01 
       3.181667794071e-01       1.435578759741e-01 
       3.289091877812e-01       1.351799252571e-01 
       3.400460299658e-01       1.261626600520e-01 
       3.515999236474e-01       1.172001805113e-01 
       3.635962711085e-01       1.091751827418e-01 
       3.760637506334e-01       1.023074602054e-01 
       3.890349143879e-01       9.593557223030e-02 
       4.025469216825e-01       8.950550312986e-02 
       4.166424456376e-01       8.310937120673e-02 
       4.313708035863e-01       7.721303437309e-02 
       4.467893782977e-01       7.189792920119e-02 
       4.629654199664e-01       6.686613017219e-02 
       4.799783501994e-01       6.191451243335e-02 
       4.979227319373e-01       5.721913814306e-02 
       5.169121270864e-01       5.289961412002e-02 
       5.370841404489e-01       4.876625489770e-02 
       5.586070464571e-01       4.478722174034e-02 
       5.816885094930e-01       4.104797722015e-02 
       6.065870144995e-01       3.748578976825e-02 
       6.336266468475e-01       3.407192380431e-02 
       6.632156059511e-01       3.082995840687e-02 
       6.958678639263e-01       2.772328592422e-02 
       7.322247985589e-01       2.476172192722e-02 
       7.730680195114e-01       2.193383503229e-02 
       8.193049553677e-01       1.924990342281e-02 
       8.718988016039e-01       1.672252581182e-02 
       9.317218031082e-01       1.437683831901e-02 
       9.993660908989e-01       1.224256897754e-02 
       1.075037110174e+00       1.034370899072e-02 
       1.158653485707e+00       8.689898679043e-03 
       1.250099157308e+00       7.273789184689e-03 
       1.349432401273e+00       6.073590856940e-03 
       1.456947457397e+00       5.062705846605e-03 
       1.573135111331e+00       4.214007606338e-03 
       1.698621895592e+00       3.502892217335e-03 
       1.834127512934e+00       2.907890599272e-03 
       1.980444934528e+00       2.410496193054e-03 
       2.138435191726e+00       1.995169740876e-03 
       2.309029199186e+00       1.648653631509e-03 
       2.493232377687e+00       1.359788167592e-03 
       2.692130395285e+00       1.119139132409e-03 
       2.906895534573e+00       9.187831540059e-04 
       3.138793597714e+00       7.520639851557e-04 
       3.389191366484e+00       6.133757676797e-04 
       3.659564657905e+00       4.980637591037e-04 
       3.951507022538e+00       4.022199906780e-04 
       4.266739136701e+00       3.226023213920e-04 
       4.607118943941e+00       2.565124973211e-04 
       4.974652605557e+00       2.017285251691e-04 
       5.371506324689e+00       1.564202030332e-04 
       5.800019113685e+00       1.190995093600e-04 
       6.262716579983e+00       8.854844243204e-05 
       6.762325811764e+00       6.378833311235e-05 
       7.301791451110e+00       4.402693779549e-05 
       7.884293049406e+00       2.862667691486e-05 
       8.513263807261e+00       1.705830495932e-05 
       9.192410809424e+00       8.855084886862e-06 
       9.925736873929e+00       3.581939411286e-06 
       1.071756414427e+01       7.914889870499e-07 
       1.157255956364e+01       3.113702429125e-10 
       1.249576238137e+01       6.601704647958e-07 
       1.349261385375e+01       2.175258863109e-06 
       1.456898931416e+01       3.936763891914e-06 
       1.573123280165e+01       5.366872209536e-06 
       1.698619445202e+01       6.038826228508e-06 
       1.834127087176e+01       5.765637084606e-06 
       1.980444873285e+01       4.637971552128e-06 
       2.138435184532e+01       3.028017794171e-06 
       2.309029198506e+01       1.452432470574e-06 
       2.493232377636e+01       3.741110103260e-07 
       2.692130395282e+01       1.360957285564e-09 
       2.906895534573e+01       1.909118821883e-07 
       3.138793597714e+01       5.481927214415e-07 
       3.389191366484e+01       6.930808833124e-07 
       3.659564657905e+01       5.186294085718e-07 
       3.951507022538e+01       2.000732604417e-07 
       4.266739136701e+01       1.494004421342e-08 
       4.607118943941e+01       2.328325846714e-08 
       4.974652605557e+01       8.814551537652e-08 
       5.371506324689e+01       7.888113784882e-08 
       5.800019113685e+01       1.917556311830e-08 
       6.262716579983e+01       3.144212938963e-10 
       6.762325811764e+01       1.086781673378e-08 
       7.301791451110e+01       9.578473543239e-09 
       7.884293049406e+01       6.653265479871e-10 
       8.513263807261e+01       1.210991854351e-09 
       9.192410809424e+01       1.232644577508e-09 
       9.925736873929e+01       4.476596298339e-12 
       1.071756414427e+02       4.833163049918e-10 
       1.157255956364e+02       3.121986138655e-11 
       1.249576238137e+02       3.427997907998e-11 
       1.349261385375e+02       1.251697664705e-11 
