# Matter power spectrum P(k) at redshift z=0
# for k=1.04775e-05 to 67.6233 h/Mpc,
# number of wavenumbers equal to 246
#    1:k (h/Mpc)              2:P (Mpc/h)^3        
       1.047750691338e-05       5.020964806751e+01 
       1.131335172818e-05       5.407048206553e+01 
       1.221587619877e-05       5.822819063603e+01 
       1.319039970550e-05       6.270562589678e+01 
       1.424266598317e-05       6.752731788102e+01 
       1.537887697396e-05       7.271977200257e+01 
       1.660572938097e-05       7.831147241542e+01 
       1.793045413791e-05       8.433311815128e+01 
       1.936085902737e-05       9.081778242446e+01 
       2.090537469909e-05       9.780108061340e+01 
       2.257310435923e-05       1.053213197032e+02 
       2.437387742372e-05       1.134197377001e+02 
       2.631830745176e-05       1.221408202816e+02 
       2.841785470091e-05       1.315324720916e+02 
       3.068489367268e-05       1.416462093730e+02 
       3.313278604643e-05       1.525374500691e+02 
       3.577595943165e-05       1.642660687078e+02 
       3.862999240274e-05       1.768963504868e+02 
       4.171170631739e-05       1.904975992460e+02 
       4.503926445983e-05       2.051444490305e+02 
       4.863227909323e-05       2.209171463752e+02 
       5.251192705226e-05       2.379022222314e+02 
       5.670107455699e-05       2.561927925464e+02 
       6.122441198393e-05       2.758890441791e+02 
       6.610859938837e-05       2.970989225466e+02 
       7.138242363583e-05       3.199385558200e+02 
       7.707696806873e-05       3.445329780878e+02 
       8.322579570814e-05       3.710167315928e+02 
       8.986514707061e-05       3.995346440954e+02 
       9.703415376577e-05       4.302425403884e+02 
       1.047750691338e-04       4.633080762974e+02 
       1.131335172818e-04       4.989116267507e+02 
       1.221587619877e-04       5.372471946561e+02 
       1.319039970550e-04       5.785234124637e+02 
       1.424266598317e-04       6.229645930980e+02 
       1.537887697396e-04       6.708118484951e+02 
       1.660572938097e-04       7.223242660220e+02 
       1.793045413791e-04       7.777801557658e+02 
       1.936085902737e-04       8.374783607333e+02 
       2.090537469909e-04       9.017396264495e+02 
       2.257310435923e-04       9.709080260152e+02 
       2.437387742372e-04       1.045352448644e+03 
       2.631830745176e-04       1.125468122836e+03 
       2.841785470091e-04       1.211678179511e+03 
       3.068489367268e-04       1.304435249091e+03 
       3.313278604643e-04       1.404223052541e+03 
       3.577595943165e-04       1.511558013390e+03 
       3.862999240274e-04       1.626990836489e+03 
       4.171170631739e-04       1.751108027370e+03 
       4.503926445983e-04       1.884533381345e+03 
       4.863227909323e-04       2.027929376470e+03 
       5.251192705226e-04       2.181998446367e+03 
       5.670107455699e-04       2.347484100857e+03 
       6.122441198393e-04       2.525171869336e+03 
       6.610859938837e-04       2.715889981401e+03 
       7.138242363583e-04       2.920509686092e+03 
       7.707696806873e-04       3.139945097711e+03 
       8.322579570814e-04       3.375152334396e+03 
       8.986514707061e-04       3.627127828231e+03 
       9.703415376577e-04       3.896905450016e+03 
       1.047750691338e-03       4.185552170957e+03 
       1.131335172818e-03       4.494162426791e+03 
       1.221587619877e-03       4.823850702666e+03 
       1.319039970550e-03       5.175742736291e+03 
       1.424266598317e-03       5.551019592519e+03 
       1.537887697396e-03       5.950788335877e+03 
       1.660572938097e-03       6.376123046805e+03 
       1.793045413791e-03       6.828073896122e+03 
       1.936085902737e-03       7.307625375387e+03 
       2.090537469909e-03       7.815671897320e+03 
       2.257310435923e-03       8.352990369399e+03 
       2.437387742372e-03       8.920211057524e+03 
       2.631830745176e-03       9.517783061890e+03 
       2.841785470091e-03       1.014593703671e+04 
       3.068489367268e-03       1.080464505746e+04 
       3.313278604643e-03       1.149357459544e+04 
       3.577595943165e-03       1.221203620826e+04 
       3.862999240274e-03       1.295892538505e+04 
       4.171170631739e-03       1.373265985831e+04 
       4.503926445983e-03       1.453111834595e+04 
       4.863227909323e-03       1.535154984227e+04 
       5.251192705226e-03       1.619063613436e+04 
       5.670107455699e-03       1.704431256559e+04 
       6.122441198393e-03       1.790755938456e+04 
       6.610859938837e-03       1.877460424959e+04 
       7.138242363583e-03       1.963872429095e+04 
       7.707696806873e-03       2.049215713342e+04 
       8.322579570814e-03       2.132607230487e+04 
       8.986514707061e-03       2.213055122775e+04 
       9.703415376577e-03       2.289445470779e+04 
       1.047750691338e-02       2.360548575088e+04 
       1.131335172818e-02       2.425022856805e+04 
       1.221587619877e-02       2.481423923036e+04 
       1.319039970550e-02       2.528218702734e+04 
       1.424266598317e-02       2.563814308429e+04 
       1.537887697392e-02       2.586606644681e+04 
       1.660572938023e-02       2.595028945876e+04 
       1.793045412706e-02       2.587634601642e+04 
       1.936085890181e-02       2.563220363208e+04 
       2.090537352463e-02       2.520935818821e+04 
       2.257309535333e-02       2.460444826004e+04 
       2.437382002918e-02       2.382091513235e+04 
       2.631799944462e-02       2.287047130778e+04 
       2.841644545389e-02       2.177452995802e+04 
       3.067933355377e-02       2.056557060362e+04 
       3.311368470740e-02       1.928727922937e+04 
       3.571840443502e-02       1.799397115429e+04 
       3.847720348444e-02       1.674687264751e+04 
       4.135335538431e-02       1.560462841022e+04 
       4.429361667738e-02       1.461039037578e+04 
       4.724366439141e-02       1.378052223317e+04 
       5.016480835311e-02       1.310507960985e+04 
       5.303989620246e-02       1.255715179635e+04 
       5.586870669566e-02       1.210425473239e+04 
       5.866042680613e-02       1.171463352561e+04 
       6.142798932958e-02       1.136047404750e+04 
       6.418496440164e-02       1.101858055369e+04 
       6.694418833788e-02       1.067069096463e+04 
       6.971731106057e-02       1.030358592570e+04 
       7.251476155766e-02       9.908996222476e+03 
       7.534587671527e-02       9.483786360636e+03 
       7.821907666265e-02       9.029499985936e+03 
       8.114203772912e-02       8.552344031443e+03 
       8.412184535029e-02       8.061962327300e+03 
       8.716512279304e-02       7.570780550904e+03 
       9.027813695930e-02       7.092520480143e+03 
       9.346688431697e-02       6.640506577304e+03 
       9.673716028276e-02       6.226695955127e+03 
       1.000946150830e-01       5.859935761801e+03 
       1.035447986537e-01       5.545241753910e+03 
       1.070931966762e-01       5.283132499635e+03 
       1.107452594425e-01       5.069424475743e+03 
       1.145064249153e-01       4.895246982228e+03 
       1.183821370918e-01       4.747841643273e+03 
       1.223778605862e-01       4.611738986358e+03 
       1.264990921987e-01       4.470617016393e+03 
       1.307513701367e-01       4.310272319206e+03 
       1.351402814784e-01       4.121389440795e+03 
       1.396714684203e-01       3.902064858345e+03 
       1.443506338194e-01       3.658643395379e+03 
       1.491835465229e-01       3.404483826964e+03 
       1.541760469708e-01       3.156677249984e+03 
       1.593340535561e-01       2.931976001945e+03 
       1.646635702297e-01       2.742374345748e+03 
       1.701706958456e-01       2.592263054382e+03 
       1.758616357459e-01       2.477238408385e+03 
       1.817427160982e-01       2.385182093180e+03 
       1.878204015065e-01       2.300359477018e+03 
       1.941013164283e-01       2.205757728620e+03 
       2.005922709503e-01       2.090815632493e+03 
       2.073002914972e-01       1.956464696133e+03 
       2.142326570816e-01       1.814191308620e+03 
       2.213969417533e-01       1.679298912247e+03 
       2.288010639706e-01       1.563852601744e+03 
       2.364533437147e-01       1.472687895447e+03 
       2.443625682930e-01       1.401513915246e+03 
       2.525380679504e-01       1.338413830264e+03 
       2.609898026346e-01       1.270903054203e+03 
       2.697284615565e-01       1.193383445202e+03 
       2.787655775689e-01       1.109338901697e+03 
       2.881136588829e-01       1.028769012286e+03 
       2.977863412677e-01       9.604847214368e+02 
       3.077985646929e-01       9.050245725772e+02 
       3.181667794071e-01       8.561458994785e+02 
       3.289091877812e-01       8.061900940774e+02 
       3.400460299658e-01       7.523930145863e+02 
       3.515999236474e-01       6.989254738316e+02 
       3.635962711085e-01       6.510637519115e+02 
       3.760637506334e-01       6.101220699368e+02 
       3.890349143879e-01       5.721325972246e+02 
       4.025469216825e-01       5.337832657729e+02 
       4.166424456376e-01       4.956329814620e+02 
       4.313708035863e-01       4.604703545629e+02 
       4.467893782977e-01       4.287776810957e+02 
       4.629654199664e-01       3.987742110877e+02 
       4.799783501994e-01       3.692417914316e+02 
       4.979227319373e-01       3.412414339977e+02 
       5.169121270864e-01       3.154847933100e+02 
       5.370841404489e-01       2.908359119807e+02 
       5.586070464571e-01       2.671068525591e+02 
       5.816885094930e-01       2.448106192331e+02 
       6.065870144995e-01       2.235680860800e+02 
       6.336266468475e-01       2.032107138714e+02 
       6.632156059511e-01       1.838793429918e+02 
       6.958678639263e-01       1.653548563355e+02 
       7.322247985589e-01       1.476953283033e+02 
       7.730680195114e-01       1.308337510279e+02 
       8.193049553677e-01       1.148314299662e+02 
       8.718988016039e-01       9.976295752943e+01 
       9.317218031082e-01       8.577812149220e+01 
       9.993660908989e-01       7.305497142003e+01 
       1.075037110174e+00       6.173623195880e+01 
       1.158653485707e+00       5.187929716556e+01 
       1.250099157308e+00       4.344030279012e+01 
       1.349432401273e+00       3.628965702089e+01 
       1.456947457397e+00       3.026814904516e+01 
       1.573135111331e+00       2.521460887949e+01 
       1.698621895592e+00       2.098211219057e+01 
       1.834127512934e+00       1.744245584674e+01 
       1.980444934528e+00       1.448570824533e+01 
       2.138435191726e+00       1.201903089617e+01 
       2.309029199186e+00       9.963186922692e+00 
       2.493232377687e+00       8.251895513349e+00 
       2.692130395285e+00       6.828634543326e+00 
       2.906895534573e+00       5.646303043951e+00 
       3.138793597714e+00       4.664965049575e+00 
       3.389191366484e+00       3.851146678267e+00 
       3.659564657905e+00       3.176946750406e+00 
       3.951507022538e+00       2.618898929347e+00 
       4.266739136701e+00       2.157357185216e+00 
       4.607118943941e+00       1.775950622099e+00 
       4.974652605557e+00       1.461001139230e+00 
       5.371506324689e+00       1.201146334957e+00 
       5.800019113685e+00       9.868864321707e-01 
       6.262716579983e+00       8.103596460090e-01 
       6.762325811764e+00       6.650169293768e-01 
       7.301791451110e+00       5.454292158393e-01 
       7.884293049406e+00       4.470999395476e-01 
       8.513263807261e+00       3.662998752601e-01 
       9.192410809424e+00       2.999448783529e-01 
       9.925736873929e+00       2.454810574984e-01 
       1.071756414427e+01       2.008101670610e-01 
       1.157255956364e+01       1.641852343820e-01 
       1.249576238137e+01       1.341788610339e-01 
       1.349261385375e+01       1.096038124685e-01 
       1.456898931416e+01       8.949010251315e-02 
       1.573123280165e+01       7.303405453382e-02 
       1.698619445202e+01       5.957850378170e-02 
       1.834127087176e+01       4.858135755669e-02 
       1.980444873285e+01       3.959731729759e-02 
       2.138435184532e+01       3.226147300977e-02 
       2.309029198506e+01       2.627357985707e-02 
       2.493232377636e+01       2.138842447055e-02 
       2.692130395282e+01       1.740488297686e-02 
       2.906895534573e+01       1.415746383300e-02 
       3.138793597714e+01       1.151146967814e-02 
       3.389191366484e+01       9.356115095770e-03 
       3.659564657905e+01       7.601275283710e-03 
       3.951507022538e+01       6.173113672944e-03 
       4.266739136701e+01       5.011158660966e-03 
       4.607118943941e+01       4.066257702290e-03 
       4.974652605557e+01       3.298018563002e-03 
       5.371506324689e+01       2.673749347001e-03 
       5.800019113685e+01       2.166601016781e-03 
       6.262716579983e+01       1.754758970881e-03 
       6.762325811764e+01       1.420485525154e-03 
