# Matter power spectrum P(k) at redshift z=99
# for k=1.04775e-05 to 67.6233 h/Mpc,
# number of wavenumbers equal to 246
#    1:k (h/Mpc)              2:P (Mpc/h)^3        
       1.047750691338e-05       7.261927673119e-03 
       1.131335172818e-05       7.820331745737e-03 
       1.221587619877e-05       8.421675986488e-03 
       1.319039970550e-05       9.069258192194e-03 
       1.424266598317e-05       9.766638404421e-03 
       1.537887697396e-05       1.051764069682e-02 
       1.660572938097e-05       1.132639105520e-02 
       1.793045413791e-05       1.219733231416e-02 
       1.936085902737e-05       1.313524224380e-02 
       2.090537469909e-05       1.414527121893e-02 
       2.257310435923e-05       1.523296272192e-02 
       2.437387742372e-05       1.640429444530e-02 
       2.631830745176e-05       1.766569582178e-02 
       2.841785470091e-05       1.902408601793e-02 
       3.068489367268e-05       2.048692970591e-02 
       3.313278604643e-05       2.206225513594e-02 
       3.577595943165e-05       2.375870704909e-02 
       3.862999240274e-05       2.558560727479e-02 
       4.171170631739e-05       2.755297763344e-02 
       4.503926445983e-05       2.967161927315e-02 
       4.863227909323e-05       3.195316450832e-02 
       5.251192705226e-05       3.441013519284e-02 
       5.670107455699e-05       3.705601722528e-02 
       6.122441198393e-05       3.990533413563e-02 
       6.610859938837e-05       4.297372168203e-02 
       7.138242363583e-05       4.627802141688e-02 
       7.707696806873e-05       4.983636194159e-02 
       8.322579570814e-05       5.366826847231e-02 
       8.986514707061e-05       5.779476394569e-02 
       9.703415376577e-05       6.223848243885e-02 
       1.047750691338e-04       6.702379865640e-02 
       1.131335172818e-04       7.217695153381e-02 
       1.221587619877e-04       7.772619073570e-02 
       1.319039970550e-04       8.370193432376e-02 
       1.424266598317e-04       9.013692507546e-02 
       1.537887697396e-04       9.706641242570e-02 
       1.660572938097e-04       1.045283354271e-01 
       1.793045413791e-04       1.125635349068e-01 
       1.936085902737e-04       1.212159614968e-01 
       2.090537469909e-04       1.305329132714e-01 
       2.257310435923e-04       1.405652846215e-01 
       2.437387742372e-04       1.513678302540e-01 
       2.631830745176e-04       1.629994504870e-01 
       2.841785470091e-04       1.755234921224e-01 
       3.068489367268e-04       1.890080670413e-01 
       3.313278604643e-04       2.035264002435e-01 
       3.577595943165e-04       2.191571803681e-01 
       3.862999240274e-04       2.359849437593e-01 
       4.171170631739e-04       2.541004741539e-01 
       4.503926445983e-04       2.736012080277e-01 
       4.863227909323e-04       2.945916790965e-01 
       5.251192705226e-04       3.171839525183e-01 
       5.670107455699e-04       3.414980764002e-01 
       6.122441198393e-04       3.676625413100e-01 
       6.610859938837e-04       3.958147252304e-01 
       7.138242363583e-04       4.261013284911e-01 
       7.707696806873e-04       4.586787792352e-01 
       8.322579570814e-04       4.937136001377e-01 
       8.986514707061e-04       5.313826801401e-01 
       9.703415376577e-04       5.718734972157e-01 
       1.047750691338e-03       6.153841629505e-01 
       1.131335172818e-03       6.621233239465e-01 
       1.221587619877e-03       7.123098220434e-01 
       1.319039970550e-03       7.661720584304e-01 
       1.424266598317e-03       8.239546297729e-01 
       1.537887697396e-03       8.859011173465e-01 
       1.660572938097e-03       9.522588006421e-01 
       1.793045413791e-03       1.023280099819e+00 
       1.936085902737e-03       1.099216304579e+00 
       2.090537469909e-03       1.180312990454e+00 
       2.257310435923e-03       1.266804115851e+00 
       2.437387742372e-03       1.358904853406e+00 
       2.631830745176e-03       1.456802683156e+00 
       2.841785470091e-03       1.560646890522e+00 
       3.068489367268e-03       1.670536062500e+00 
       3.313278604643e-03       1.786503852160e+00 
       3.577595943165e-03       1.908502930788e+00 
       3.862999240274e-03       2.036387730709e+00 
       4.171170631739e-03       2.169896177682e+00 
       4.503926445983e-03       2.308631878994e+00 
       4.863227909323e-03       2.452047290962e+00 
       5.251192705226e-03       2.599430628088e+00 
       5.670107455699e-03       2.749896931799e+00 
       6.122441198393e-03       2.902386513383e+00 
       6.610859938837e-03       3.055668713524e+00 
       7.138242363583e-03       3.208356461544e+00 
       7.707696806873e-03       3.358923893166e+00 
       8.322579570814e-03       3.505725595208e+00 
       8.986514707061e-03       3.647009256939e+00 
       9.703415376577e-03       3.780923304315e+00 
       1.047750691338e-02       3.905491589092e+00 
       1.131335172818e-02       4.018587641293e+00 
       1.221587619877e-02       4.117901582119e+00 
       1.319039970550e-02       4.200915401760e+00 
       1.424266598317e-02       4.264942461259e+00 
       1.537887697392e-02       4.307220359310e+00 
       1.660572938023e-02       4.325063808273e+00 
       1.793045412706e-02       4.316055428460e+00 
       1.936085890181e-02       4.278226841345e+00 
       2.090537352463e-02       4.210205851840e+00 
       2.257309535333e-02       4.111420894546e+00 
       2.437382002918e-02       3.982414808279e+00 
       2.631799944462e-02       3.825171138572e+00 
       2.841644545389e-02       3.643276831426e+00 
       3.067933355377e-02       3.442196946368e+00 
       3.311368470740e-02       3.229239591273e+00 
       3.571840443502e-02       3.013510587377e+00 
       3.847720348444e-02       2.805290187610e+00 
       4.135335538431e-02       2.614410167709e+00 
       4.429361667738e-02       2.448137575272e+00 
       4.724366439141e-02       2.309234747436e+00 
       5.016480835311e-02       2.196112163903e+00 
       5.303989620246e-02       2.104361925504e+00 
       5.586870669566e-02       2.028462656134e+00 
       5.866042680613e-02       1.963155865353e+00 
       6.142798932958e-02       1.903779898531e+00 
       6.418496440164e-02       1.846476483388e+00 
       6.694418833788e-02       1.788198066170e+00 
       6.971731106057e-02       1.726719178526e+00 
       7.251476155766e-02       1.660656228349e+00 
       7.534587671527e-02       1.589469393725e+00 
       7.821907666265e-02       1.513435578392e+00 
       8.114203772912e-02       1.433569448082e+00 
       8.412184535029e-02       1.351492560730e+00 
       8.716512279304e-02       1.269273394238e+00 
       9.027813695930e-02       1.189195254075e+00 
       9.346688431697e-02       1.113501436631e+00 
       9.673716028276e-02       1.044174900201e+00 
       1.000946150830e-01       9.827050835764e-01 
       1.035447986537e-01       9.299374510056e-01 
       1.070931966762e-01       8.859577752543e-01 
       1.107452594425e-01       8.500692485413e-01 
       1.145064249153e-01       8.208023014925e-01 
       1.183821370918e-01       7.960253249952e-01 
       1.223778605862e-01       7.731436721761e-01 
       1.264990921987e-01       7.494525383325e-01 
       1.307513701367e-01       7.225592245295e-01 
       1.351402814784e-01       6.909080876009e-01 
       1.396714684203e-01       6.541817165226e-01 
       1.443506338194e-01       6.134269781648e-01 
       1.491835465229e-01       5.708670218319e-01 
       1.541760469708e-01       5.293635857996e-01 
       1.593340535561e-01       4.917113449633e-01 
       1.646635702297e-01       4.599191429827e-01 
       1.701706958456e-01       4.347284913372e-01 
       1.758616357459e-01       4.154086944417e-01 
       1.817427160982e-01       3.999368161879e-01 
       1.878204015065e-01       3.856829755857e-01 
       1.941013164283e-01       3.698088182876e-01 
       2.005922709503e-01       3.505459898324e-01 
       2.073002914972e-01       3.280425078700e-01 
       2.142326570816e-01       3.042141560519e-01 
       2.213969417533e-01       2.816123127236e-01 
       2.288010639706e-01       2.622565670712e-01 
       2.364533437147e-01       2.469623469941e-01 
       2.443625682930e-01       2.350132955891e-01 
       2.525380679504e-01       2.244174422278e-01 
       2.609898026346e-01       2.130937792190e-01 
       2.697284615565e-01       2.001016031013e-01 
       2.787655775689e-01       1.860199790265e-01 
       2.881136588829e-01       1.725177040560e-01 
       2.977863412677e-01       1.610662170180e-01 
       3.077985646929e-01       1.517612392100e-01 
       3.181667794071e-01       1.435592086389e-01 
       3.289091877812e-01       1.351818896192e-01 
       3.400460299658e-01       1.261643426832e-01 
       3.515999236474e-01       1.172021167697e-01 
       3.635962711085e-01       1.091769891725e-01 
       3.760637506334e-01       1.023091854515e-01 
       3.890349143879e-01       9.593751474355e-02 
       4.025469216825e-01       8.950775765420e-02 
       4.166424456376e-01       8.311181972221e-02 
       4.313708035863e-01       7.721571042319e-02 
       4.467893782977e-01       7.190064481108e-02 
       4.629654199664e-01       6.686904882089e-02 
       4.799783501994e-01       6.191757138051e-02 
       4.979227319373e-01       5.722239782045e-02 
       5.169121270864e-01       5.290302632725e-02 
       5.370841404489e-01       4.876986700924e-02 
       5.586070464571e-01       4.479091220024e-02 
       5.816885094930e-01       4.105187376631e-02 
       6.065870144995e-01       3.748988450384e-02 
       6.336266468475e-01       3.407638253682e-02 
       6.632156059511e-01       3.083458785853e-02 
       6.958678639263e-01       2.772836050903e-02 
       7.322247985589e-01       2.476705817483e-02 
       7.730680195114e-01       2.193953774346e-02 
       8.193049553677e-01       1.925619061060e-02 
       8.718988016039e-01       1.672927618441e-02 
       9.317218031082e-01       1.438418722165e-02 
       9.993660908989e-01       1.225067379190e-02 
       1.075037110174e+00       1.035261823952e-02 
       1.158653485707e+00       8.699713306119e-03 
       1.250099157308e+00       7.284580176208e-03 
       1.349432401273e+00       6.085463223626e-03 
       1.456947457397e+00       5.075719151995e-03 
       1.573135111331e+00       4.228305226792e-03 
       1.698621895592e+00       3.518529938002e-03 
       1.834127512934e+00       2.924978135577e-03 
       1.980444934528e+00       2.429142096896e-03 
       2.138435191726e+00       2.015495260081e-03 
       2.309029199186e+00       1.670758139641e-03 
       2.493232377687e+00       1.383781536727e-03 
       2.692130395285e+00       1.145113624999e-03 
       2.906895534573e+00       9.468406958355e-04 
       3.138793597714e+00       7.822677340933e-04 
       3.389191366484e+00       6.458028837394e-04 
       3.659564657905e+00       5.327457043214e-04 
       3.951507022538e+00       4.391623084811e-04 
       4.266739136701e+00       3.617622506882e-04 
       4.607118943941e+00       2.978001409505e-04 
       4.974652605557e+00       2.449814583433e-04 
       5.371506324689e+00       2.014021058455e-04 
       5.800019113685e+00       1.654703878145e-04 
       6.262716579983e+00       1.358652358814e-04 
       6.762325811764e+00       1.114881082018e-04 
       7.301791451110e+00       9.143177079967e-05 
       7.884293049406e+00       7.493904646950e-05 
       8.513263807261e+00       6.138546531229e-05 
       9.192410809424e+00       5.025404814644e-05 
       9.925736873929e+00       4.111710526566e-05 
       1.071756414427e+01       3.362195058823e-05 
       1.157255956364e+01       2.747604550295e-05 
       1.249576238137e+01       2.243937102613e-05 
       1.349261385375e+01       1.831380269374e-05 
       1.456898931416e+01       1.493605641810e-05 
       1.573123280165e+01       1.217160610580e-05 
       1.698619445202e+01       9.910092567299e-06 
       1.834127087176e+01       8.060809201033e-06 
       1.980444873285e+01       6.548910060785e-06 
       2.138435184532e+01       5.313365711306e-06 
       2.309029198506e+01       4.303917099647e-06 
       2.493232377636e+01       3.479371236709e-06 
       2.692130395282e+01       2.806054394757e-06 
       2.906895534573e+01       2.256337928063e-06 
       3.138793597714e+01       1.807679652753e-06 
       3.389191366484e+01       1.441660087453e-06 
       3.659564657905e+01       1.143202289004e-06 
       3.951507022538e+01       9.000885174299e-07 
       4.266739136701e+01       7.023205892366e-07 
       4.607118943941e+01       5.418080311131e-07 
       4.974652605557e+01       4.119852669878e-07 
       5.371506324689e+01       3.075296994030e-07 
       5.800019113685e+01       2.241473903582e-07 
       6.262716579983e+01       1.583454687288e-07 
       6.762325811764e+01       1.072868045524e-07 
