# Matter power spectrum P(k) at redshift z=0
# for k=1.04775e-05 to 67.6233 h/Mpc,
# number of wavenumbers equal to 246
#    1:k (h/Mpc)              2:P (Mpc/h)^3        
       1.047750691338e-05       5.020964806750e+01 
       1.131335172818e-05       5.407048206553e+01 
       1.221587619877e-05       5.822819063990e+01 
       1.319039970550e-05       6.270562589672e+01 
       1.424266598317e-05       6.752731788102e+01 
       1.537887697396e-05       7.271977200258e+01 
       1.660572938097e-05       7.831147241541e+01 
       1.793045413791e-05       8.433311815128e+01 
       1.936085902737e-05       9.081778242446e+01 
       2.090537469909e-05       9.780108061340e+01 
       2.257310435923e-05       1.053213197032e+02 
       2.437387742372e-05       1.134197377001e+02 
       2.631830745176e-05       1.221408202816e+02 
       2.841785470091e-05       1.315324720916e+02 
       3.068489367268e-05       1.416462093730e+02 
       3.313278604643e-05       1.525374500691e+02 
       3.577595943165e-05       1.642660687078e+02 
       3.862999240274e-05       1.768963504868e+02 
       4.171170631739e-05       1.904975992460e+02 
       4.503926445983e-05       2.051444490305e+02 
       4.863227909323e-05       2.209171463752e+02 
       5.251192705226e-05       2.379022222314e+02 
       5.670107455699e-05       2.561927925496e+02 
       6.122441198393e-05       2.758890441791e+02 
       6.610859938837e-05       2.970989225465e+02 
       7.138242363583e-05       3.199385558200e+02 
       7.707696806873e-05       3.445329780878e+02 
       8.322579570814e-05       3.710167315928e+02 
       8.986514707061e-05       3.995346440954e+02 
       9.703415376577e-05       4.302425403884e+02 
       1.047750691338e-04       4.633080762974e+02 
       1.131335172818e-04       4.989116267507e+02 
       1.221587619877e-04       5.372471946561e+02 
       1.319039970550e-04       5.785234124637e+02 
       1.424266598317e-04       6.229645930980e+02 
       1.537887697396e-04       6.708118484951e+02 
       1.660572938097e-04       7.223242660220e+02 
       1.793045413791e-04       7.777801562918e+02 
       1.936085902737e-04       8.374783607334e+02 
       2.090537469909e-04       9.017396264495e+02 
       2.257310435923e-04       9.709080260152e+02 
       2.437387742372e-04       1.045352448644e+03 
       2.631830745176e-04       1.125468122836e+03 
       2.841785470091e-04       1.211678179510e+03 
       3.068489367268e-04       1.304435249091e+03 
       3.313278604643e-04       1.404223052541e+03 
       3.577595943165e-04       1.511558013390e+03 
       3.862999240274e-04       1.626990836475e+03 
       4.171170631739e-04       1.751108027370e+03 
       4.503926445983e-04       1.884533381345e+03 
       4.863227909323e-04       2.027929376470e+03 
       5.251192705226e-04       2.181998446367e+03 
       5.670107455699e-04       2.347484100857e+03 
       6.122441198393e-04       2.525171869335e+03 
       6.610859938837e-04       2.715889981401e+03 
       7.138242363583e-04       2.920509686081e+03 
       7.707696806873e-04       3.139945097710e+03 
       8.322579570814e-04       3.375152334395e+03 
       8.986514707061e-04       3.627127828230e+03 
       9.703415376577e-04       3.896905450014e+03 
       1.047750691338e-03       4.185552170947e+03 
       1.131335172818e-03       4.494162426788e+03 
       1.221587619877e-03       4.823850702670e+03 
       1.319039970550e-03       5.175742737661e+03 
       1.424266598317e-03       5.551019592514e+03 
       1.537887697396e-03       5.950788335873e+03 
       1.660572938097e-03       6.376123046758e+03 
       1.793045413791e-03       6.828073896106e+03 
       1.936085902737e-03       7.307625375370e+03 
       2.090537469909e-03       7.815671848978e+03 
       2.257310435923e-03       8.352990369367e+03 
       2.437387742372e-03       8.920211057501e+03 
       2.631830745176e-03       9.517783061847e+03 
       2.841785470091e-03       1.014593703666e+04 
       3.068489367268e-03       1.080464505726e+04 
       3.313278604643e-03       1.149357459535e+04 
       3.577595943165e-03       1.221203620815e+04 
       3.862999240274e-03       1.295892538491e+04 
       4.171170631739e-03       1.373266002568e+04 
       4.503926445983e-03       1.453111834573e+04 
       4.863227909323e-03       1.535154983436e+04 
       5.251192705226e-03       1.619063608754e+04 
       5.670107455699e-03       1.704431256333e+04 
       6.122441198393e-03       1.790755941172e+04 
       6.610859938837e-03       1.877460423950e+04 
       7.138242363583e-03       1.963872438009e+04 
       7.707696806873e-03       2.049215713017e+04 
       8.322579570814e-03       2.132607037171e+04 
       8.986514707061e-03       2.213055049839e+04 
       9.703415376577e-03       2.289445505538e+04 
       1.047750691338e-02       2.360548847363e+04 
       1.131335172818e-02       2.425022868535e+04 
       1.221587619877e-02       2.481423934664e+04 
       1.319039970550e-02       2.528218830392e+04 
       1.424266598317e-02       2.563814410413e+04 
       1.537887697392e-02       2.586606311342e+04 
       1.660572938023e-02       2.595030052285e+04 
       1.793045412706e-02       2.587635868781e+04 
       1.936085890181e-02       2.563217381913e+04 
       2.090537352463e-02       2.520934727814e+04 
       2.257309535333e-02       2.460447939748e+04 
       2.437382002918e-02       2.382089677524e+04 
       2.631799944462e-02       2.287033785550e+04 
       2.841644545389e-02       2.177447135796e+04 
       3.067933355377e-02       2.056554534204e+04 
       3.311368470740e-02       1.928729103701e+04 
       3.571840443502e-02       1.799396722137e+04 
       3.847720348444e-02       1.674682304513e+04 
       4.135335538431e-02       1.560457143051e+04 
       4.429361667738e-02       1.461030591465e+04 
       4.724366439141e-02       1.378052227101e+04 
       5.016480835311e-02       1.310500590529e+04 
       5.303989620246e-02       1.255715353372e+04 
       5.586870669566e-02       1.210421960770e+04 
       5.866042680613e-02       1.171470953950e+04 
       6.142798932958e-02       1.136055032094e+04 
       6.418496440164e-02       1.101859678493e+04 
       6.694418833788e-02       1.067071119672e+04 
       6.971731106057e-02       1.030362954189e+04 
       7.251476155766e-02       9.909058173364e+03 
       7.534587671527e-02       9.483738310631e+03 
       7.821907666265e-02       9.029471391826e+03 
       8.114203772912e-02       8.552333606668e+03 
       8.412184535029e-02       8.061991003555e+03 
       8.716512279304e-02       7.570792668890e+03 
       9.027813695930e-02       7.092493695320e+03 
       9.346688431697e-02       6.640527253807e+03 
       9.673716028276e-02       6.226736427580e+03 
       1.000946150830e-01       5.859982587905e+03 
       1.035447986537e-01       5.545297040939e+03 
       1.070931966762e-01       5.283156966427e+03 
       1.107452594425e-01       5.069443041978e+03 
       1.145064249153e-01       4.895256076157e+03 
       1.183821370918e-01       4.747854562617e+03 
       1.223778605862e-01       4.611741818275e+03 
       1.264990921987e-01       4.470615479252e+03 
       1.307513701367e-01       4.310282231522e+03 
       1.351402814784e-01       4.121380123209e+03 
       1.396714684203e-01       3.902070236112e+03 
       1.443506338194e-01       3.658652483610e+03 
       1.491835465229e-01       3.404482146264e+03 
       1.541760469708e-01       3.156662940577e+03 
       1.593340535561e-01       2.931938757351e+03 
       1.646635702297e-01       2.742355028969e+03 
       1.701706958456e-01       2.592237789833e+03 
       1.758616357459e-01       2.477221205755e+03 
       1.817427160982e-01       2.385162995490e+03 
       1.878204015065e-01       2.300352076382e+03 
       1.941013164283e-01       2.205775127288e+03 
       2.005922709503e-01       2.090830938837e+03 
       2.073002914972e-01       1.956466837188e+03 
       2.142326570816e-01       1.814179086930e+03 
       2.213969417533e-01       1.679271557436e+03 
       2.288010639706e-01       1.563836342502e+03 
       2.364533437147e-01       1.472670234006e+03 
       2.443625682930e-01       1.401506530675e+03 
       2.525380679504e-01       1.338417175864e+03 
       2.609898026346e-01       1.270898340828e+03 
       2.697284615565e-01       1.193358328141e+03 
       2.787655775689e-01       1.109332272961e+03 
       2.881136588829e-01       1.028763338967e+03 
       2.977863412677e-01       9.604718808426e+02 
       3.077985646929e-01       9.050155141283e+02 
       3.181667794071e-01       8.561304091101e+02 
       3.289091877812e-01       8.061808448645e+02 
       3.400460299658e-01       7.523838205635e+02 
       3.515999236474e-01       6.989116403170e+02 
       3.635962711085e-01       6.510501481631e+02 
       3.760637506334e-01       6.101097520877e+02 
       3.890349143879e-01       5.721226616093e+02 
       4.025469216825e-01       5.337722519088e+02 
       4.166424456376e-01       4.956248901351e+02 
       4.313708035863e-01       4.604614686258e+02 
       4.467893782977e-01       4.287727471334e+02 
       4.629654199664e-01       3.987674673286e+02 
       4.799783501994e-01       3.692363162902e+02 
       4.979227319373e-01       3.412319982680e+02 
       5.169121270864e-01       3.154750167886e+02 
       5.370841404489e-01       2.908299451032e+02 
       5.586070464571e-01       2.670982532239e+02 
       5.816885094930e-01       2.448014260776e+02 
       6.065870144995e-01       2.235612793413e+02 
       6.336266468475e-01       2.032048495345e+02 
       6.632156059511e-01       1.838721688371e+02 
       6.958678639263e-01       1.653478521041e+02 
       7.322247985589e-01       1.476885737803e+02 
       7.730680195114e-01       1.308259967365e+02 
       8.193049553677e-01       1.148230925453e+02 
       8.718988016039e-01       9.975344492078e+01 
       9.317218031082e-01       8.576875212321e+01 
       9.993660908989e-01       7.304435705303e+01 
       1.075037110174e+00       6.172450730967e+01 
       1.158653485707e+00       5.186674998364e+01 
       1.250099157308e+00       4.342662001690e+01 
       1.349432401273e+00       3.627443984189e+01 
       1.456947457397e+00       3.025149281698e+01 
       1.573135111331e+00       2.519630545392e+01 
       1.698621895592e+00       2.096210839191e+01 
       1.834127512934e+00       1.742058957195e+01 
       1.980444934528e+00       1.446166349820e+01 
       2.138435191726e+00       1.199268129670e+01 
       2.309029199186e+00       9.934365871015e+00 
       2.493232377687e+00       8.220312897336e+00 
       2.692130395285e+00       6.794169464608e+00 
       2.906895534573e+00       5.608648228079e+00 
       3.138793597714e+00       4.623887916540e+00 
       3.389191366484e+00       3.806487805129e+00 
       3.659564657905e+00       3.128453649542e+00 
       3.951507022538e+00       2.566307985025e+00 
       4.266739136701e+00       2.100464134755e+00 
       4.607118943941e+00       1.714545602879e+00 
       4.974652605557e+00       1.394932042669e+00 
       5.371506324689e+00       1.130261561870e+00 
       5.800019113685e+00       9.111406660925e-01 
       6.262716579983e+00       7.297695183278e-01 
       6.762325811764e+00       5.797110116173e-01 
       7.301791451110e+00       4.556736970732e-01 
       7.884293049406e+00       3.533266189226e-01 
       8.513263807261e+00       2.691464063266e-01 
       9.192410809424e+00       2.002862177197e-01 
       9.925736873929e+00       1.444636541472e-01 
       1.071756414427e+01       9.986001437198e-02 
       1.157255956364e+01       6.502133377484e-02 
       1.249576238137e+01       3.876074657150e-02 
       1.349261385375e+01       2.007516474506e-02 
       1.456898931416e+01       8.034766771026e-03 
       1.573123280165e+01       1.695151075234e-03 
       1.698619445202e+01       9.216990797418e-06 
       1.834127087176e+01       1.771673703929e-03 
       1.980444873285e+01       5.612752651384e-03 
       2.138435184532e+01       1.006805935341e-02 
       2.309029198506e+01       1.373393159554e-02 
       2.493232377636e+01       1.550525465536e-02 
       2.692130395282e+01       1.483319655313e-02 
       2.906895534573e+01       1.191660710461e-02 
       3.138793597714e+01       7.696108340908e-03 
       3.389191366484e+01       3.562224004940e-03 
       3.659564657905e+01       8.042188195476e-04 
       3.951507022538e+01       4.170387324797e-06 
       4.266739136701e+01       7.280279343472e-04 
       4.607118943941e+01       1.804136450705e-03 
       4.974652605557e+01       2.129148137054e-03 
       5.371506324689e+01       1.458194112130e-03 
       5.800019113685e+01       4.762484468794e-04 
       6.262716579983e+01       7.731378770980e-06 
       6.762325811764e+01       1.529295188139e-04 
