# Matter power spectrum P(k) at redshift z=99
# for k=1.04775e-05 to 67.6233 h/Mpc,
# number of wavenumbers equal to 246
#    1:k (h/Mpc)              2:P (Mpc/h)^3        
       1.047750691338e-05       7.261927673119e-03 
       1.131335172818e-05       7.820331745737e-03 
       1.221587619877e-05       8.421675986489e-03 
       1.319039970550e-05       9.069258192194e-03 
       1.424266598317e-05       9.766638404421e-03 
       1.537887697396e-05       1.051764069682e-02 
       1.660572938097e-05       1.132639105520e-02 
       1.793045413791e-05       1.219733231416e-02 
       1.936085902737e-05       1.313524224380e-02 
       2.090537469909e-05       1.414527121893e-02 
       2.257310435923e-05       1.523296272192e-02 
       2.437387742372e-05       1.640429444530e-02 
       2.631830745176e-05       1.766569582178e-02 
       2.841785470091e-05       1.902408601793e-02 
       3.068489367268e-05       2.048692970591e-02 
       3.313278604643e-05       2.206225513594e-02 
       3.577595943165e-05       2.375870704909e-02 
       3.862999240274e-05       2.558560727479e-02 
       4.171170631739e-05       2.755297763344e-02 
       4.503926445983e-05       2.967161927316e-02 
       4.863227909323e-05       3.195316450832e-02 
       5.251192705226e-05       3.441013519284e-02 
       5.670107455699e-05       3.705601722526e-02 
       6.122441198393e-05       3.990533413560e-02 
       6.610859938837e-05       4.297372168203e-02 
       7.138242363583e-05       4.627802141688e-02 
       7.707696806873e-05       4.983636194159e-02 
       8.322579570814e-05       5.366826847231e-02 
       8.986514707061e-05       5.779476394569e-02 
       9.703415376577e-05       6.223848243885e-02 
       1.047750691338e-04       6.702379865640e-02 
       1.131335172818e-04       7.217695153381e-02 
       1.221587619877e-04       7.772619073570e-02 
       1.319039970550e-04       8.370193432376e-02 
       1.424266598317e-04       9.013692507547e-02 
       1.537887697396e-04       9.706641242570e-02 
       1.660572938097e-04       1.045283354271e-01 
       1.793045413791e-04       1.125635349068e-01 
       1.936085902737e-04       1.212159614968e-01 
       2.090537469909e-04       1.305329132714e-01 
       2.257310435923e-04       1.405652846215e-01 
       2.437387742372e-04       1.513678302540e-01 
       2.631830745176e-04       1.629994504871e-01 
       2.841785470091e-04       1.755234921224e-01 
       3.068489367268e-04       1.890080670413e-01 
       3.313278604643e-04       2.035264002435e-01 
       3.577595943165e-04       2.191571803681e-01 
       3.862999240274e-04       2.359849437592e-01 
       4.171170631739e-04       2.541004741539e-01 
       4.503926445983e-04       2.736012080277e-01 
       4.863227909323e-04       2.945916790965e-01 
       5.251192705226e-04       3.171839525182e-01 
       5.670107455699e-04       3.414980764002e-01 
       6.122441198393e-04       3.676625413100e-01 
       6.610859938837e-04       3.958147252304e-01 
       7.138242363583e-04       4.261013284914e-01 
       7.707696806873e-04       4.586787792354e-01 
       8.322579570814e-04       4.937136001348e-01 
       8.986514707061e-04       5.313826801402e-01 
       9.703415376577e-04       5.718734972158e-01 
       1.047750691338e-03       6.153841629505e-01 
       1.131335172818e-03       6.621233239466e-01 
       1.221587619877e-03       7.123098220426e-01 
       1.319039970550e-03       7.661720584526e-01 
       1.424266598317e-03       8.239546297727e-01 
       1.537887697396e-03       8.859011173466e-01 
       1.660572938097e-03       9.522588006420e-01 
       1.793045413791e-03       1.023280099819e+00 
       1.936085902737e-03       1.099216304579e+00 
       2.090537469909e-03       1.180312990453e+00 
       2.257310435923e-03       1.266804115849e+00 
       2.437387742372e-03       1.358904853404e+00 
       2.631830745176e-03       1.456802683156e+00 
       2.841785470091e-03       1.560646890522e+00 
       3.068489367268e-03       1.670536062500e+00 
       3.313278604643e-03       1.786503852156e+00 
       3.577595943165e-03       1.908502930788e+00 
       3.862999240274e-03       2.036387730709e+00 
       4.171170631739e-03       2.169896178739e+00 
       4.503926445983e-03       2.308631878994e+00 
       4.863227909323e-03       2.452047290962e+00 
       5.251192705226e-03       2.599430628088e+00 
       5.670107455699e-03       2.749896931842e+00 
       6.122441198393e-03       2.902386513384e+00 
       6.610859938837e-03       3.055668697637e+00 
       7.138242363583e-03       3.208356461546e+00 
       7.707696806873e-03       3.358923892832e+00 
       8.322579570814e-03       3.505725595146e+00 
       8.986514707061e-03       3.647009655356e+00 
       9.703415376577e-03       3.780923304337e+00 
       1.047750691338e-02       3.905490815451e+00 
       1.131335172818e-02       4.018587641350e+00 
       1.221587619877e-02       4.117901582586e+00 
       1.319039970550e-02       4.200915389723e+00 
       1.424266598317e-02       4.264940057707e+00 
       1.537887697392e-02       4.307219297255e+00 
       1.660572938023e-02       4.325064051299e+00 
       1.793045412706e-02       4.316062197892e+00 
       1.936085890181e-02       4.278231229115e+00 
       2.090537352463e-02       4.210206016114e+00 
       2.257309535333e-02       4.111417500469e+00 
       2.437382002918e-02       3.982423683347e+00 
       2.631799944462e-02       3.825171299305e+00 
       2.841644545389e-02       3.643288827968e+00 
       3.067933355377e-02       3.442196165461e+00 
       3.311368470740e-02       3.229240871467e+00 
       3.571840443502e-02       3.013519731714e+00 
       3.847720348444e-02       2.805280363407e+00 
       4.135335538431e-02       2.614404000349e+00 
       4.429361667738e-02       2.448125882696e+00 
       4.724366439141e-02       2.309235784149e+00 
       5.016480835311e-02       2.196117359856e+00 
       5.303989620246e-02       2.104361983613e+00 
       5.586870669566e-02       2.028462648247e+00 
       5.866042680613e-02       1.963151836074e+00 
       6.142798932958e-02       1.903781951547e+00 
       6.418496440164e-02       1.846478248516e+00 
       6.694418833788e-02       1.788195426370e+00 
       6.971731106057e-02       1.726716542346e+00 
       7.251476155766e-02       1.660655951010e+00 
       7.534587671527e-02       1.589470540390e+00 
       7.821907666265e-02       1.513438007219e+00 
       8.114203772912e-02       1.433568148030e+00 
       8.412184535029e-02       1.351492962760e+00 
       8.716512279304e-02       1.269272938866e+00 
       9.027813695930e-02       1.189191436156e+00 
       9.346688431697e-02       1.113503120653e+00 
       9.673716028276e-02       1.044174691369e+00 
       1.000946150830e-01       9.827052798824e-01 
       1.035447986537e-01       9.299380747205e-01 
       1.070931966762e-01       8.859609357498e-01 
       1.107452594425e-01       8.500696285774e-01 
       1.145064249153e-01       8.208043876806e-01 
       1.183821370918e-01       7.960268073930e-01 
       1.223778605862e-01       7.731459830396e-01 
       1.264990921987e-01       7.494520231983e-01 
       1.307513701367e-01       7.225571572192e-01 
       1.351402814784e-01       6.909085921329e-01 
       1.396714684203e-01       6.541799068347e-01 
       1.443506338194e-01       6.134265805461e-01 
       1.491835465229e-01       5.708688569568e-01 
       1.541760469708e-01       5.293631116038e-01 
       1.593340535561e-01       4.917111535704e-01 
       1.646635702297e-01       4.599202039444e-01 
       1.701706958456e-01       4.347292901250e-01 
       1.758616357459e-01       4.154078789364e-01 
       1.817427160982e-01       3.999370415845e-01 
       1.878204015065e-01       3.856833856416e-01 
       1.941013164283e-01       3.698087850502e-01 
       2.005922709503e-01       3.505464535723e-01 
       2.073002914972e-01       3.280430997664e-01 
       2.142326570816e-01       3.042142702220e-01 
       2.213969417533e-01       2.816128607332e-01 
       2.288010639706e-01       2.622570744804e-01 
       2.364533437147e-01       2.469618969974e-01 
       2.443625682930e-01       2.350128257699e-01 
       2.525380679504e-01       2.244179436943e-01 
       2.609898026346e-01       2.130933276409e-01 
       2.697284615565e-01       2.001015180911e-01 
       2.787655775689e-01       1.860196816019e-01 
       2.881136588829e-01       1.725173259850e-01 
       2.977863412677e-01       1.610658667656e-01 
       3.077985646929e-01       1.517608614776e-01 
       3.181667794071e-01       1.435593696427e-01 
       3.289091877812e-01       1.351816831827e-01 
       3.400460299658e-01       1.261641768485e-01 
       3.515999236474e-01       1.172021061705e-01 
       3.635962711085e-01       1.091769217614e-01 
       3.760637506334e-01       1.023092660439e-01 
       3.890349143879e-01       9.593774185402e-02 
       4.025469216825e-01       8.950798160321e-02 
       4.166424456376e-01       8.311162637276e-02 
       4.313708035863e-01       7.721570926969e-02 
       4.467893782977e-01       7.190061011216e-02 
       4.629654199664e-01       6.686904933574e-02 
       4.799783501994e-01       6.191762110442e-02 
       4.979227319373e-01       5.722239068480e-02 
       5.169121270864e-01       5.290282879136e-02 
       5.370841404489e-01       4.876977336524e-02 
       5.586070464571e-01       4.479096286876e-02 
       5.816885094930e-01       4.105194380356e-02 
       6.065870144995e-01       3.748994349967e-02 
       6.336266468475e-01       3.407631894967e-02 
       6.632156059511e-01       3.083458380897e-02 
       6.958678639263e-01       2.772827166841e-02 
       7.322247985589e-01       2.476703482090e-02 
       7.730680195114e-01       2.193958222660e-02 
       8.193049553677e-01       1.925607978563e-02 
       8.718988016039e-01       1.672923474085e-02 
       9.317218031082e-01       1.438415188460e-02 
       9.993660908989e-01       1.225063254522e-02 
       1.075037110174e+00       1.035254994820e-02 
       1.158653485707e+00       8.699670825101e-03 
       1.250099157308e+00       7.284515984687e-03 
       1.349432401273e+00       6.085403499010e-03 
       1.456947457397e+00       5.075640381059e-03 
       1.573135111331e+00       4.228222640702e-03 
       1.698621895592e+00       3.518434442913e-03 
       1.834127512934e+00       2.924881162719e-03 
       1.980444934528e+00       2.429047988032e-03 
       2.138435191726e+00       2.015376571194e-03 
       2.309029199186e+00       1.670627167919e-03 
       2.493232377687e+00       1.383639139458e-03 
       2.692130395285e+00       1.144960362416e-03 
       2.906895534573e+00       9.466805221229e-04 
       3.138793597714e+00       7.820982011485e-04 
       3.389191366484e+00       6.456139679510e-04 
       3.659564657905e+00       5.325475350780e-04 
       3.951507022538e+00       4.389486911390e-04 
       4.266739136701e+00       3.615314396064e-04 
       4.607118943941e+00       2.975523290768e-04 
       4.974652605557e+00       2.447188063701e-04 
       5.371506324689e+00       2.011211653088e-04 
       5.800019113685e+00       1.651697858774e-04 
       6.262716579983e+00       1.355440781469e-04 
       6.762325811764e+00       1.111464836413e-04 
       7.301791451110e+00       9.106787202614e-05 
       7.884293049406e+00       7.455250444724e-05 
       8.513263807261e+00       6.097491513291e-05 
       9.192410809424e+00       4.982017182509e-05 
       9.925736873929e+00       4.065832848656e-05 
       1.071756414427e+01       3.313801371475e-05 
       1.157255956364e+01       2.696612591748e-05 
       1.249576238137e+01       2.190397987259e-05 
       1.349261385375e+01       1.775275686041e-05 
       1.456898931416e+01       1.435016894000e-05 
       1.573123280165e+01       1.156165538319e-05 
       1.698619445202e+01       9.277610436996e-06 
       1.834127087176e+01       7.407600942881e-06 
       1.980444873285e+01       5.877760630006e-06 
       2.138435184532e+01       4.627567143969e-06 
       2.309029198506e+01       3.607715605563e-06 
       2.493232377636e+01       2.777937356307e-06 
       2.692130395282e+01       2.105597470529e-06 
       2.906895534573e+01       1.564075167377e-06 
       3.138793597714e+01       1.131868681008e-06 
       3.389191366484e+01       7.914172223623e-07 
       3.659564657905e+01       5.283560574832e-07 
       3.951507022538e+01       3.307524315226e-07 
       4.266739136701e+01       1.883990125277e-07 
       4.607118943941e+01       9.230856627930e-08 
       4.974652605557e+01       3.419339278503e-08 
       5.371506324689e+01       6.102957390484e-09 
       5.800019113685e+01       2.388475638497e-10 
       6.262716579983e+01       8.932963468722e-09 
       6.762325811764e+01       2.486799160896e-08 
