# Matter power spectrum P(k) at redshift z=0
# for k=1.04775e-05 to 67.6233 h/Mpc,
# number of wavenumbers equal to 246
#    1:k (h/Mpc)              2:P (Mpc/h)^3        
       1.047750691338e-05       5.020964806750e+01 
       1.131335172818e-05       5.407048206553e+01 
       1.221587619877e-05       5.822819063576e+01 
       1.319039970550e-05       6.270562589672e+01 
       1.424266598317e-05       6.752731788102e+01 
       1.537887697396e-05       7.271977200258e+01 
       1.660572938097e-05       7.831147241542e+01 
       1.793045413791e-05       8.433311815128e+01 
       1.936085902737e-05       9.081778242446e+01 
       2.090537469909e-05       9.780108061341e+01 
       2.257310435923e-05       1.053213197032e+02 
       2.437387742372e-05       1.134197377001e+02 
       2.631830745176e-05       1.221408202816e+02 
       2.841785470091e-05       1.315324720916e+02 
       3.068489367268e-05       1.416462093730e+02 
       3.313278604643e-05       1.525374500691e+02 
       3.577595943165e-05       1.642660687078e+02 
       3.862999240274e-05       1.768963504868e+02 
       4.171170631739e-05       1.904975992460e+02 
       4.503926445983e-05       2.051444490305e+02 
       4.863227909323e-05       2.209171463752e+02 
       5.251192705226e-05       2.379022222314e+02 
       5.670107455699e-05       2.561927925743e+02 
       6.122441198393e-05       2.758890441791e+02 
       6.610859938837e-05       2.970989225465e+02 
       7.138242363583e-05       3.199385558200e+02 
       7.707696806873e-05       3.445329780878e+02 
       8.322579570814e-05       3.710167315928e+02 
       8.986514707061e-05       3.995346440954e+02 
       9.703415376577e-05       4.302425403884e+02 
       1.047750691338e-04       4.633080762974e+02 
       1.131335172818e-04       4.989116267507e+02 
       1.221587619877e-04       5.372471946561e+02 
       1.319039970550e-04       5.785234124633e+02 
       1.424266598317e-04       6.229645930980e+02 
       1.537887697396e-04       6.708118484951e+02 
       1.660572938097e-04       7.223242660220e+02 
       1.793045413791e-04       7.777801552752e+02 
       1.936085902737e-04       8.374783607333e+02 
       2.090537469909e-04       9.017396264495e+02 
       2.257310435923e-04       9.709080260152e+02 
       2.437387742372e-04       1.045352448644e+03 
       2.631830745176e-04       1.125468122836e+03 
       2.841785470091e-04       1.211678179511e+03 
       3.068489367268e-04       1.304435249091e+03 
       3.313278604643e-04       1.404223052541e+03 
       3.577595943165e-04       1.511558013390e+03 
       3.862999240274e-04       1.626990836420e+03 
       4.171170631739e-04       1.751108027369e+03 
       4.503926445983e-04       1.884533381345e+03 
       4.863227909323e-04       2.027929376471e+03 
       5.251192705226e-04       2.181998446367e+03 
       5.670107455699e-04       2.347484100857e+03 
       6.122441198393e-04       2.525171869336e+03 
       6.610859938837e-04       2.715889981400e+03 
       7.138242363583e-04       2.920509686090e+03 
       7.707696806873e-04       3.139945097711e+03 
       8.322579570814e-04       3.375152334397e+03 
       8.986514707061e-04       3.627127828231e+03 
       9.703415376577e-04       3.896905450016e+03 
       1.047750691338e-03       4.185552170958e+03 
       1.131335172818e-03       4.494162426791e+03 
       1.221587619877e-03       4.823850702664e+03 
       1.319039970550e-03       5.175742739630e+03 
       1.424266598317e-03       5.551019592523e+03 
       1.537887697396e-03       5.950788335884e+03 
       1.660572938097e-03       6.376123046808e+03 
       1.793045413791e-03       6.828073896114e+03 
       1.936085902737e-03       7.307625375386e+03 
       2.090537469909e-03       7.815671908392e+03 
       2.257310435923e-03       8.352990369401e+03 
       2.437387742372e-03       8.920211057541e+03 
       2.631830745176e-03       9.517783061890e+03 
       2.841785470091e-03       1.014593703671e+04 
       3.068489367268e-03       1.080464505739e+04 
       3.313278604643e-03       1.149357459459e+04 
       3.577595943165e-03       1.221203620826e+04 
       3.862999240274e-03       1.295892538505e+04 
       4.171170631739e-03       1.373265985480e+04 
       4.503926445983e-03       1.453111834595e+04 
       4.863227909323e-03       1.535154984227e+04 
       5.251192705226e-03       1.619063613434e+04 
       5.670107455699e-03       1.704431256591e+04 
       6.122441198393e-03       1.790755938456e+04 
       6.610859938837e-03       1.877460419793e+04 
       7.138242363583e-03       1.963872429099e+04 
       7.707696806873e-03       2.049215712477e+04 
       8.322579570814e-03       2.132607230537e+04 
       8.986514707061e-03       2.213055077795e+04 
       9.703415376577e-03       2.289445470803e+04 
       1.047750691338e-02       2.360549356954e+04 
       1.131335172818e-02       2.425023101479e+04 
       1.221587619877e-02       2.481423923160e+04 
       1.319039970550e-02       2.528218653337e+04 
       1.424266598317e-02       2.563814465862e+04 
       1.537887697392e-02       2.586607321677e+04 
       1.660572938023e-02       2.595026831679e+04 
       1.793045412706e-02       2.587634715146e+04 
       1.936085890181e-02       2.563222035058e+04 
       2.090537352463e-02       2.520936395030e+04 
       2.257309535333e-02       2.460447516377e+04 
       2.437382002918e-02       2.382086649259e+04 
       2.631799944462e-02       2.287039773595e+04 
       2.841644545389e-02       2.177452515373e+04 
       3.067933355377e-02       2.056554187126e+04 
       3.311368470740e-02       1.928725716021e+04 
       3.571840443502e-02       1.799405743398e+04 
       3.847720348444e-02       1.674687777245e+04 
       4.135335538431e-02       1.560462074632e+04 
       4.429361667738e-02       1.461048666712e+04 
       4.724366439141e-02       1.378055450986e+04 
       5.016480835311e-02       1.310505629853e+04 
       5.303989620246e-02       1.255715892019e+04 
       5.586870669566e-02       1.210424253765e+04 
       5.866042680613e-02       1.171465395646e+04 
       6.142798932958e-02       1.136048833721e+04 
       6.418496440164e-02       1.101855896082e+04 
       6.694418833788e-02       1.067072787065e+04 
       6.971731106057e-02       1.030358588129e+04 
       7.251476155766e-02       9.908999281598e+03 
       7.534587671527e-02       9.483772125498e+03 
       7.821907666265e-02       9.029499815290e+03 
       8.114203772912e-02       8.552325135258e+03 
       8.412184535029e-02       8.061958951722e+03 
       8.716512279304e-02       7.570780781846e+03 
       9.027813695930e-02       7.092497055630e+03 
       9.346688431697e-02       6.640520562231e+03 
       9.673716028276e-02       6.226701164886e+03 
       1.000946150830e-01       5.859935717904e+03 
       1.035447986537e-01       5.545260804338e+03 
       1.070931966762e-01       5.283131893788e+03 
       1.107452594425e-01       5.069421089384e+03 
       1.145064249153e-01       4.895238878548e+03 
       1.183821370918e-01       4.747837466124e+03 
       1.223778605862e-01       4.611733183628e+03 
       1.264990921987e-01       4.470623871151e+03 
       1.307513701367e-01       4.310279627549e+03 
       1.351402814784e-01       4.121390196301e+03 
       1.396714684203e-01       3.902062712819e+03 
       1.443506338194e-01       3.658636560628e+03 
       1.491835465229e-01       3.404488019948e+03 
       1.541760469708e-01       3.156668373282e+03 
       1.593340535561e-01       2.931974476390e+03 
       1.646635702297e-01       2.742378279344e+03 
       1.701706958456e-01       2.592259910808e+03 
       1.758616357459e-01       2.477237184122e+03 
       1.817427160982e-01       2.385187895467e+03 
       1.878204015065e-01       2.300364018470e+03 
       1.941013164283e-01       2.205756482926e+03 
       2.005922709503e-01       2.090818440258e+03 
       2.073002914972e-01       1.956464958831e+03 
       2.142326570816e-01       1.814196479454e+03 
       2.213969417533e-01       1.679295484935e+03 
       2.288010639706e-01       1.563847045344e+03 
       2.364533437147e-01       1.472685456711e+03 
       2.443625682930e-01       1.401511905574e+03 
       2.525380679504e-01       1.338414312538e+03 
       2.609898026346e-01       1.270902431470e+03 
       2.697284615565e-01       1.193386800281e+03 
       2.787655775689e-01       1.109335781255e+03 
       2.881136588829e-01       1.028771858163e+03 
       2.977863412677e-01       9.604826730700e+02 
       3.077985646929e-01       9.050254762402e+02 
       3.181667794071e-01       8.561452951797e+02 
       3.289091877812e-01       8.061867146371e+02 
       3.400460299658e-01       7.523911110584e+02 
       3.515999236474e-01       6.989220677499e+02 
       3.635962711085e-01       6.510629797907e+02 
       3.760637506334e-01       6.101233248805e+02 
       3.890349143879e-01       5.721307940640e+02 
       4.025469216825e-01       5.337804631795e+02 
       4.166424456376e-01       4.956322541739e+02 
       4.313708035863e-01       4.604692616768e+02 
       4.467893782977e-01       4.287761954329e+02 
       4.629654199664e-01       3.987742804529e+02 
       4.799783501994e-01       3.692424690049e+02 
       4.979227319373e-01       3.412404222333e+02 
       5.169121270864e-01       3.154836073404e+02 
       5.370841404489e-01       2.908355174592e+02 
       5.586070464571e-01       2.671067493797e+02 
       5.816885094930e-01       2.448101031506e+02 
       6.065870144995e-01       2.235680818586e+02 
       6.336266468475e-01       2.032105497648e+02 
       6.632156059511e-01       1.838796980781e+02 
       6.958678639263e-01       1.653550168165e+02 
       7.322247985589e-01       1.476957558425e+02 
       7.730680195114e-01       1.308337082301e+02 
       8.193049553677e-01       1.148310967646e+02 
       8.718988016039e-01       9.976270121459e+01 
       9.317218031082e-01       8.577827739476e+01 
       9.993660908989e-01       7.305483880137e+01 
       1.075037110174e+00       6.173619068582e+01 
       1.158653485707e+00       5.187929078170e+01 
       1.250099157308e+00       4.344041169099e+01 
       1.349432401273e+00       3.628949381740e+01 
       1.456947457397e+00       3.026802213196e+01 
       1.573135111331e+00       2.521456551462e+01 
       1.698621895592e+00       2.098190405917e+01 
       1.834127512934e+00       1.744239486048e+01 
       1.980444934528e+00       1.448568591182e+01 
       2.138435191726e+00       1.201895089086e+01 
       2.309029199186e+00       9.963250887345e+00 
       2.493232377687e+00       8.251840792420e+00 
       2.692130395285e+00       6.828630273828e+00 
       2.906895534573e+00       5.646249175549e+00 
       3.138793597714e+00       4.664890827604e+00 
       3.389191366484e+00       3.851105489086e+00 
       3.659564657905e+00       3.176917186800e+00 
       3.951507022538e+00       2.618879175586e+00 
       4.266739136701e+00       2.157342528131e+00 
       4.607118943941e+00       1.775937397261e+00 
       4.974652605557e+00       1.460995197755e+00 
       5.371506324689e+00       1.201123922022e+00 
       5.800019113685e+00       9.868792289435e-01 
       6.262716579983e+00       8.103545422281e-01 
       6.762325811764e+00       6.650094155824e-01 
       7.301791451110e+00       5.454252034326e-01 
       7.884293049406e+00       4.471030719668e-01 
       8.513263807261e+00       3.662959217560e-01 
       9.192410809424e+00       2.999379731486e-01 
       9.925736873929e+00       2.454784319423e-01 
       1.071756414427e+01       2.008080080971e-01 
       1.157255956364e+01       1.641836786322e-01 
       1.249576238137e+01       1.341767777822e-01 
       1.349261385375e+01       1.096024093938e-01 
       1.456898931416e+01       8.948868104831e-02 
       1.573123280165e+01       7.303261729128e-02 
       1.698619445202e+01       5.957779878328e-02 
       1.834127087176e+01       4.858059955916e-02 
       1.980444873285e+01       3.959645701674e-02 
       2.138435184532e+01       3.226022883626e-02 
       2.309029198506e+01       2.627267687518e-02 
       2.493232377636e+01       2.138769000603e-02 
       2.692130395282e+01       1.740398671779e-02 
       2.906895534573e+01       1.415656244677e-02 
       3.138793597714e+01       1.151040712413e-02 
       3.389191366484e+01       9.354976350274e-03 
       3.659564657905e+01       7.600247180580e-03 
       3.951507022538e+01       6.171997131785e-03 
       4.266739136701e+01       5.009968137351e-03 
       4.607118943941e+01       4.064940635337e-03 
       4.974652605557e+01       3.296687366210e-03 
       5.371506324689e+01       2.672352436634e-03 
       5.800019113685e+01       2.165121456443e-03 
       6.262716579983e+01       1.753209407261e-03 
       6.762325811764e+01       1.418853140335e-03 
