# Matter power spectrum P(k) at redshift z=99
# for k=1.04775e-05 to 67.6233 h/Mpc,
# number of wavenumbers equal to 246
#    1:k (h/Mpc)              2:P (Mpc/h)^3        
       1.047750691338e-05       7.261927673119e-03 
       1.131335172818e-05       7.820331745737e-03 
       1.221587619877e-05       8.421675986489e-03 
       1.319039970550e-05       9.069258192194e-03 
       1.424266598317e-05       9.766638404421e-03 
       1.537887697396e-05       1.051764069682e-02 
       1.660572938097e-05       1.132639105520e-02 
       1.793045413791e-05       1.219733231416e-02 
       1.936085902737e-05       1.313524224380e-02 
       2.090537469909e-05       1.414527121893e-02 
       2.257310435923e-05       1.523296272192e-02 
       2.437387742372e-05       1.640429444530e-02 
       2.631830745176e-05       1.766569582177e-02 
       2.841785470091e-05       1.902408601793e-02 
       3.068489367268e-05       2.048692970591e-02 
       3.313278604643e-05       2.206225513594e-02 
       3.577595943165e-05       2.375870704909e-02 
       3.862999240274e-05       2.558560727479e-02 
       4.171170631739e-05       2.755297763344e-02 
       4.503926445983e-05       2.967161927314e-02 
       4.863227909323e-05       3.195316450832e-02 
       5.251192705226e-05       3.441013519284e-02 
       5.670107455699e-05       3.705601722526e-02 
       6.122441198393e-05       3.990533413562e-02 
       6.610859938837e-05       4.297372168203e-02 
       7.138242363583e-05       4.627802141688e-02 
       7.707696806873e-05       4.983636194159e-02 
       8.322579570814e-05       5.366826847231e-02 
       8.986514707061e-05       5.779476394568e-02 
       9.703415376577e-05       6.223848243885e-02 
       1.047750691338e-04       6.702379865640e-02 
       1.131335172818e-04       7.217695153381e-02 
       1.221587619877e-04       7.772619073573e-02 
       1.319039970550e-04       8.370193432376e-02 
       1.424266598317e-04       9.013692507547e-02 
       1.537887697396e-04       9.706641242570e-02 
       1.660572938097e-04       1.045283354271e-01 
       1.793045413791e-04       1.125635349068e-01 
       1.936085902737e-04       1.212159614968e-01 
       2.090537469909e-04       1.305329132714e-01 
       2.257310435923e-04       1.405652846215e-01 
       2.437387742372e-04       1.513678302540e-01 
       2.631830745176e-04       1.629994504871e-01 
       2.841785470091e-04       1.755234921224e-01 
       3.068489367268e-04       1.890080670413e-01 
       3.313278604643e-04       2.035264002435e-01 
       3.577595943165e-04       2.191571803681e-01 
       3.862999240274e-04       2.359849437592e-01 
       4.171170631739e-04       2.541004741539e-01 
       4.503926445983e-04       2.736012080277e-01 
       4.863227909323e-04       2.945916790965e-01 
       5.251192705226e-04       3.171839525182e-01 
       5.670107455699e-04       3.414980764002e-01 
       6.122441198393e-04       3.676625413100e-01 
       6.610859938837e-04       3.958147252304e-01 
       7.138242363583e-04       4.261013284925e-01 
       7.707696806873e-04       4.586787792354e-01 
       8.322579570814e-04       4.937136001348e-01 
       8.986514707061e-04       5.313826801402e-01 
       9.703415376577e-04       5.718734972157e-01 
       1.047750691338e-03       6.153841629505e-01 
       1.131335172818e-03       6.621233239465e-01 
       1.221587619877e-03       7.123098220431e-01 
       1.319039970550e-03       7.661720584736e-01 
       1.424266598317e-03       8.239546297732e-01 
       1.537887697396e-03       8.859011173466e-01 
       1.660572938097e-03       9.522588006421e-01 
       1.793045413791e-03       1.023280099819e+00 
       1.936085902737e-03       1.099216304579e+00 
       2.090537469909e-03       1.180312990453e+00 
       2.257310435923e-03       1.266804115851e+00 
       2.437387742372e-03       1.358904853406e+00 
       2.631830745176e-03       1.456802683156e+00 
       2.841785470091e-03       1.560646890522e+00 
       3.068489367268e-03       1.670536062501e+00 
       3.313278604643e-03       1.786503852160e+00 
       3.577595943165e-03       1.908502930789e+00 
       3.862999240274e-03       2.036387730709e+00 
       4.171170631739e-03       2.169896178794e+00 
       4.503926445983e-03       2.308631878994e+00 
       4.863227909323e-03       2.452047290962e+00 
       5.251192705226e-03       2.599430628088e+00 
       5.670107455699e-03       2.749896931809e+00 
       6.122441198393e-03       2.902386513383e+00 
       6.610859938837e-03       3.055668699826e+00 
       7.138242363583e-03       3.208356461544e+00 
       7.707696806873e-03       3.358923893662e+00 
       8.322579570814e-03       3.505725595420e+00 
       8.986514707061e-03       3.647009649161e+00 
       9.703415376577e-03       3.780923304268e+00 
       1.047750691338e-02       3.905490956988e+00 
       1.131335172818e-02       4.018587641276e+00 
       1.221587619877e-02       4.117901586014e+00 
       1.319039970550e-02       4.200915313948e+00 
       1.424266598317e-02       4.264941419155e+00 
       1.537887697392e-02       4.307219274333e+00 
       1.660572938023e-02       4.325067848580e+00 
       1.793045412706e-02       4.316064078511e+00 
       1.936085890181e-02       4.278232237949e+00 
       2.090537352463e-02       4.210199209471e+00 
       2.257309535333e-02       4.111421618727e+00 
       2.437382002918e-02       3.982421825412e+00 
       2.631799944462e-02       3.825177841187e+00 
       2.841644545389e-02       3.643281679299e+00 
       3.067933355377e-02       3.442197664303e+00 
       3.311368470740e-02       3.229238116094e+00 
       3.571840443502e-02       3.013515252375e+00 
       3.847720348444e-02       2.805280317132e+00 
       4.135335538431e-02       2.614405824780e+00 
       4.429361667738e-02       2.448136351984e+00 
       4.724366439141e-02       2.309234540450e+00 
       5.016480835311e-02       2.196112850974e+00 
       5.303989620246e-02       2.104366327864e+00 
       5.586870669566e-02       2.028461725453e+00 
       5.866042680613e-02       1.963152304418e+00 
       6.142798932958e-02       1.903780015194e+00 
       6.418496440164e-02       1.846477975682e+00 
       6.694418833788e-02       1.788197178061e+00 
       6.971731106057e-02       1.726714411829e+00 
       7.251476155766e-02       1.660651336102e+00 
       7.534587671527e-02       1.589472082356e+00 
       7.821907666265e-02       1.513437898896e+00 
       8.114203772912e-02       1.433565925411e+00 
       8.412184535029e-02       1.351493289970e+00 
       8.716512279304e-02       1.269275832060e+00 
       9.027813695930e-02       1.189193514266e+00 
       9.346688431697e-02       1.113500086807e+00 
       9.673716028276e-02       1.044172679909e+00 
       1.000946150830e-01       9.827046840790e-01 
       1.035447986537e-01       9.299393324675e-01 
       1.070931966762e-01       8.859604880291e-01 
       1.107452594425e-01       8.500700713577e-01 
       1.145064249153e-01       8.208048675821e-01 
       1.183821370918e-01       7.960252819041e-01 
       1.223778605862e-01       7.731445938505e-01 
       1.264990921987e-01       7.494523915875e-01 
       1.307513701367e-01       7.225576813622e-01 
       1.351402814784e-01       6.909087523281e-01 
       1.396714684203e-01       6.541815234117e-01 
       1.443506338194e-01       6.134268014593e-01 
       1.491835465229e-01       5.708683892766e-01 
       1.541760469708e-01       5.293637021268e-01 
       1.593340535561e-01       4.917112235528e-01 
       1.646635702297e-01       4.599193197195e-01 
       1.701706958456e-01       4.347293021492e-01 
       1.758616357459e-01       4.154078520243e-01 
       1.817427160982e-01       3.999374235503e-01 
       1.878204015065e-01       3.856828273664e-01 
       1.941013164283e-01       3.698100029244e-01 
       2.005922709503e-01       3.505466495016e-01 
       2.073002914972e-01       3.280433044081e-01 
       2.142326570816e-01       3.042141970350e-01 
       2.213969417533e-01       2.816130051154e-01 
       2.288010639706e-01       2.622574465277e-01 
       2.364533437147e-01       2.469625759441e-01 
       2.443625682930e-01       2.350130804647e-01 
       2.525380679504e-01       2.244180997938e-01 
       2.609898026346e-01       2.130938884568e-01 
       2.697284615565e-01       2.001019835875e-01 
       2.787655775689e-01       1.860197118860e-01 
       2.881136588829e-01       1.725178682848e-01 
       2.977863412677e-01       1.610658430609e-01 
       3.077985646929e-01       1.517612092935e-01 
       3.181667794071e-01       1.435598083173e-01 
       3.289091877812e-01       1.351817496085e-01 
       3.400460299658e-01       1.261643988841e-01 
       3.515999236474e-01       1.172016964571e-01 
       3.635962711085e-01       1.091768151612e-01 
       3.760637506334e-01       1.023097372310e-01 
       3.890349143879e-01       9.593768004030e-02 
       4.025469216825e-01       8.950764994695e-02 
       4.166424456376e-01       8.311158153799e-02 
       4.313708035863e-01       7.721565454929e-02 
       4.467893782977e-01       7.190051515689e-02 
       4.629654199664e-01       6.686902208057e-02 
       4.799783501994e-01       6.191769355419e-02 
       4.979227319373e-01       5.722218424845e-02 
       5.169121270864e-01       5.290285373255e-02 
       5.370841404489e-01       4.876981468208e-02 
       5.586070464571e-01       4.479092152885e-02 
       5.816885094930e-01       4.105196878409e-02 
       6.065870144995e-01       3.749000508102e-02 
       6.336266468475e-01       3.407634144797e-02 
       6.632156059511e-01       3.083455151144e-02 
       6.958678639263e-01       2.772838437117e-02 
       7.322247985589e-01       2.476714249123e-02 
       7.730680195114e-01       2.193960702488e-02 
       8.193049553677e-01       1.925620331831e-02 
       8.718988016039e-01       1.672924442512e-02 
       9.317218031082e-01       1.438421165981e-02 
       9.993660908989e-01       1.225066920377e-02 
       1.075037110174e+00       1.035262376506e-02 
       1.158653485707e+00       8.699716375785e-03 
       1.250099157308e+00       7.284564350056e-03 
       1.349432401273e+00       6.085468916756e-03 
       1.456947457397e+00       5.075741238099e-03 
       1.573135111331e+00       4.228301046615e-03 
       1.698621895592e+00       3.518565788571e-03 
       1.834127512934e+00       2.924991232976e-03 
       1.980444934528e+00       2.429167370051e-03 
       2.138435191726e+00       2.015515436077e-03 
       2.309029199186e+00       1.670775927145e-03 
       2.493232377687e+00       1.383793337335e-03 
       2.692130395285e+00       1.145131861056e-03 
       2.906895534573e+00       9.468598411929e-04 
       3.138793597714e+00       7.822906708897e-04 
       3.389191366484e+00       6.458266844016e-04 
       3.659564657905e+00       5.327714860016e-04 
       3.951507022538e+00       4.391846153910e-04 
       4.266739136701e+00       3.617878179216e-04 
       4.607118943941e+00       2.978296490278e-04 
       4.974652605557e+00       2.450139561748e-04 
       5.371506324689e+00       2.014351679663e-04 
       5.800019113685e+00       1.655064252798e-04 
       6.262716579983e+00       1.359032290033e-04 
       6.762325811764e+00       1.115301198919e-04 
       7.301791451110e+00       9.147614988758e-05 
       7.884293049406e+00       7.498619438552e-05 
       8.513263807261e+00       6.143628403494e-05 
       9.192410809424e+00       5.030838041173e-05 
       9.925736873929e+00       4.117518031018e-05 
       1.071756414427e+01       3.368356660807e-05 
       1.157255956364e+01       2.754143634747e-05 
       1.249576238137e+01       2.250899818001e-05 
       1.349261385375e+01       1.838756349634e-05 
       1.456898931416e+01       1.501410812368e-05 
       1.573123280165e+01       1.225440032877e-05 
       1.698619445202e+01       9.997616795644e-06 
       1.834127087176e+01       8.153141092515e-06 
       1.980444873285e+01       6.646177229541e-06 
       2.138435184532e+01       5.415775449614e-06 
       2.309029198506e+01       4.411336543565e-06 
       2.493232377636e+01       3.591858866324e-06 
       2.692130395282e+01       2.923557143216e-06 
       2.906895534573e+01       2.378735507448e-06 
       3.138793597714e+01       1.934767090854e-06 
       3.389191366484e+01       1.573114296989e-06 
       3.659564657905e+01       1.278616831866e-06 
       3.951507022538e+01       1.038918698663e-06 
       4.266739136701e+01       8.438726374728e-07 
       4.607118943941e+01       6.852062944130e-07 
       4.974652605557e+01       5.562019875615e-07 
       5.371506324689e+01       4.513418967071e-07 
       5.800019113685e+01       3.661337326018e-07 
       6.262716579983e+01       2.969145573617e-07 
       6.762325811764e+01       2.407041780897e-07 
