# Matter power spectrum P(k) at redshift z=0
# for k=1.04775e-05 to 67.6233 h/Mpc,
# number of wavenumbers equal to 246
#    1:k (h/Mpc)              2:P (Mpc/h)^3        
       1.047750691338e-05       5.020964806750e+01 
       1.131335172818e-05       5.407048206553e+01 
       1.221587619877e-05       5.822819063888e+01 
       1.319039970550e-05       6.270562589681e+01 
       1.424266598317e-05       6.752731788102e+01 
       1.537887697396e-05       7.271977200257e+01 
       1.660572938097e-05       7.831147241542e+01 
       1.793045413791e-05       8.433311815128e+01 
       1.936085902737e-05       9.081778242446e+01 
       2.090537469909e-05       9.780108061340e+01 
       2.257310435923e-05       1.053213197032e+02 
       2.437387742372e-05       1.134197377001e+02 
       2.631830745176e-05       1.221408202816e+02 
       2.841785470091e-05       1.315324720916e+02 
       3.068489367268e-05       1.416462093729e+02 
       3.313278604643e-05       1.525374500691e+02 
       3.577595943165e-05       1.642660687078e+02 
       3.862999240274e-05       1.768963504868e+02 
       4.171170631739e-05       1.904975992460e+02 
       4.503926445983e-05       2.051444490305e+02 
       4.863227909323e-05       2.209171463752e+02 
       5.251192705226e-05       2.379022222314e+02 
       5.670107455699e-05       2.561927925527e+02 
       6.122441198393e-05       2.758890441791e+02 
       6.610859938837e-05       2.970989225465e+02 
       7.138242363583e-05       3.199385558200e+02 
       7.707696806873e-05       3.445329780878e+02 
       8.322579570814e-05       3.710167315928e+02 
       8.986514707061e-05       3.995346440954e+02 
       9.703415376577e-05       4.302425403884e+02 
       1.047750691338e-04       4.633080762974e+02 
       1.131335172818e-04       4.989116267507e+02 
       1.221587619877e-04       5.372471946561e+02 
       1.319039970550e-04       5.785234124632e+02 
       1.424266598317e-04       6.229645930980e+02 
       1.537887697396e-04       6.708118484951e+02 
       1.660572938097e-04       7.223242660220e+02 
       1.793045413791e-04       7.777801553557e+02 
       1.936085902737e-04       8.374783607333e+02 
       2.090537469909e-04       9.017396264495e+02 
       2.257310435923e-04       9.709080260152e+02 
       2.437387742372e-04       1.045352448644e+03 
       2.631830745176e-04       1.125468122835e+03 
       2.841785470091e-04       1.211678179511e+03 
       3.068489367268e-04       1.304435249091e+03 
       3.313278604643e-04       1.404223052541e+03 
       3.577595943165e-04       1.511558013390e+03 
       3.862999240274e-04       1.626990836508e+03 
       4.171170631739e-04       1.751108027370e+03 
       4.503926445983e-04       1.884533381345e+03 
       4.863227909323e-04       2.027929376471e+03 
       5.251192705226e-04       2.181998446367e+03 
       5.670107455699e-04       2.347484100857e+03 
       6.122441198393e-04       2.525171869337e+03 
       6.610859938837e-04       2.715889981400e+03 
       7.138242363583e-04       2.920509686086e+03 
       7.707696806873e-04       3.139945097711e+03 
       8.322579570814e-04       3.375152334397e+03 
       8.986514707061e-04       3.627127828230e+03 
       9.703415376577e-04       3.896905450016e+03 
       1.047750691338e-03       4.185552170957e+03 
       1.131335172818e-03       4.494162426791e+03 
       1.221587619877e-03       4.823850702663e+03 
       1.319039970550e-03       5.175742735160e+03 
       1.424266598317e-03       5.551019592523e+03 
       1.537887697396e-03       5.950788335882e+03 
       1.660572938097e-03       6.376123046811e+03 
       1.793045413791e-03       6.828073896113e+03 
       1.936085902737e-03       7.307625375386e+03 
       2.090537469909e-03       7.815671860201e+03 
       2.257310435923e-03       8.352990369404e+03 
       2.437387742372e-03       8.920211057548e+03 
       2.631830745176e-03       9.517783061890e+03 
       2.841785470091e-03       1.014593703671e+04 
       3.068489367268e-03       1.080464505735e+04 
       3.313278604643e-03       1.149357459508e+04 
       3.577595943165e-03       1.221203620827e+04 
       3.862999240274e-03       1.295892538505e+04 
       4.171170631739e-03       1.373266002000e+04 
       4.503926445983e-03       1.453111834595e+04 
       4.863227909323e-03       1.535154984227e+04 
       5.251192705226e-03       1.619063613436e+04 
       5.670107455699e-03       1.704431256590e+04 
       6.122441198393e-03       1.790755938455e+04 
       6.610859938837e-03       1.877460414562e+04 
       7.138242363583e-03       1.963872429096e+04 
       7.707696806873e-03       2.049215713404e+04 
       8.322579570814e-03       2.132606787579e+04 
       8.986514707061e-03       2.213055232598e+04 
       9.703415376577e-03       2.289445470782e+04 
       1.047750691338e-02       2.360547867266e+04 
       1.131335172818e-02       2.425023190182e+04 
       1.221587619877e-02       2.481423922045e+04 
       1.319039970550e-02       2.528218779018e+04 
       1.424266598317e-02       2.563814464949e+04 
       1.537887697392e-02       2.586607007378e+04 
       1.660572938023e-02       2.595026033139e+04 
       1.793045412706e-02       2.587634494082e+04 
       1.936085890181e-02       2.563220437584e+04 
       2.090537352463e-02       2.520934943581e+04 
       2.257309535333e-02       2.460447861950e+04 
       2.437382002918e-02       2.382089806955e+04 
       2.631799944462e-02       2.287041894656e+04 
       2.841644545389e-02       2.177446667504e+04 
       3.067933355377e-02       2.056562135129e+04 
       3.311368470740e-02       1.928730845119e+04 
       3.571840443502e-02       1.799401913154e+04 
       3.847720348444e-02       1.674685245544e+04 
       4.135335538431e-02       1.560456808089e+04 
       4.429361667738e-02       1.461038131871e+04 
       4.724366439141e-02       1.378051857136e+04 
       5.016480835311e-02       1.310506735367e+04 
       5.303989620246e-02       1.255715904098e+04 
       5.586870669566e-02       1.210428036678e+04 
       5.866042680613e-02       1.171464286327e+04 
       6.142798932958e-02       1.136049201812e+04 
       6.418496440164e-02       1.101857686368e+04 
       6.694418833788e-02       1.067069727683e+04 
       6.971731106057e-02       1.030358741142e+04 
       7.251476155766e-02       9.909003288528e+03 
       7.534587671527e-02       9.483776332554e+03 
       7.821907666265e-02       9.029506587773e+03 
       8.114203772912e-02       8.552338056711e+03 
       8.412184535029e-02       8.061949205770e+03 
       8.716512279304e-02       7.570774958889e+03 
       9.027813695930e-02       7.092497863683e+03 
       9.346688431697e-02       6.640516173357e+03 
       9.673716028276e-02       6.226704299462e+03 
       1.000946150830e-01       5.859938810930e+03 
       1.035447986537e-01       5.545240436018e+03 
       1.070931966762e-01       5.283132737217e+03 
       1.107452594425e-01       5.069420393257e+03 
       1.145064249153e-01       4.895243855765e+03 
       1.183821370918e-01       4.747841694658e+03 
       1.223778605862e-01       4.611746272833e+03 
       1.264990921987e-01       4.470618083901e+03 
       1.307513701367e-01       4.310273718842e+03 
       1.351402814784e-01       4.121395521058e+03 
       1.396714684203e-01       3.902074143942e+03 
       1.443506338194e-01       3.658638950751e+03 
       1.491835465229e-01       3.404486501667e+03 
       1.541760469708e-01       3.156664905706e+03 
       1.593340535561e-01       2.931980582241e+03 
       1.646635702297e-01       2.742374010499e+03 
       1.701706958456e-01       2.592259060944e+03 
       1.758616357459e-01       2.477238857829e+03 
       1.817427160982e-01       2.385178897980e+03 
       1.878204015065e-01       2.300360166152e+03 
       1.941013164283e-01       2.205759861998e+03 
       2.005922709503e-01       2.090811056067e+03 
       2.073002914972e-01       1.956467103612e+03 
       2.142326570816e-01       1.814195478323e+03 
       2.213969417533e-01       1.679297743066e+03 
       2.288010639706e-01       1.563850944327e+03 
       2.364533437147e-01       1.472684498859e+03 
       2.443625682930e-01       1.401513020069e+03 
       2.525380679504e-01       1.338415233043e+03 
       2.609898026346e-01       1.270899789847e+03 
       2.697284615565e-01       1.193380433831e+03 
       2.787655775689e-01       1.109340216007e+03 
       2.881136588829e-01       1.028771034814e+03 
       2.977863412677e-01       9.604833224984e+02 
       3.077985646929e-01       9.050249169521e+02 
       3.181667794071e-01       8.561447756250e+02 
       3.289091877812e-01       8.061889156984e+02 
       3.400460299658e-01       7.523916067572e+02 
       3.515999236474e-01       6.989236663806e+02 
       3.635962711085e-01       6.510630698925e+02 
       3.760637506334e-01       6.101236260269e+02 
       3.890349143879e-01       5.721339365446e+02 
       4.025469216825e-01       5.337833054209e+02 
       4.166424456376e-01       4.956314628907e+02 
       4.313708035863e-01       4.604699491894e+02 
       4.467893782977e-01       4.287771216222e+02 
       4.629654199664e-01       3.987736858614e+02 
       4.799783501994e-01       3.692429595506e+02 
       4.979227319373e-01       3.412404743204e+02 
       5.169121270864e-01       3.154845496822e+02 
       5.370841404489e-01       2.908356590042e+02 
       5.586070464571e-01       2.671069892339e+02 
       5.816885094930e-01       2.448099945597e+02 
       6.065870144995e-01       2.235678069380e+02 
       6.336266468475e-01       2.032103960051e+02 
       6.632156059511e-01       1.838796066985e+02 
       6.958678639263e-01       1.653551130087e+02 
       7.322247985589e-01       1.476960746850e+02 
       7.730680195114e-01       1.308343959728e+02 
       8.193049553677e-01       1.148313260802e+02 
       8.718988016039e-01       9.976302595781e+01 
       9.317218031082e-01       8.577809047407e+01 
       9.993660908989e-01       7.305523277466e+01 
       1.075037110174e+00       6.173621836344e+01 
       1.158653485707e+00       5.187945126233e+01 
       1.250099157308e+00       4.344042327385e+01 
       1.349432401273e+00       3.628952825042e+01 
       1.456947457397e+00       3.026807041395e+01 
       1.573135111331e+00       2.521462962876e+01 
       1.698621895592e+00       2.098208449972e+01 
       1.834127512934e+00       1.744240476382e+01 
       1.980444934528e+00       1.448574287728e+01 
       2.138435191726e+00       1.201891253512e+01 
       2.309029199186e+00       9.963210553117e+00 
       2.493232377687e+00       8.251810667434e+00 
       2.692130395285e+00       6.828629431177e+00 
       2.906895534573e+00       5.646225301425e+00 
       3.138793597714e+00       4.664890155845e+00 
       3.389191366484e+00       3.851127803770e+00 
       3.659564657905e+00       3.176955508597e+00 
       3.951507022538e+00       2.618884885921e+00 
       4.266739136701e+00       2.157340782985e+00 
       4.607118943941e+00       1.775938735258e+00 
       4.974652605557e+00       1.460989460202e+00 
       5.371506324689e+00       1.201134585268e+00 
       5.800019113685e+00       9.868751123450e-01 
       6.262716579983e+00       8.103518118008e-01 
       6.762325811764e+00       6.650160455397e-01 
       7.301791451110e+00       5.454264151971e-01 
       7.884293049406e+00       4.471022840807e-01 
       8.513263807261e+00       3.662976243992e-01 
       9.192410809424e+00       2.999403371626e-01 
       9.925736873929e+00       2.454819526856e-01 
       1.071756414427e+01       2.008082319594e-01 
       1.157255956364e+01       1.641842174987e-01 
       1.249576238137e+01       1.341770217932e-01 
       1.349261385375e+01       1.096032285320e-01 
       1.456898931416e+01       8.948942036847e-02 
       1.573123280165e+01       7.303413421627e-02 
       1.698619445202e+01       5.957832965000e-02 
       1.834127087176e+01       4.858101308099e-02 
       1.980444873285e+01       3.959714403489e-02 
       2.138435184532e+01       3.226114430116e-02 
       2.309029198506e+01       2.627344698416e-02 
       2.493232377636e+01       2.138849941579e-02 
       2.692130395282e+01       1.740470003004e-02 
       2.906895534573e+01       1.415729999017e-02 
       3.138793597714e+01       1.151131523535e-02 
       3.389191366484e+01       9.356060541093e-03 
       3.659564657905e+01       7.601283957244e-03 
       3.951507022538e+01       6.173113120355e-03 
       4.266739136701e+01       5.011089961278e-03 
       4.607118943941e+01       4.066172790386e-03 
       4.974652605557e+01       3.297964009796e-03 
       5.371506324689e+01       2.673712825701e-03 
       5.800019113685e+01       2.166565079434e-03 
       6.262716579983e+01       1.754725794613e-03 
       6.762325811764e+01       1.420442021059e-03 
