# Matter power spectrum P(k) at redshift z=0
# for k=1.04775e-05 to 67.6233 h/Mpc,
# number of wavenumbers equal to 246
#    1:k (h/Mpc)              2:P (Mpc/h)^3        
       1.047750691338e-05       5.020964806756e+01 
       1.131335172818e-05       5.407048206553e+01 
       1.221587619877e-05       5.822819063921e+01 
       1.319039970550e-05       6.270562589697e+01 
       1.424266598317e-05       6.752731788102e+01 
       1.537887697396e-05       7.271977200258e+01 
       1.660572938097e-05       7.831147241542e+01 
       1.793045413791e-05       8.433311815128e+01 
       1.936085902737e-05       9.081778242446e+01 
       2.090537469909e-05       9.780108061340e+01 
       2.257310435923e-05       1.053213197032e+02 
       2.437387742372e-05       1.134197377001e+02 
       2.631830745176e-05       1.221408202816e+02 
       2.841785470091e-05       1.315324720917e+02 
       3.068489367268e-05       1.416462093725e+02 
       3.313278604643e-05       1.525374500691e+02 
       3.577595943165e-05       1.642660687078e+02 
       3.862999240274e-05       1.768963504868e+02 
       4.171170631739e-05       1.904975992459e+02 
       4.503926445983e-05       2.051444490305e+02 
       4.863227909323e-05       2.209171463752e+02 
       5.251192705226e-05       2.379022222314e+02 
       5.670107455699e-05       2.561927925826e+02 
       6.122441198393e-05       2.758890441790e+02 
       6.610859938837e-05       2.970989225465e+02 
       7.138242363583e-05       3.199385558200e+02 
       7.707696806873e-05       3.445329780878e+02 
       8.322579570814e-05       3.710167315928e+02 
       8.986514707061e-05       3.995346440953e+02 
       9.703415376577e-05       4.302425403881e+02 
       1.047750691338e-04       4.633080762974e+02 
       1.131335172818e-04       4.989116267506e+02 
       1.221587619877e-04       5.372471946561e+02 
       1.319039970550e-04       5.785234124647e+02 
       1.424266598317e-04       6.229645930980e+02 
       1.537887697396e-04       6.708118484951e+02 
       1.660572938097e-04       7.223242660220e+02 
       1.793045413791e-04       7.777801553502e+02 
       1.936085902737e-04       8.374783607333e+02 
       2.090537469909e-04       9.017396264495e+02 
       2.257310435923e-04       9.709080260152e+02 
       2.437387742372e-04       1.045352448644e+03 
       2.631830745176e-04       1.125468122836e+03 
       2.841785470091e-04       1.211678179511e+03 
       3.068489367268e-04       1.304435249091e+03 
       3.313278604643e-04       1.404223052541e+03 
       3.577595943165e-04       1.511558013390e+03 
       3.862999240274e-04       1.626990836429e+03 
       4.171170631739e-04       1.751108027371e+03 
       4.503926445983e-04       1.884533381345e+03 
       4.863227909323e-04       2.027929376470e+03 
       5.251192705226e-04       2.181998446367e+03 
       5.670107455699e-04       2.347484100857e+03 
       6.122441198393e-04       2.525171869336e+03 
       6.610859938837e-04       2.715889981401e+03 
       7.138242363583e-04       2.920509686084e+03 
       7.707696806873e-04       3.139945097710e+03 
       8.322579570814e-04       3.375152334394e+03 
       8.986514707061e-04       3.627127828231e+03 
       9.703415376577e-04       3.896905450015e+03 
       1.047750691338e-03       4.185552170955e+03 
       1.131335172818e-03       4.494162426789e+03 
       1.221587619877e-03       4.823850702659e+03 
       1.319039970550e-03       5.175742738831e+03 
       1.424266598317e-03       5.551019592529e+03 
       1.537887697396e-03       5.950788335880e+03 
       1.660572938097e-03       6.376123046789e+03 
       1.793045413791e-03       6.828073896095e+03 
       1.936085902737e-03       7.307625375364e+03 
       2.090537469909e-03       7.815671862344e+03 
       2.257310435923e-03       8.352990369336e+03 
       2.437387742372e-03       8.920211057453e+03 
       2.631830745176e-03       9.517783061762e+03 
       2.841785470091e-03       1.014593703652e+04 
       3.068489367268e-03       1.080464505701e+04 
       3.313278604643e-03       1.149357459423e+04 
       3.577595943165e-03       1.221203620758e+04 
       3.862999240274e-03       1.295892538402e+04 
       4.171170631739e-03       1.373265985490e+04 
       4.503926445983e-03       1.453111834363e+04 
       4.863227909323e-03       1.535154983784e+04 
       5.251192705226e-03       1.619063612334e+04 
       5.670107455699e-03       1.704431255798e+04 
       6.122441198393e-03       1.790755937684e+04 
       6.610859938837e-03       1.877460358061e+04 
       7.138242363583e-03       1.963872427823e+04 
       7.707696806873e-03       2.049215708863e+04 
       8.322579570814e-03       2.132606961249e+04 
       8.986514707061e-03       2.213055190298e+04 
       9.703415376577e-03       2.289445464640e+04 
       1.047750691338e-02       2.360548385504e+04 
       1.131335172818e-02       2.425022909201e+04 
       1.221587619877e-02       2.481423781060e+04 
       1.319039970550e-02       2.528218823964e+04 
       1.424266598317e-02       2.563815905834e+04 
       1.537887697392e-02       2.586609092324e+04 
       1.660572938023e-02       2.595027920915e+04 
       1.793045412706e-02       2.587632930644e+04 
       1.936085890181e-02       2.563223175537e+04 
       2.090537352463e-02       2.520936253685e+04 
       2.257309535333e-02       2.460446410608e+04 
       2.437382002918e-02       2.382086531315e+04 
       2.631799944462e-02       2.287042582807e+04 
       2.841644545389e-02       2.177449949734e+04 
       3.067933355377e-02       2.056555026662e+04 
       3.311368470740e-02       1.928727633754e+04 
       3.571840443502e-02       1.799401533794e+04 
       3.847720348444e-02       1.674680612381e+04 
       4.135335538431e-02       1.560457102884e+04 
       4.429361667738e-02       1.461034207107e+04 
       4.724366439141e-02       1.378049495813e+04 
       5.016480835311e-02       1.310499170195e+04 
       5.303989620246e-02       1.255706960799e+04 
       5.586870669566e-02       1.210420051539e+04 
       5.866042680613e-02       1.171456282477e+04 
       6.142798932958e-02       1.136036824688e+04 
       6.418496440164e-02       1.101842635503e+04 
       6.694418833788e-02       1.067054829711e+04 
       6.971731106057e-02       1.030343209015e+04 
       7.251476155766e-02       9.908828546661e+03 
       7.534587671527e-02       9.483567103838e+03 
       7.821907666265e-02       9.029296218368e+03 
       8.114203772912e-02       8.552098738216e+03 
       8.412184535029e-02       8.061666521912e+03 
       8.716512279304e-02       7.570496239718e+03 
       9.027813695930e-02       7.092233266320e+03 
       9.346688431697e-02       6.640192232383e+03 
       9.673716028276e-02       6.226368295817e+03 
       1.000946150830e-01       5.859575685975e+03 
       1.035447986537e-01       5.544856794414e+03 
       1.070931966762e-01       5.282708917019e+03 
       1.107452594425e-01       5.068977480190e+03 
       1.145064249153e-01       4.894774811060e+03 
       1.183821370918e-01       4.747342502901e+03 
       1.223778605862e-01       4.611188312061e+03 
       1.264990921987e-01       4.470044506998e+03 
       1.307513701367e-01       4.309655648096e+03 
       1.351402814784e-01       4.120724996559e+03 
       1.396714684203e-01       3.901372072450e+03 
       1.443506338194e-01       3.657893652703e+03 
       1.491835465229e-01       3.403693642327e+03 
       1.541760469708e-01       3.155832095363e+03 
       1.593340535561e-01       2.931106269465e+03 
       1.646635702297e-01       2.741454886060e+03 
       1.701706958456e-01       2.591290141296e+03 
       1.758616357459e-01       2.476217932452e+03 
       1.817427160982e-01       2.384091838795e+03 
       1.878204015065e-01       2.299200644701e+03 
       1.941013164283e-01       2.204527595431e+03 
       2.005922709503e-01       2.089515341514e+03 
       2.073002914972e-01       1.955099884213e+03 
       2.142326570816e-01       1.812758367592e+03 
       2.213969417533e-01       1.677796529286e+03 
       2.288010639706e-01       1.562279700518e+03 
       2.364533437147e-01       1.471037862762e+03 
       2.443625682930e-01       1.399770620188e+03 
       2.525380679504e-01       1.336573436525e+03 
       2.609898026346e-01       1.268972692701e+03 
       2.697284615565e-01       1.191349031447e+03 
       2.787655775689e-01       1.107214252541e+03 
       2.881136588829e-01       1.026554351810e+03 
       2.977863412677e-01       9.581640777456e+02 
       3.077985646929e-01       9.025948657075e+02 
       3.181667794071e-01       8.535938489691e+02 
       3.289091877812e-01       8.035146625206e+02 
       3.400460299658e-01       7.495959033394e+02 
       3.515999236474e-01       6.960110638456e+02 
       3.635962711085e-01       6.480236321989e+02 
       3.760637506334e-01       6.069418021375e+02 
       3.890349143879e-01       5.688050533076e+02 
       4.025469216825e-01       5.303096144434e+02 
       4.166424456376e-01       4.920116221341e+02 
       4.313708035863e-01       4.566921805828e+02 
       4.467893782977e-01       4.248355513266e+02 
       4.629654199664e-01       3.946565456137e+02 
       4.799783501994e-01       3.649490175138e+02 
       4.979227319373e-01       3.367652730325e+02 
       5.169121270864e-01       3.108119344517e+02 
       5.370841404489e-01       2.859583749982e+02 
       5.586070464571e-01       2.620182972008e+02 
       5.816885094930e-01       2.394940356578e+02 
       6.065870144995e-01       2.180139828784e+02 
       6.336266468475e-01       1.974043606348e+02 
       6.632156059511e-01       1.778019979501e+02 
       6.958678639263e-01       1.589890300474e+02 
       7.322247985589e-01       1.410197599491e+02 
       7.730680195114e-01       1.238245077509e+02 
       8.193049553677e-01       1.074635632370e+02 
       8.718988016039e-01       9.201348399610e+01 
       9.317218031082e-01       7.762882002426e+01 
       9.993660908989e-01       6.449738427982e+01 
       1.075037110174e+00       5.277852535281e+01 
       1.158653485707e+00       4.254898932954e+01 
       1.250099157308e+00       3.378426930917e+01 
       1.349432401273e+00       2.637543294680e+01 
       1.456947457397e+00       2.018274652449e+01 
       1.573135111331e+00       1.506377980614e+01 
       1.698621895592e+00       1.088977105293e+01 
       1.834127512934e+00       7.548676932488e+00 
       1.980444934528e+00       4.942986066237e+00 
       2.138435191726e+00       2.985785658007e+00 
       2.309029199186e+00       1.595609226013e+00 
       2.493232377687e+00       6.920619663599e-01 
       2.692130395285e+00       1.920090597455e-01 
       2.906895534573e+00       7.590356099677e-03 
       3.138793597714e+00       4.641346055052e-02 
       3.389191366484e+00       2.146927425960e-01 
       3.659564657905e+00       4.235456956078e-01 
       3.951507022538e+00       5.977374904611e-01 
       4.266739136701e+00       6.854121609150e-01 
       4.607118943941e+00       6.656228721267e-01 
       4.974652605557e+00       5.504634939272e-01 
       5.371506324689e+00       3.794683030706e-01 
       5.800019113685e+00       2.051819432159e-01 
       6.262716579983e+00       7.401057227138e-02 
       6.762325811764e+00       9.055838131642e-03 
       7.301791451110e+00       3.120176862881e-03 
       7.884293049406e+00       2.649875870585e-02 
       8.513263807261e+00       4.608962065683e-02 
       9.192410809424e+00       4.446223890162e-02 
       9.925736873929e+00       2.619698589499e-02 
       1.071756414427e+01       7.669617307517e-03 
       1.157255956364e+01       1.534518745618e-04 
       1.249576238137e+01       1.762323383458e-03 
       1.349261385375e+01       4.018138216655e-03 
       1.456898931416e+01       2.829524842698e-03 
       1.573123280165e+01       6.114182754508e-04 
       1.698619445202e+01       1.376310934316e-05 
       1.834127087176e+01       3.339059727550e-04 
       1.980444873285e+01       2.609116471528e-04 
       2.138435184532e+01       2.558175327826e-05 
       2.309029198506e+01       1.661737384721e-05 
       2.493232377636e+01       3.101877616468e-05 
       2.692130395282e+01       3.218590445208e-06 
       2.906895534573e+01       2.077359264801e-06 
       3.138793597714e+01       1.983645249182e-06 
       3.389191366484e+01       6.978863057160e-09 
       3.659564657905e+01       3.348128511922e-07 
       3.951507022538e+01       8.483628639170e-09 
       4.266739136701e+01       2.441232390064e-08 
       4.607118943941e+01       2.270209370255e-11 
       4.974652605557e+01       4.378970003113e-09 
       5.371506324689e+01       3.057803378920e-11 
       5.800019113685e+01       2.791542466888e-11 
       6.262716579983e+01       2.718120906715e-10 
       6.762325811764e+01       4.747615368905e-11 
