# Matter power spectrum P(k) at redshift z=99
# for k=1.04775e-05 to 67.6233 h/Mpc,
# number of wavenumbers equal to 246
#    1:k (h/Mpc)              2:P (Mpc/h)^3        
       1.047750691338e-05       7.261927673119e-03 
       1.131335172818e-05       7.820331745737e-03 
       1.221587619877e-05       8.421675986489e-03 
       1.319039970550e-05       9.069258192194e-03 
       1.424266598317e-05       9.766638404421e-03 
       1.537887697396e-05       1.051764069682e-02 
       1.660572938097e-05       1.132639105520e-02 
       1.793045413791e-05       1.219733231416e-02 
       1.936085902737e-05       1.313524224380e-02 
       2.090537469909e-05       1.414527121893e-02 
       2.257310435923e-05       1.523296272192e-02 
       2.437387742372e-05       1.640429444530e-02 
       2.631830745176e-05       1.766569582177e-02 
       2.841785470091e-05       1.902408601793e-02 
       3.068489367268e-05       2.048692970591e-02 
       3.313278604643e-05       2.206225513594e-02 
       3.577595943165e-05       2.375870704909e-02 
       3.862999240274e-05       2.558560727479e-02 
       4.171170631739e-05       2.755297763344e-02 
       4.503926445983e-05       2.967161927315e-02 
       4.863227909323e-05       3.195316450832e-02 
       5.251192705226e-05       3.441013519284e-02 
       5.670107455699e-05       3.705601722527e-02 
       6.122441198393e-05       3.990533413562e-02 
       6.610859938837e-05       4.297372168203e-02 
       7.138242363583e-05       4.627802141688e-02 
       7.707696806873e-05       4.983636194159e-02 
       8.322579570814e-05       5.366826847231e-02 
       8.986514707061e-05       5.779476394569e-02 
       9.703415376577e-05       6.223848243885e-02 
       1.047750691338e-04       6.702379865640e-02 
       1.131335172818e-04       7.217695153381e-02 
       1.221587619877e-04       7.772619073571e-02 
       1.319039970550e-04       8.370193432376e-02 
       1.424266598317e-04       9.013692507547e-02 
       1.537887697396e-04       9.706641242570e-02 
       1.660572938097e-04       1.045283354271e-01 
       1.793045413791e-04       1.125635349068e-01 
       1.936085902737e-04       1.212159614968e-01 
       2.090537469909e-04       1.305329132714e-01 
       2.257310435923e-04       1.405652846215e-01 
       2.437387742372e-04       1.513678302540e-01 
       2.631830745176e-04       1.629994504870e-01 
       2.841785470091e-04       1.755234921224e-01 
       3.068489367268e-04       1.890080670413e-01 
       3.313278604643e-04       2.035264002435e-01 
       3.577595943165e-04       2.191571803681e-01 
       3.862999240274e-04       2.359849437592e-01 
       4.171170631739e-04       2.541004741539e-01 
       4.503926445983e-04       2.736012080278e-01 
       4.863227909323e-04       2.945916790965e-01 
       5.251192705226e-04       3.171839525183e-01 
       5.670107455699e-04       3.414980764002e-01 
       6.122441198393e-04       3.676625413100e-01 
       6.610859938837e-04       3.958147252304e-01 
       7.138242363583e-04       4.261013284925e-01 
       7.707696806873e-04       4.586787792354e-01 
       8.322579570814e-04       4.937136001346e-01 
       8.986514707061e-04       5.313826801401e-01 
       9.703415376577e-04       5.718734972157e-01 
       1.047750691338e-03       6.153841629505e-01 
       1.131335172818e-03       6.621233239465e-01 
       1.221587619877e-03       7.123098220429e-01 
       1.319039970550e-03       7.661720584402e-01 
       1.424266598317e-03       8.239546297727e-01 
       1.537887697396e-03       8.859011173466e-01 
       1.660572938097e-03       9.522588006420e-01 
       1.793045413791e-03       1.023280099819e+00 
       1.936085902737e-03       1.099216304579e+00 
       2.090537469909e-03       1.180312990453e+00 
       2.257310435923e-03       1.266804115850e+00 
       2.437387742372e-03       1.358904853406e+00 
       2.631830745176e-03       1.456802683156e+00 
       2.841785470091e-03       1.560646890522e+00 
       3.068489367268e-03       1.670536062500e+00 
       3.313278604643e-03       1.786503852160e+00 
       3.577595943165e-03       1.908502930787e+00 
       3.862999240274e-03       2.036387730709e+00 
       4.171170631739e-03       2.169896177027e+00 
       4.503926445983e-03       2.308631878994e+00 
       4.863227909323e-03       2.452047290962e+00 
       5.251192705226e-03       2.599430628088e+00 
       5.670107455699e-03       2.749896931868e+00 
       6.122441198393e-03       2.902386513386e+00 
       6.610859938837e-03       3.055668687877e+00 
       7.138242363583e-03       3.208356461547e+00 
       7.707696806873e-03       3.358923892666e+00 
       8.322579570814e-03       3.505725595342e+00 
       8.986514707061e-03       3.647009932738e+00 
       9.703415376577e-03       3.780923304286e+00 
       1.047750691338e-02       3.905491317557e+00 
       1.131335172818e-02       4.018588272595e+00 
       1.221587619877e-02       4.117901325774e+00 
       1.319039970550e-02       4.200915332986e+00 
       1.424266598317e-02       4.264942288190e+00 
       1.537887697392e-02       4.307219556195e+00 
       1.660572938023e-02       4.325060487587e+00 
       1.793045412706e-02       4.316056180006e+00 
       1.936085890181e-02       4.278227481420e+00 
       2.090537352463e-02       4.210200555711e+00 
       2.257309535333e-02       4.111420009796e+00 
       2.437382002918e-02       3.982422694716e+00 
       2.631799944462e-02       3.825168148075e+00 
       2.841644545389e-02       3.643281964267e+00 
       3.067933355377e-02       3.442190966067e+00 
       3.311368470740e-02       3.229230680813e+00 
       3.571840443502e-02       3.013507840278e+00 
       3.847720348444e-02       2.805282844728e+00 
       4.135335538431e-02       2.614411153038e+00 
       4.429361667738e-02       2.448136540919e+00 
       4.724366439141e-02       2.309235681243e+00 
       5.016480835311e-02       2.196114218616e+00 
       5.303989620246e-02       2.104372226468e+00 
       5.586870669566e-02       2.028463519555e+00 
       5.866042680613e-02       1.963158318403e+00 
       6.142798932958e-02       1.903780709728e+00 
       6.418496440164e-02       1.846480428907e+00 
       6.694418833788e-02       1.788199785820e+00 
       6.971731106057e-02       1.726713725097e+00 
       7.251476155766e-02       1.660654251895e+00 
       7.534587671527e-02       1.589469699881e+00 
       7.821907666265e-02       1.513439489535e+00 
       8.114203772912e-02       1.433569929319e+00 
       8.412184535029e-02       1.351492899565e+00 
       8.716512279304e-02       1.269276062424e+00 
       9.027813695930e-02       1.189194512217e+00 
       9.346688431697e-02       1.113501128475e+00 
       9.673716028276e-02       1.044175200846e+00 
       1.000946150830e-01       9.827072097353e-01 
       1.035447986537e-01       9.299362499715e-01 
       1.070931966762e-01       8.859576813251e-01 
       1.107452594425e-01       8.500702355402e-01 
       1.145064249153e-01       8.208015895278e-01 
       1.183821370918e-01       7.960265853968e-01 
       1.223778605862e-01       7.731466861629e-01 
       1.264990921987e-01       7.494528234089e-01 
       1.307513701367e-01       7.225580735326e-01 
       1.351402814784e-01       6.909086842061e-01 
       1.396714684203e-01       6.541811723668e-01 
       1.443506338194e-01       6.134271556925e-01 
       1.491835465229e-01       5.708676707130e-01 
       1.541760469708e-01       5.293632584815e-01 
       1.593340535561e-01       4.917108052271e-01 
       1.646635702297e-01       4.599209902714e-01 
       1.701706958456e-01       4.347280651441e-01 
       1.758616357459e-01       4.154086453399e-01 
       1.817427160982e-01       3.999373918348e-01 
       1.878204015065e-01       3.856833564771e-01 
       1.941013164283e-01       3.698100107219e-01 
       2.005922709503e-01       3.505465677764e-01 
       2.073002914972e-01       3.280428399045e-01 
       2.142326570816e-01       3.042143369292e-01 
       2.213969417533e-01       2.816124260620e-01 
       2.288010639706e-01       2.622571947467e-01 
       2.364533437147e-01       2.469621840189e-01 
       2.443625682930e-01       2.350129634070e-01 
       2.525380679504e-01       2.244181922018e-01 
       2.609898026346e-01       2.130933637245e-01 
       2.697284615565e-01       2.001014852047e-01 
       2.787655775689e-01       1.860201393036e-01 
       2.881136588829e-01       1.725169399873e-01 
       2.977863412677e-01       1.610662437887e-01 
       3.077985646929e-01       1.517607083522e-01 
       3.181667794071e-01       1.435594216155e-01 
       3.289091877812e-01       1.351813333414e-01 
       3.400460299658e-01       1.261641804143e-01 
       3.515999236474e-01       1.172018755750e-01 
       3.635962711085e-01       1.091765944828e-01 
       3.760637506334e-01       1.023095513308e-01 
       3.890349143879e-01       9.593772666100e-02 
       4.025469216825e-01       8.950761150653e-02 
       4.166424456376e-01       8.311188014786e-02 
       4.313708035863e-01       7.721545588148e-02 
       4.467893782977e-01       7.190078808790e-02 
       4.629654199664e-01       6.686935002308e-02 
       4.799783501994e-01       6.191743410855e-02 
       4.979227319373e-01       5.722228693746e-02 
       5.169121270864e-01       5.290290952706e-02 
       5.370841404489e-01       4.876977799489e-02 
       5.586070464571e-01       4.479080694547e-02 
       5.816885094930e-01       4.105183600889e-02 
       6.065870144995e-01       3.748991127785e-02 
       6.336266468475e-01       3.407630267917e-02 
       6.632156059511e-01       3.083464233824e-02 
       6.958678639263e-01       2.772832211739e-02 
       7.322247985589e-01       2.476713107327e-02 
       7.730680195114e-01       2.193951410692e-02 
       8.193049553677e-01       1.925608582131e-02 
       8.718988016039e-01       1.672929260954e-02 
       9.317218031082e-01       1.438421580604e-02 
       9.993660908989e-01       1.225061797855e-02 
       1.075037110174e+00       1.035262078265e-02 
       1.158653485707e+00       8.699754907049e-03 
       1.250099157308e+00       7.284606950188e-03 
       1.349432401273e+00       6.085472185180e-03 
       1.456947457397e+00       5.075736332653e-03 
       1.573135111331e+00       4.228314702116e-03 
       1.698621895592e+00       3.518558397019e-03 
       1.834127512934e+00       2.924989130244e-03 
       1.980444934528e+00       2.429162455393e-03 
       2.138435191726e+00       2.015517596510e-03 
       2.309029199186e+00       1.670772589828e-03 
       2.493232377687e+00       1.383797022661e-03 
       2.692130395285e+00       1.145133877335e-03 
       2.906895534573e+00       9.468634730618e-04 
       3.138793597714e+00       7.822900287690e-04 
       3.389191366484e+00       6.458259814367e-04 
       3.659564657905e+00       5.327691861851e-04 
       3.951507022538e+00       4.391872995980e-04 
       4.266739136701e+00       3.617913311188e-04 
       4.607118943941e+00       2.978296316574e-04 
       4.974652605557e+00       2.450126973928e-04 
       5.371506324689e+00       2.014364690818e-04 
       5.800019113685e+00       1.655075688046e-04 
       6.262716579983e+00       1.359042027461e-04 
       6.762325811764e+00       1.115303195746e-04 
       7.301791451110e+00       9.147596592985e-05 
       7.884293049406e+00       7.498651505647e-05 
       8.513263807261e+00       6.143630716881e-05 
       9.192410809424e+00       5.030803097117e-05 
       9.925736873929e+00       4.117500204785e-05 
       1.071756414427e+01       3.368346604650e-05 
       1.157255956364e+01       2.754154270985e-05 
       1.249576238137e+01       2.250897649183e-05 
       1.349261385375e+01       1.838779372276e-05 
       1.456898931416e+01       1.501403218883e-05 
       1.573123280165e+01       1.225437221464e-05 
       1.698619445202e+01       9.997658319240e-06 
       1.834127087176e+01       8.153074796870e-06 
       1.980444873285e+01       6.646297551852e-06 
       2.138435184532e+01       5.415717915088e-06 
       2.309029198506e+01       4.411364792182e-06 
       2.493232377636e+01       3.591852438599e-06 
       2.692130395282e+01       2.923568997714e-06 
       2.906895534573e+01       2.378733942435e-06 
       3.138793597714e+01       1.934762012785e-06 
       3.389191366484e+01       1.573122084991e-06 
       3.659564657905e+01       1.278630375554e-06 
       3.951507022538e+01       1.038911420853e-06 
       4.266739136701e+01       8.438617360038e-07 
       4.607118943941e+01       6.852074584109e-07 
       4.974652605557e+01       5.562034450493e-07 
       5.371506324689e+01       4.513391867973e-07 
       5.800019113685e+01       3.661307766628e-07 
       6.262716579983e+01       2.969134414852e-07 
       6.762325811764e+01       2.407035305731e-07 
