# Matter power spectrum P(k) at redshift z=99
# for k=1.04775e-05 to 67.6233 h/Mpc,
# number of wavenumbers equal to 246
#    1:k (h/Mpc)              2:P (Mpc/h)^3        
       1.047750691338e-05       7.261927675645e-03 
       1.131335172818e-05       7.820331748459e-03 
       1.221587619877e-05       8.421675989436e-03 
       1.319039970550e-05       9.069258195356e-03 
       1.424266598317e-05       9.766638407821e-03 
       1.537887697396e-05       1.051764070045e-02 
       1.660572938097e-05       1.132639105911e-02 
       1.793045413791e-05       1.219733231841e-02 
       1.936085902737e-05       1.313524224838e-02 
       2.090537469909e-05       1.414527122386e-02 
       2.257310435923e-05       1.523296272722e-02 
       2.437387742372e-05       1.640429445103e-02 
       2.631830745176e-05       1.766569567901e-02 
       2.841785470091e-05       1.902408602386e-02 
       3.068489367268e-05       2.048692971309e-02 
       3.313278604643e-05       2.206225514357e-02 
       3.577595943165e-05       2.375870705721e-02 
       3.862999240274e-05       2.558560728368e-02 
       4.171170631739e-05       2.755297764301e-02 
       4.503926445983e-05       2.967161928386e-02 
       4.863227909323e-05       3.195316451948e-02 
       5.251192705226e-05       3.441013520479e-02 
       5.670107455699e-05       3.705601723687e-02 
       6.122441198393e-05       3.990533415216e-02 
       6.610859938837e-05       4.297372169695e-02 
       7.138242363583e-05       4.627802143304e-02 
       7.707696806873e-05       4.983636195892e-02 
       8.322579570814e-05       5.366826849095e-02 
       8.986514707061e-05       5.779476397214e-02 
       9.703415376577e-05       6.223848246148e-02 
       1.047750691338e-04       6.702379867972e-02 
       1.131335172818e-04       7.217695155935e-02 
       1.221587619877e-04       7.772619076487e-02 
       1.319039970550e-04       8.370193435376e-02 
       1.424266598317e-04       9.013692510624e-02 
       1.537887697396e-04       9.706641245927e-02 
       1.660572938097e-04       1.045283354633e-01 
       1.793045413791e-04       1.125635349456e-01 
       1.936085902737e-04       1.212159615386e-01 
       2.090537469909e-04       1.305329133163e-01 
       2.257310435923e-04       1.405652846697e-01 
       2.437387742372e-04       1.513678303059e-01 
       2.631830745176e-04       1.629994505425e-01 
       2.841785470091e-04       1.755234921822e-01 
       3.068489367268e-04       1.890080671054e-01 
       3.313278604643e-04       2.035264003122e-01 
       3.577595943165e-04       2.191571804417e-01 
       3.862999240274e-04       2.359849438378e-01 
       4.171170631739e-04       2.541004742381e-01 
       4.503926445983e-04       2.736012081175e-01 
       4.863227909323e-04       2.945916791924e-01 
       5.251192705226e-04       3.171839526195e-01 
       5.670107455699e-04       3.414980765084e-01 
       6.122441198393e-04       3.676625414247e-01 
       6.610859938837e-04       3.958147253514e-01 
       7.138242363583e-04       4.261013286158e-01 
       7.707696806873e-04       4.586787793682e-01 
       8.322579570814e-04       4.937136002694e-01 
       8.986514707061e-04       5.313826802822e-01 
       9.703415376577e-04       5.718734973615e-01 
       1.047750691338e-03       6.153841630977e-01 
       1.131335172818e-03       6.621233240919e-01 
       1.221587619877e-03       7.123098221828e-01 
       1.319039970550e-03       7.661720585891e-01 
       1.424266598317e-03       8.239546298944e-01 
       1.537887697396e-03       8.859011174452e-01 
       1.660572938097e-03       9.522588006876e-01 
       1.793045413791e-03       1.023280099773e+00 
       1.936085902737e-03       1.099216304375e+00 
       2.090537469909e-03       1.180312989998e+00 
       2.257310435923e-03       1.266804114995e+00 
       2.437387742372e-03       1.358904851948e+00 
       2.631830745176e-03       1.456802680782e+00 
       2.841785470091e-03       1.560646886775e+00 
       3.068489367268e-03       1.670536056723e+00 
       3.313278604643e-03       1.786503843308e+00 
       3.577595943165e-03       1.908502917393e+00 
       3.862999240274e-03       2.036387710554e+00 
       4.171170631739e-03       2.169896200740e+00 
       4.503926445983e-03       2.308631833797e+00 
       4.863227909323e-03       2.452047223456e+00 
       5.251192705226e-03       2.599430527358e+00 
       5.670107455699e-03       2.749896782911e+00 
       6.122441198393e-03       2.902386289935e+00 
       6.610859938837e-03       3.055668428356e+00 
       7.138242363583e-03       3.208355965079e+00 
       7.707696806873e-03       3.358923159038e+00 
       8.322579570814e-03       3.505724151420e+00 
       8.986514707061e-03       3.647008223261e+00 
       9.703415376577e-03       3.780920971676e+00 
       1.047750691338e-02       3.905488311157e+00 
       1.131335172818e-02       4.018582667433e+00 
       1.221587619877e-02       4.117895523100e+00 
       1.319039970550e-02       4.200907189566e+00 
       1.424266598317e-02       4.264928601204e+00 
       1.537887697392e-02       4.307202568415e+00 
       1.660572938023e-02       4.325033974626e+00 
       1.793045412706e-02       4.316020920442e+00 
       1.936085890181e-02       4.278179960746e+00 
       2.090537352463e-02       4.210134043666e+00 
       2.257309535333e-02       4.111330361867e+00 
       2.437382002918e-02       3.982307996276e+00 
       2.631799944462e-02       3.825015723635e+00 
       2.841644545389e-02       3.643091571866e+00 
       3.067933355377e-02       3.441947471742e+00 
       3.311368470740e-02       3.228932717145e+00 
       3.571840443502e-02       3.013134447729e+00 
       3.847720348444e-02       2.804818712090e+00 
       4.135335538431e-02       2.613856677934e+00 
       4.429361667738e-02       2.447472649698e+00 
       4.724366439141e-02       2.308471575936e+00 
       5.016480835311e-02       2.195224755824e+00 
       5.303989620246e-02       2.103354501007e+00 
       5.586870669566e-02       2.027324409813e+00 
       5.866042680613e-02       1.961876524812e+00 
       6.142798932958e-02       1.902354550142e+00 
       6.418496440164e-02       1.844904457181e+00 
       6.694418833788e-02       1.786460024849e+00 
       6.971731106057e-02       1.724804339707e+00 
       7.251476155766e-02       1.658564402623e+00 
       7.534587671527e-02       1.587198356303e+00 
       7.821907666265e-02       1.510968158294e+00 
       8.114203772912e-02       1.430899796508e+00 
       8.412184535029e-02       1.348622060304e+00 
       8.716512279304e-02       1.266190005373e+00 
       9.027813695930e-02       1.185895552171e+00 
       9.346688431697e-02       1.109981890438e+00 
       9.673716028276e-02       1.040428158844e+00 
       1.000946150830e-01       9.787240395313e-01 
       1.035447986537e-01       9.257037968185e-01 
       1.070931966762e-01       8.814598144075e-01 
       1.107452594425e-01       8.452766725932e-01 
       1.145064249153e-01       8.156988822518e-01 
       1.183821370918e-01       7.905826735254e-01 
       1.223778605862e-01       7.673442711196e-01 
       1.264990921987e-01       7.432720556956e-01 
       1.307513701367e-01       7.159888338748e-01 
       1.351402814784e-01       6.839463364303e-01 
       1.396714684203e-01       6.468273947945e-01 
       1.443506338194e-01       6.056860505494e-01 
       1.491835465229e-01       5.627493138523e-01 
       1.541760469708e-01       5.208646220160e-01 
       1.593340535561e-01       4.828168073492e-01 
       1.646635702297e-01       4.505986884956e-01 
       1.701706958456e-01       4.249332381002e-01 
       1.758616357459e-01       4.050814810344e-01 
       1.817427160982e-01       3.890310888896e-01 
       1.878204015065e-01       3.741695908018e-01 
       1.941013164283e-01       3.576877900028e-01 
       2.005922709503e-01       3.378460655316e-01 
       2.073002914972e-01       3.148111263371e-01 
       2.142326570816e-01       2.904785883592e-01 
       2.213969417533e-01       2.673731495584e-01 
       2.288010639706e-01       2.474707946130e-01 
       2.364533437147e-01       2.315520834710e-01 
       2.443625682930e-01       2.189013049057e-01 
       2.525380679504e-01       2.075709158374e-01 
       2.609898026346e-01       1.955393754382e-01 
       2.697284615565e-01       1.819119173404e-01 
       2.787655775689e-01       1.672636560349e-01 
       2.881136588829e-01       1.532082950262e-01 
       2.977863412677e-01       1.411444070561e-01 
       3.077985646929e-01       1.311496450978e-01 
       3.181667794071e-01       1.222239442749e-01 
       3.289091877812e-01       1.131724410800e-01 
       3.400460299658e-01       1.035778824778e-01 
       3.515999236474e-01       9.409305851674e-02 
       3.635962711085e-01       8.552625449613e-02 
       3.760637506334e-01       7.806688013645e-02 
       3.890349143879e-01       7.111883876391e-02 
       4.025469216825e-01       6.419891545257e-02 
       4.166424456376e-01       5.739868803718e-02 
       4.313708035863e-01       5.112036683169e-02 
       4.467893782977e-01       4.543044981950e-02 
       4.629654199664e-01       4.008515218973e-02 
       4.799783501994e-01       3.493005320799e-02 
       4.979227319373e-01       3.011039220781e-02 
       5.169121270864e-01       2.572168162272e-02 
       5.370841404489e-01       2.163165768814e-02 
       5.586070464571e-01       1.782919599783e-02 
       5.816885094930e-01       1.438398407992e-02 
       6.065870144995e-01       1.126889239151e-02 
       6.336266468475e-01       8.484857134448e-03 
       6.632156059511e-01       6.065010027853e-03 
       6.958678639263e-01       4.015104209986e-03 
       7.322247985589e-01       2.365633416229e-03 
       7.730680195114e-01       1.138539851928e-03 
       8.193049553677e-01       3.557958880785e-04 
       8.718988016039e-01       1.856970746500e-05 
       9.317218031082e-01       8.846692636535e-05 
       9.993660908989e-01       4.660260311370e-04 
       1.075037110174e+00       9.900763665582e-04 
       1.158653485707e+00       1.471149321595e-03 
       1.250099157308e+00       1.748070826248e-03 
       1.349432401273e+00       1.738624906159e-03 
       1.456947457397e+00       1.459512307556e-03 
       1.573135111331e+00       1.013445655346e-03 
       1.698621895592e+00       5.473893940092e-04 
       1.834127512934e+00       1.944446824221e-04 
       1.980444934528e+00       2.197207663816e-05 
       2.138435191726e+00       1.007265498621e-05 
       2.309029199186e+00       7.477392384320e-05 
       2.493232377687e+00       1.245496198243e-04 
       2.692130395285e+00       1.148495888728e-04 
       2.906895534573e+00       6.309166725702e-05 
       3.138793597714e+00       1.570672096067e-05 
       3.389191366484e+00       1.087667931260e-08 
       3.659564657905e+00       6.284564175727e-06 
       3.951507022538e+00       1.101499904197e-05 
       4.266739136701e+00       6.400502561203e-06 
       4.607118943941e+00       8.966948826085e-07 
       4.974652605557e+00       1.999937869502e-07 
       5.371506324689e+00       1.017978790365e-06 
       5.800019113685e+00       5.331451657641e-07 
       6.262716579983e+00       1.297711756176e-08 
       6.762325811764e+00       7.826593934438e-08 
       7.301791451110e+00       6.583590989467e-08 
       7.884293049406e+00       1.004280572034e-09 
       8.513263807261e+00       9.013126061928e-09 
       9.192410809424e+00       2.771012998091e-09 
       9.925736873929e+00       4.540893821000e-10 
       1.071756414427e+01       6.415121953513e-10 
       1.157255956364e+01       1.002617910011e-11 
       1.249576238137e+01       4.889299965028e-11 
       1.349261385375e+01       6.842407596442e-12 
       1.456898931416e+01       5.789614081628e-12 
       1.573123280165e+01       7.542067281384e-14 
       1.698619445202e+01       3.474611898357e-13 
       1.834127087176e+01       3.665553403180e-13 
       1.980444873285e+01       4.213626750539e-14 
       2.138435184532e+01       1.659871373271e-13 
       2.309029198506e+01       1.349758721263e-13 
       2.493232377636e+01       3.000308340558e-14 
       2.692130395282e+01       3.644832526937e-14 
       2.906895534573e+01       6.530084816226e-14 
       3.138793597714e+01       5.872469983583e-15 
       3.389191366484e+01       2.750321281978e-14 
       3.659564657905e+01       9.133631952218e-15 
       3.951507022538e+01       7.535474399678e-15 
       4.266739136701e+01       5.329304297814e-15 
       4.607118943941e+01       6.985429139737e-15 
       4.974652605557e+01       8.575598638478e-18 
       5.371506324689e+01       9.792817865806e-15 
       5.800019113685e+01       1.050112947378e-15 
       6.262716579983e+01       4.355283222094e-16 
       6.762325811764e+01       1.080050776806e-16 
