# Matter power spectrum P(k) at redshift z=99
# for k=1.04775e-05 to 67.6233 h/Mpc,
# number of wavenumbers equal to 246
#    1:k (h/Mpc)              2:P (Mpc/h)^3        
       1.047750691338e-05       7.261927673119e-03 
       1.131335172818e-05       7.820331745737e-03 
       1.221587619877e-05       8.421675986489e-03 
       1.319039970550e-05       9.069258192194e-03 
       1.424266598317e-05       9.766638404421e-03 
       1.537887697396e-05       1.051764069681e-02 
       1.660572938097e-05       1.132639105520e-02 
       1.793045413791e-05       1.219733231416e-02 
       1.936085902737e-05       1.313524224380e-02 
       2.090537469909e-05       1.414527121893e-02 
       2.257310435923e-05       1.523296272192e-02 
       2.437387742372e-05       1.640429444530e-02 
       2.631830745176e-05       1.766569582178e-02 
       2.841785470091e-05       1.902408601793e-02 
       3.068489367268e-05       2.048692970591e-02 
       3.313278604643e-05       2.206225513594e-02 
       3.577595943165e-05       2.375870704909e-02 
       3.862999240274e-05       2.558560727479e-02 
       4.171170631739e-05       2.755297763344e-02 
       4.503926445983e-05       2.967161927315e-02 
       4.863227909323e-05       3.195316450832e-02 
       5.251192705226e-05       3.441013519284e-02 
       5.670107455699e-05       3.705601722526e-02 
       6.122441198393e-05       3.990533413562e-02 
       6.610859938837e-05       4.297372168203e-02 
       7.138242363583e-05       4.627802141688e-02 
       7.707696806873e-05       4.983636194159e-02 
       8.322579570814e-05       5.366826847231e-02 
       8.986514707061e-05       5.779476394568e-02 
       9.703415376577e-05       6.223848243885e-02 
       1.047750691338e-04       6.702379865640e-02 
       1.131335172818e-04       7.217695153381e-02 
       1.221587619877e-04       7.772619073572e-02 
       1.319039970550e-04       8.370193432376e-02 
       1.424266598317e-04       9.013692507545e-02 
       1.537887697396e-04       9.706641242570e-02 
       1.660572938097e-04       1.045283354271e-01 
       1.793045413791e-04       1.125635349068e-01 
       1.936085902737e-04       1.212159614968e-01 
       2.090537469909e-04       1.305329132714e-01 
       2.257310435923e-04       1.405652846215e-01 
       2.437387742372e-04       1.513678302540e-01 
       2.631830745176e-04       1.629994504871e-01 
       2.841785470091e-04       1.755234921224e-01 
       3.068489367268e-04       1.890080670413e-01 
       3.313278604643e-04       2.035264002435e-01 
       3.577595943165e-04       2.191571803681e-01 
       3.862999240274e-04       2.359849437592e-01 
       4.171170631739e-04       2.541004741539e-01 
       4.503926445983e-04       2.736012080277e-01 
       4.863227909323e-04       2.945916790965e-01 
       5.251192705226e-04       3.171839525183e-01 
       5.670107455699e-04       3.414980764002e-01 
       6.122441198393e-04       3.676625413100e-01 
       6.610859938837e-04       3.958147252304e-01 
       7.138242363583e-04       4.261013284922e-01 
       7.707696806873e-04       4.586787792354e-01 
       8.322579570814e-04       4.937136001342e-01 
       8.986514707061e-04       5.313826801401e-01 
       9.703415376577e-04       5.718734972157e-01 
       1.047750691338e-03       6.153841629505e-01 
       1.131335172818e-03       6.621233239466e-01 
       1.221587619877e-03       7.123098220431e-01 
       1.319039970550e-03       7.661720584540e-01 
       1.424266598317e-03       8.239546297728e-01 
       1.537887697396e-03       8.859011173466e-01 
       1.660572938097e-03       9.522588006415e-01 
       1.793045413791e-03       1.023280099819e+00 
       1.936085902737e-03       1.099216304579e+00 
       2.090537469909e-03       1.180312990453e+00 
       2.257310435923e-03       1.266804115851e+00 
       2.437387742372e-03       1.358904853403e+00 
       2.631830745176e-03       1.456802683156e+00 
       2.841785470091e-03       1.560646890522e+00 
       3.068489367268e-03       1.670536062500e+00 
       3.313278604643e-03       1.786503852159e+00 
       3.577595943165e-03       1.908502930789e+00 
       3.862999240274e-03       2.036387730709e+00 
       4.171170631739e-03       2.169896154396e+00 
       4.503926445983e-03       2.308631878994e+00 
       4.863227909323e-03       2.452047290962e+00 
       5.251192705226e-03       2.599430628088e+00 
       5.670107455699e-03       2.749896931767e+00 
       6.122441198393e-03       2.902386513384e+00 
       6.610859938837e-03       3.055668701788e+00 
       7.138242363583e-03       3.208356461544e+00 
       7.707696806873e-03       3.358923892433e+00 
       8.322579570814e-03       3.505725595376e+00 
       8.986514707061e-03       3.647009659634e+00 
       9.703415376577e-03       3.780923304307e+00 
       1.047750691338e-02       3.905490409971e+00 
       1.131335172818e-02       4.018588482042e+00 
       1.221587619877e-02       4.117901583999e+00 
       1.319039970550e-02       4.200915458611e+00 
       1.424266598317e-02       4.264942588779e+00 
       1.537887697392e-02       4.307216504967e+00 
       1.660572938023e-02       4.325062916747e+00 
       1.793045412706e-02       4.316058651035e+00 
       1.936085890181e-02       4.278226551042e+00 
       2.090537352463e-02       4.210198956234e+00 
       2.257309535333e-02       4.111420145712e+00 
       2.437382002918e-02       3.982421089931e+00 
       2.631799944462e-02       3.825171571252e+00 
       2.841644545389e-02       3.643277250338e+00 
       3.067933355377e-02       3.442192500246e+00 
       3.311368470740e-02       3.229235269619e+00 
       3.571840443502e-02       3.013516192756e+00 
       3.847720348444e-02       2.805280600653e+00 
       4.135335538431e-02       2.614416330934e+00 
       4.429361667738e-02       2.448129961368e+00 
       4.724366439141e-02       2.309233217207e+00 
       5.016480835311e-02       2.196112193372e+00 
       5.303989620246e-02       2.104365021845e+00 
       5.586870669566e-02       2.028462488765e+00 
       5.866042680613e-02       1.963150271861e+00 
       6.142798932958e-02       1.903778530620e+00 
       6.418496440164e-02       1.846479324295e+00 
       6.694418833788e-02       1.788197561918e+00 
       6.971731106057e-02       1.726716878303e+00 
       7.251476155766e-02       1.660657190746e+00 
       7.534587671527e-02       1.589472830025e+00 
       7.821907666265e-02       1.513437891059e+00 
       8.114203772912e-02       1.433568340087e+00 
       8.412184535029e-02       1.351491779851e+00 
       8.716512279304e-02       1.269273863590e+00 
       9.027813695930e-02       1.189191151744e+00 
       9.346688431697e-02       1.113499677770e+00 
       9.673716028276e-02       1.044176571680e+00 
       1.000946150830e-01       9.827084264195e-01 
       1.035447986537e-01       9.299396546894e-01 
       1.070931966762e-01       8.859604315725e-01 
       1.107452594425e-01       8.500711591193e-01 
       1.145064249153e-01       8.208046795178e-01 
       1.183821370918e-01       7.960253031663e-01 
       1.223778605862e-01       7.731437098737e-01 
       1.264990921987e-01       7.494510838918e-01 
       1.307513701367e-01       7.225581773062e-01 
       1.351402814784e-01       6.909086056885e-01 
       1.396714684203e-01       6.541812136027e-01 
       1.443506338194e-01       6.134272806890e-01 
       1.491835465229e-01       5.708677422776e-01 
       1.541760469708e-01       5.293638323636e-01 
       1.593340535561e-01       4.917105956867e-01 
       1.646635702297e-01       4.599193675966e-01 
       1.701706958456e-01       4.347280669052e-01 
       1.758616357459e-01       4.154076911142e-01 
       1.817427160982e-01       3.999376617414e-01 
       1.878204015065e-01       3.856833294811e-01 
       1.941013164283e-01       3.698095291437e-01 
       2.005922709503e-01       3.505467983124e-01 
       2.073002914972e-01       3.280429819583e-01 
       2.142326570816e-01       3.042141419924e-01 
       2.213969417533e-01       2.816125737776e-01 
       2.288010639706e-01       2.622573930445e-01 
       2.364533437147e-01       2.469624823052e-01 
       2.443625682930e-01       2.350132798538e-01 
       2.525380679504e-01       2.244177776629e-01 
       2.609898026346e-01       2.130935396178e-01 
       2.697284615565e-01       2.001016577071e-01 
       2.787655775689e-01       1.860198879129e-01 
       2.881136588829e-01       1.725176134050e-01 
       2.977863412677e-01       1.610661099507e-01 
       3.077985646929e-01       1.517612012981e-01 
       3.181667794071e-01       1.435593676611e-01 
       3.289091877812e-01       1.351816606198e-01 
       3.400460299658e-01       1.261644301834e-01 
       3.515999236474e-01       1.172021433273e-01 
       3.635962711085e-01       1.091769500097e-01 
       3.760637506334e-01       1.023097260816e-01 
       3.890349143879e-01       9.593767259385e-02 
       4.025469216825e-01       8.950761473900e-02 
       4.166424456376e-01       8.311169368274e-02 
       4.313708035863e-01       7.721547845920e-02 
       4.467893782977e-01       7.190082113517e-02 
       4.629654199664e-01       6.686913690141e-02 
       4.799783501994e-01       6.191743676795e-02 
       4.979227319373e-01       5.722230836604e-02 
       5.169121270864e-01       5.290279003639e-02 
       5.370841404489e-01       4.876981840400e-02 
       5.586070464571e-01       4.479087099080e-02 
       5.816885094930e-01       4.105191959713e-02 
       6.065870144995e-01       3.748995142025e-02 
       6.336266468475e-01       3.407630662915e-02 
       6.632156059511e-01       3.083460575126e-02 
       6.958678639263e-01       2.772831400159e-02 
       7.322247985589e-01       2.476707502959e-02 
       7.730680195114e-01       2.193956303565e-02 
       8.193049553677e-01       1.925623515281e-02 
       8.718988016039e-01       1.672930034003e-02 
       9.317218031082e-01       1.438425548165e-02 
       9.993660908989e-01       1.225066908390e-02 
       1.075037110174e+00       1.035262960071e-02 
       1.158653485707e+00       8.699730887179e-03 
       1.250099157308e+00       7.284586716832e-03 
       1.349432401273e+00       6.085479285343e-03 
       1.456947457397e+00       5.075733115529e-03 
       1.573135111331e+00       4.228309984105e-03 
       1.698621895592e+00       3.518550642308e-03 
       1.834127512934e+00       2.924985014319e-03 
       1.980444934528e+00       2.429178400942e-03 
       2.138435191726e+00       2.015512564216e-03 
       2.309029199186e+00       1.670777102728e-03 
       2.493232377687e+00       1.383798051993e-03 
       2.692130395285e+00       1.145133619577e-03 
       2.906895534573e+00       9.468658856786e-04 
       3.138793597714e+00       7.822903524628e-04 
       3.389191366484e+00       6.458242525403e-04 
       3.659564657905e+00       5.327690655803e-04 
       3.951507022538e+00       4.391854006625e-04 
       4.266739136701e+00       3.617906656613e-04 
       4.607118943941e+00       2.978281279498e-04 
       4.974652605557e+00       2.450133807304e-04 
       5.371506324689e+00       2.014374953950e-04 
       5.800019113685e+00       1.655075619529e-04 
       6.262716579983e+00       1.359033060797e-04 
       6.762325811764e+00       1.115296944741e-04 
       7.301791451110e+00       9.147673671119e-05 
       7.884293049406e+00       7.498613135118e-05 
       8.513263807261e+00       6.143615520085e-05 
       9.192410809424e+00       5.030878061942e-05 
       9.925736873929e+00       4.117499397500e-05 
       1.071756414427e+01       3.368352514724e-05 
       1.157255956364e+01       2.754159892174e-05 
       1.249576238137e+01       2.250887612887e-05 
       1.349261385375e+01       1.838757737118e-05 
       1.456898931416e+01       1.501417092478e-05 
       1.573123280165e+01       1.225435156795e-05 
       1.698619445202e+01       9.997601058362e-06 
       1.834127087176e+01       8.153006508768e-06 
       1.980444873285e+01       6.646208019662e-06 
       2.138435184532e+01       5.415728655401e-06 
       2.309029198506e+01       4.411336277424e-06 
       2.493232377636e+01       3.591862938455e-06 
       2.692130395282e+01       2.923553216598e-06 
       2.906895534573e+01       2.378735225810e-06 
       3.138793597714e+01       1.934773713326e-06 
       3.389191366484e+01       1.573108082968e-06 
       3.659564657905e+01       1.278626423814e-06 
       3.951507022538e+01       1.038919540442e-06 
       4.266739136701e+01       8.438632104834e-07 
       4.607118943941e+01       6.852110041534e-07 
       4.974652605557e+01       5.562038252048e-07 
       5.371506324689e+01       4.513457522570e-07 
       5.800019113685e+01       3.661283378933e-07 
       6.262716579983e+01       2.969137669912e-07 
       6.762325811764e+01       2.407034346879e-07 
