# Matter power spectrum P(k) at redshift z=99
# for k=1.04775e-05 to 67.6233 h/Mpc,
# number of wavenumbers equal to 246
#    1:k (h/Mpc)              2:P (Mpc/h)^3        
       1.047750691338e-05       7.261927673120e-03 
       1.131335172818e-05       7.820331745738e-03 
       1.221587619877e-05       8.421675986490e-03 
       1.319039970550e-05       9.069258192196e-03 
       1.424266598317e-05       9.766638404422e-03 
       1.537887697396e-05       1.051764069682e-02 
       1.660572938097e-05       1.132639105520e-02 
       1.793045413791e-05       1.219733231417e-02 
       1.936085902737e-05       1.313524224381e-02 
       2.090537469909e-05       1.414527121894e-02 
       2.257310435923e-05       1.523296272192e-02 
       2.437387742372e-05       1.640429444530e-02 
       2.631830745176e-05       1.766569582178e-02 
       2.841785470091e-05       1.902408601793e-02 
       3.068489367268e-05       2.048692970592e-02 
       3.313278604643e-05       2.206225513594e-02 
       3.577595943165e-05       2.375870704909e-02 
       3.862999240274e-05       2.558560727479e-02 
       4.171170631739e-05       2.755297763344e-02 
       4.503926445983e-05       2.967161927316e-02 
       4.863227909323e-05       3.195316450832e-02 
       5.251192705226e-05       3.441013519285e-02 
       5.670107455699e-05       3.705601722527e-02 
       6.122441198393e-05       3.990533413561e-02 
       6.610859938837e-05       4.297372168204e-02 
       7.138242363583e-05       4.627802141689e-02 
       7.707696806873e-05       4.983636194160e-02 
       8.322579570814e-05       5.366826847232e-02 
       8.986514707061e-05       5.779476394569e-02 
       9.703415376577e-05       6.223848243886e-02 
       1.047750691338e-04       6.702379865641e-02 
       1.131335172818e-04       7.217695153382e-02 
       1.221587619877e-04       7.772619073573e-02 
       1.319039970550e-04       8.370193432378e-02 
       1.424266598317e-04       9.013692507549e-02 
       1.537887697396e-04       9.706641242572e-02 
       1.660572938097e-04       1.045283354272e-01 
       1.793045413791e-04       1.125635349068e-01 
       1.936085902737e-04       1.212159614968e-01 
       2.090537469909e-04       1.305329132715e-01 
       2.257310435923e-04       1.405652846215e-01 
       2.437387742372e-04       1.513678302540e-01 
       2.631830745176e-04       1.629994504871e-01 
       2.841785470091e-04       1.755234921225e-01 
       3.068489367268e-04       1.890080670413e-01 
       3.313278604643e-04       2.035264002436e-01 
       3.577595943165e-04       2.191571803681e-01 
       3.862999240274e-04       2.359849437594e-01 
       4.171170631739e-04       2.541004741539e-01 
       4.503926445983e-04       2.736012080278e-01 
       4.863227909323e-04       2.945916790966e-01 
       5.251192705226e-04       3.171839525183e-01 
       5.670107455699e-04       3.414980764002e-01 
       6.122441198393e-04       3.676625413101e-01 
       6.610859938837e-04       3.958147252304e-01 
       7.138242363583e-04       4.261013284920e-01 
       7.707696806873e-04       4.586787792353e-01 
       8.322579570814e-04       4.937136001327e-01 
       8.986514707061e-04       5.313826801402e-01 
       9.703415376577e-04       5.718734972158e-01 
       1.047750691338e-03       6.153841629504e-01 
       1.131335172818e-03       6.621233239466e-01 
       1.221587619877e-03       7.123098220424e-01 
       1.319039970550e-03       7.661720584673e-01 
       1.424266598317e-03       8.239546297731e-01 
       1.537887697396e-03       8.859011173467e-01 
       1.660572938097e-03       9.522588006413e-01 
       1.793045413791e-03       1.023280099819e+00 
       1.936085902737e-03       1.099216304579e+00 
       2.090537469909e-03       1.180312990453e+00 
       2.257310435923e-03       1.266804115851e+00 
       2.437387742372e-03       1.358904853405e+00 
       2.631830745176e-03       1.456802683156e+00 
       2.841785470091e-03       1.560646890521e+00 
       3.068489367268e-03       1.670536062498e+00 
       3.313278604643e-03       1.786503852154e+00 
       3.577595943165e-03       1.908502930786e+00 
       3.862999240274e-03       2.036387730706e+00 
       4.171170631739e-03       2.169896178741e+00 
       4.503926445983e-03       2.308631878990e+00 
       4.863227909323e-03       2.452047290957e+00 
       5.251192705226e-03       2.599430628081e+00 
       5.670107455699e-03       2.749896931843e+00 
       6.122441198393e-03       2.902386513375e+00 
       6.610859938837e-03       3.055668697715e+00 
       7.138242363583e-03       3.208356461529e+00 
       7.707696806873e-03       3.358923892944e+00 
       8.322579570814e-03       3.505725595386e+00 
       8.986514707061e-03       3.647009762978e+00 
       9.703415376577e-03       3.780923304248e+00 
       1.047750691338e-02       3.905491490967e+00 
       1.131335172818e-02       4.018588039234e+00 
       1.221587619877e-02       4.117901584737e+00 
       1.319039970550e-02       4.200915280503e+00 
       1.424266598317e-02       4.264942351158e+00 
       1.537887697392e-02       4.307220296360e+00 
       1.660572938023e-02       4.325063906629e+00 
       1.793045412706e-02       4.316060180215e+00 
       1.936085890181e-02       4.278220491780e+00 
       2.090537352463e-02       4.210206289327e+00 
       2.257309535333e-02       4.111421604451e+00 
       2.437382002918e-02       3.982422913466e+00 
       2.631799944462e-02       3.825167809321e+00 
       2.841644545389e-02       3.643283697635e+00 
       3.067933355377e-02       3.442198219052e+00 
       3.311368470740e-02       3.229234418856e+00 
       3.571840443502e-02       3.013517777888e+00 
       3.847720348444e-02       2.805275793551e+00 
       4.135335538431e-02       2.614415455223e+00 
       4.429361667738e-02       2.448139611253e+00 
       4.724366439141e-02       2.309241051691e+00 
       5.016480835311e-02       2.196116663179e+00 
       5.303989620246e-02       2.104367334492e+00 
       5.586870669566e-02       2.028465408780e+00 
       5.866042680613e-02       1.963153496620e+00 
       6.142798932958e-02       1.903779210964e+00 
       6.418496440164e-02       1.846481946689e+00 
       6.694418833788e-02       1.788195429654e+00 
       6.971731106057e-02       1.726714299142e+00 
       7.251476155766e-02       1.660655255961e+00 
       7.534587671527e-02       1.589467559363e+00 
       7.821907666265e-02       1.513439045353e+00 
       8.114203772912e-02       1.433568211618e+00 
       8.412184535029e-02       1.351491720612e+00 
       8.716512279304e-02       1.269273002387e+00 
       9.027813695930e-02       1.189191721869e+00 
       9.346688431697e-02       1.113500622162e+00 
       9.673716028276e-02       1.044175023949e+00 
       1.000946150830e-01       9.827078089025e-01 
       1.035447986537e-01       9.299370809284e-01 
       1.070931966762e-01       8.859596935302e-01 
       1.107452594425e-01       8.500721810608e-01 
       1.145064249153e-01       8.208023665568e-01 
       1.183821370918e-01       7.960260450703e-01 
       1.223778605862e-01       7.731447443388e-01 
       1.264990921987e-01       7.494515431450e-01 
       1.307513701367e-01       7.225573164152e-01 
       1.351402814784e-01       6.909093420780e-01 
       1.396714684203e-01       6.541813452363e-01 
       1.443506338194e-01       6.134276291414e-01 
       1.491835465229e-01       5.708673354850e-01 
       1.541760469708e-01       5.293645106426e-01 
       1.593340535561e-01       4.917105050684e-01 
       1.646635702297e-01       4.599207516708e-01 
       1.701706958456e-01       4.347282118383e-01 
       1.758616357459e-01       4.154071901143e-01 
       1.817427160982e-01       3.999374951365e-01 
       1.878204015065e-01       3.856816181756e-01 
       1.941013164283e-01       3.698088945809e-01 
       2.005922709503e-01       3.505467855999e-01 
       2.073002914972e-01       3.280461143518e-01 
       2.142326570816e-01       3.042150664496e-01 
       2.213969417533e-01       2.816115444376e-01 
       2.288010639706e-01       2.622567241302e-01 
       2.364533437147e-01       2.469616633811e-01 
       2.443625682930e-01       2.350128047896e-01 
       2.525380679504e-01       2.244196913615e-01 
       2.609898026346e-01       2.130963043428e-01 
       2.697284615565e-01       2.001024307870e-01 
       2.787655775689e-01       1.860198805100e-01 
       2.881136588829e-01       1.725164390085e-01 
       2.977863412677e-01       1.610659823965e-01 
       3.077985646929e-01       1.517606231031e-01 
       3.181667794071e-01       1.435593772559e-01 
       3.289091877812e-01       1.351820183263e-01 
       3.400460299658e-01       1.261645241638e-01 
       3.515999236474e-01       1.172019461419e-01 
       3.635962711085e-01       1.091766664127e-01 
       3.760637506334e-01       1.023094280005e-01 
       3.890349143879e-01       9.593775421926e-02 
       4.025469216825e-01       8.950764068478e-02 
       4.166424456376e-01       8.311167679315e-02 
       4.313708035863e-01       7.721536383791e-02 
       4.467893782977e-01       7.190060076998e-02 
       4.629654199664e-01       6.686902897761e-02 
       4.799783501994e-01       6.191730657822e-02 
       4.979227319373e-01       5.722217707759e-02 
       5.169121270864e-01       5.290296519968e-02 
       5.370841404489e-01       4.876973858437e-02 
       5.586070464571e-01       4.479080825946e-02 
       5.816885094930e-01       4.105183212461e-02 
       6.065870144995e-01       3.748995021023e-02 
       6.336266468475e-01       3.407634016085e-02 
       6.632156059511e-01       3.083456815429e-02 
       6.958678639263e-01       2.772821129965e-02 
       7.322247985589e-01       2.476702254698e-02 
       7.730680195114e-01       2.193951215962e-02 
       8.193049553677e-01       1.925614707296e-02 
       8.718988016039e-01       1.672926665213e-02 
       9.317218031082e-01       1.438418098112e-02 
       9.993660908989e-01       1.225069022726e-02 
       1.075037110174e+00       1.035259443588e-02 
       1.158653485707e+00       8.699671572881e-03 
       1.250099157308e+00       7.284569058095e-03 
       1.349432401273e+00       6.085446129902e-03 
       1.456947457397e+00       5.075686472608e-03 
       1.573135111331e+00       4.228278415447e-03 
       1.698621895592e+00       3.518539022886e-03 
       1.834127512934e+00       2.924964761350e-03 
       1.980444934528e+00       2.429143219839e-03 
       2.138435191726e+00       2.015488291971e-03 
       2.309029199186e+00       1.670766926471e-03 
       2.493232377687e+00       1.383773651503e-03 
       2.692130395285e+00       1.145113768232e-03 
       2.906895534573e+00       9.468355883817e-04 
       3.138793597714e+00       7.822701999171e-04 
       3.389191366484e+00       6.458102948487e-04 
       3.659564657905e+00       5.327519139370e-04 
       3.951507022538e+00       4.391695142635e-04 
       4.266739136701e+00       3.617708335785e-04 
       4.607118943941e+00       2.978085052379e-04 
       4.974652605557e+00       2.449957816778e-04 
       5.371506324689e+00       2.014172761374e-04 
       5.800019113685e+00       1.654863042081e-04 
       6.262716579983e+00       1.358833789543e-04 
       6.762325811764e+00       1.115087492167e-04 
       7.301791451110e+00       9.145436037323e-05 
       7.884293049406e+00       7.496442645862e-05 
       8.513263807261e+00       6.141315757233e-05 
       9.192410809424e+00       5.028445771000e-05 
       9.925736873929e+00       4.115008348733e-05 
       1.071756414427e+01       3.365717476638e-05 
       1.157255956364e+01       2.751393499108e-05 
       1.249576238137e+01       2.248009501440e-05 
       1.349261385375e+01       1.835709401099e-05 
       1.456898931416e+01       1.498211628335e-05 
       1.573123280165e+01       1.222053356047e-05 
       1.698619445202e+01       9.961793906991e-06 
       1.834127087176e+01       8.115191321163e-06 
       1.980444873285e+01       6.605964682152e-06 
       2.138435184532e+01       5.373010620939e-06 
       2.309029198506e+01       4.365984001271e-06 
       2.493232377636e+01       3.543727983763e-06 
       2.692130395282e+01       2.872423932241e-06 
       2.906895534573e+01       2.324442341229e-06 
       3.138793597714e+01       1.877190030636e-06 
       3.389191366484e+01       1.512116237645e-06 
       3.659564657905e+01       1.214125282369e-06 
       3.951507022538e+01       9.708561133912e-07 
       4.266739136701e+01       7.722816826809e-07 
       4.607118943941e+01       6.102001019149e-07 
       4.974652605557e+01       4.779410152441e-07 
       5.371506324689e+01       3.701540575590e-07 
       5.800019113685e+01       2.824910295429e-07 
       6.262716579983e+01       2.114593613782e-07 
       6.762325811764e+01       1.542785635894e-07 
