# Matter power spectrum P(k) at redshift z=99
# for k=1.04775e-05 to 67.6233 h/Mpc,
# number of wavenumbers equal to 246
#    1:k (h/Mpc)              2:P (Mpc/h)^3        
       1.047750691338e-05       7.261927673119e-03 
       1.131335172818e-05       7.820331745737e-03 
       1.221587619877e-05       8.421675986488e-03 
       1.319039970550e-05       9.069258192194e-03 
       1.424266598317e-05       9.766638404421e-03 
       1.537887697396e-05       1.051764069682e-02 
       1.660572938097e-05       1.132639105520e-02 
       1.793045413791e-05       1.219733231416e-02 
       1.936085902737e-05       1.313524224380e-02 
       2.090537469909e-05       1.414527121893e-02 
       2.257310435923e-05       1.523296272192e-02 
       2.437387742372e-05       1.640429444530e-02 
       2.631830745176e-05       1.766569582178e-02 
       2.841785470091e-05       1.902408601793e-02 
       3.068489367268e-05       2.048692970591e-02 
       3.313278604643e-05       2.206225513594e-02 
       3.577595943165e-05       2.375870704909e-02 
       3.862999240274e-05       2.558560727479e-02 
       4.171170631739e-05       2.755297763344e-02 
       4.503926445983e-05       2.967161927316e-02 
       4.863227909323e-05       3.195316450832e-02 
       5.251192705226e-05       3.441013519284e-02 
       5.670107455699e-05       3.705601722526e-02 
       6.122441198393e-05       3.990533413561e-02 
       6.610859938837e-05       4.297372168203e-02 
       7.138242363583e-05       4.627802141688e-02 
       7.707696806873e-05       4.983636194159e-02 
       8.322579570814e-05       5.366826847231e-02 
       8.986514707061e-05       5.779476394568e-02 
       9.703415376577e-05       6.223848243885e-02 
       1.047750691338e-04       6.702379865640e-02 
       1.131335172818e-04       7.217695153381e-02 
       1.221587619877e-04       7.772619073570e-02 
       1.319039970550e-04       8.370193432376e-02 
       1.424266598317e-04       9.013692507545e-02 
       1.537887697396e-04       9.706641242570e-02 
       1.660572938097e-04       1.045283354271e-01 
       1.793045413791e-04       1.125635349068e-01 
       1.936085902737e-04       1.212159614968e-01 
       2.090537469909e-04       1.305329132714e-01 
       2.257310435923e-04       1.405652846215e-01 
       2.437387742372e-04       1.513678302540e-01 
       2.631830745176e-04       1.629994504871e-01 
       2.841785470091e-04       1.755234921224e-01 
       3.068489367268e-04       1.890080670413e-01 
       3.313278604643e-04       2.035264002435e-01 
       3.577595943165e-04       2.191571803681e-01 
       3.862999240274e-04       2.359849437592e-01 
       4.171170631739e-04       2.541004741539e-01 
       4.503926445983e-04       2.736012080277e-01 
       4.863227909323e-04       2.945916790965e-01 
       5.251192705226e-04       3.171839525182e-01 
       5.670107455699e-04       3.414980764002e-01 
       6.122441198393e-04       3.676625413100e-01 
       6.610859938837e-04       3.958147252304e-01 
       7.138242363583e-04       4.261013284911e-01 
       7.707696806873e-04       4.586787792354e-01 
       8.322579570814e-04       4.937136001349e-01 
       8.986514707061e-04       5.313826801402e-01 
       9.703415376577e-04       5.718734972157e-01 
       1.047750691338e-03       6.153841629505e-01 
       1.131335172818e-03       6.621233239466e-01 
       1.221587619877e-03       7.123098220434e-01 
       1.319039970550e-03       7.661720584578e-01 
       1.424266598317e-03       8.239546297729e-01 
       1.537887697396e-03       8.859011173466e-01 
       1.660572938097e-03       9.522588006421e-01 
       1.793045413791e-03       1.023280099819e+00 
       1.936085902737e-03       1.099216304579e+00 
       2.090537469909e-03       1.180312990454e+00 
       2.257310435923e-03       1.266804115853e+00 
       2.437387742372e-03       1.358904853405e+00 
       2.631830745176e-03       1.456802683156e+00 
       2.841785470091e-03       1.560646890522e+00 
       3.068489367268e-03       1.670536062500e+00 
       3.313278604643e-03       1.786503852158e+00 
       3.577595943165e-03       1.908502930789e+00 
       3.862999240274e-03       2.036387730709e+00 
       4.171170631739e-03       2.169896177850e+00 
       4.503926445983e-03       2.308631878994e+00 
       4.863227909323e-03       2.452047290962e+00 
       5.251192705226e-03       2.599430628088e+00 
       5.670107455699e-03       2.749896931847e+00 
       6.122441198393e-03       2.902386513382e+00 
       6.610859938837e-03       3.055668697611e+00 
       7.138242363583e-03       3.208356461543e+00 
       7.707696806873e-03       3.358923893125e+00 
       8.322579570814e-03       3.505725130996e+00 
       8.986514707061e-03       3.647009708988e+00 
       9.703415376577e-03       3.780923304340e+00 
       1.047750691338e-02       3.905490940339e+00 
       1.131335172818e-02       4.018588158504e+00 
       1.221587619877e-02       4.117901586609e+00 
       1.319039970550e-02       4.200915392007e+00 
       1.424266598317e-02       4.264944659123e+00 
       1.537887697392e-02       4.307219750110e+00 
       1.660572938023e-02       4.325063647937e+00 
       1.793045412706e-02       4.316059744274e+00 
       1.936085890181e-02       4.278228386465e+00 
       2.090537352463e-02       4.210208377465e+00 
       2.257309535333e-02       4.111416499851e+00 
       2.437382002918e-02       3.982426686256e+00 
       2.631799944462e-02       3.825166618542e+00 
       2.841644545389e-02       3.643283691785e+00 
       3.067933355377e-02       3.442190477435e+00 
       3.311368470740e-02       3.229237998156e+00 
       3.571840443502e-02       3.013521898484e+00 
       3.847720348444e-02       2.805286777235e+00 
       4.135335538431e-02       2.614408681919e+00 
       4.429361667738e-02       2.448130203447e+00 
       4.724366439141e-02       2.309232509336e+00 
       5.016480835311e-02       2.196113168007e+00 
       5.303989620246e-02       2.104366236106e+00 
       5.586870669566e-02       2.028465984050e+00 
       5.866042680613e-02       1.963153318929e+00 
       6.142798932958e-02       1.903779837170e+00 
       6.418496440164e-02       1.846477521043e+00 
       6.694418833788e-02       1.788197948378e+00 
       6.971731106057e-02       1.726714292536e+00 
       7.251476155766e-02       1.660653005289e+00 
       7.534587671527e-02       1.589471666122e+00 
       7.821907666265e-02       1.513435571816e+00 
       8.114203772912e-02       1.433566548347e+00 
       8.412184535029e-02       1.351494697996e+00 
       8.716512279304e-02       1.269274860229e+00 
       9.027813695930e-02       1.189195121679e+00 
       9.346688431697e-02       1.113501084204e+00 
       9.673716028276e-02       1.044175860183e+00 
       1.000946150830e-01       9.827044303386e-01 
       1.035447986537e-01       9.299393394017e-01 
       1.070931966762e-01       8.859585943399e-01 
       1.107452594425e-01       8.500724928452e-01 
       1.145064249153e-01       8.208037281280e-01 
       1.183821370918e-01       7.960258116972e-01 
       1.223778605862e-01       7.731454355423e-01 
       1.264990921987e-01       7.494513978540e-01 
       1.307513701367e-01       7.225569285771e-01 
       1.351402814784e-01       6.909086602844e-01 
       1.396714684203e-01       6.541797558895e-01 
       1.443506338194e-01       6.134263922308e-01 
       1.491835465229e-01       5.708680404063e-01 
       1.541760469708e-01       5.293640428966e-01 
       1.593340535561e-01       4.917118494231e-01 
       1.646635702297e-01       4.599206686046e-01 
       1.701706958456e-01       4.347284690649e-01 
       1.758616357459e-01       4.154079796200e-01 
       1.817427160982e-01       3.999374764559e-01 
       1.878204015065e-01       3.856824332840e-01 
       1.941013164283e-01       3.698096508960e-01 
       2.005922709503e-01       3.505464891849e-01 
       2.073002914972e-01       3.280434078655e-01 
       2.142326570816e-01       3.042137974946e-01 
       2.213969417533e-01       2.816123993647e-01 
       2.288010639706e-01       2.622572221127e-01 
       2.364533437147e-01       2.469625399504e-01 
       2.443625682930e-01       2.350133222203e-01 
       2.525380679504e-01       2.244180060829e-01 
       2.609898026346e-01       2.130930947635e-01 
       2.697284615565e-01       2.001016554102e-01 
       2.787655775689e-01       1.860200529137e-01 
       2.881136588829e-01       1.725171293899e-01 
       2.977863412677e-01       1.610661161359e-01 
       3.077985646929e-01       1.517610963224e-01 
       3.181667794071e-01       1.435594452248e-01 
       3.289091877812e-01       1.351810498310e-01 
       3.400460299658e-01       1.261641443672e-01 
       3.515999236474e-01       1.172021524793e-01 
       3.635962711085e-01       1.091767978969e-01 
       3.760637506334e-01       1.023093348549e-01 
       3.890349143879e-01       9.593779567116e-02 
       4.025469216825e-01       8.950779428612e-02 
       4.166424456376e-01       8.311174464384e-02 
       4.313708035863e-01       7.721549391323e-02 
       4.467893782977e-01       7.190044783426e-02 
       4.629654199664e-01       6.686904135138e-02 
       4.799783501994e-01       6.191765151375e-02 
       4.979227319373e-01       5.722228945215e-02 
       5.169121270864e-01       5.290286876599e-02 
       5.370841404489e-01       4.876982703472e-02 
       5.586070464571e-01       4.479081503075e-02 
       5.816885094930e-01       4.105186614329e-02 
       6.065870144995e-01       3.748990800937e-02 
       6.336266468475e-01       3.407633536277e-02 
       6.632156059511e-01       3.083464347653e-02 
       6.958678639263e-01       2.772831917576e-02 
       7.322247985589e-01       2.476708130901e-02 
       7.730680195114e-01       2.193950821955e-02 
       8.193049553677e-01       1.925611279173e-02 
       8.718988016039e-01       1.672928301758e-02 
       9.317218031082e-01       1.438417383984e-02 
       9.993660908989e-01       1.225065017388e-02 
       1.075037110174e+00       1.035259557428e-02 
       1.158653485707e+00       8.699641920644e-03 
       1.250099157308e+00       7.284514413498e-03 
       1.349432401273e+00       6.085383102373e-03 
       1.456947457397e+00       5.075624092150e-03 
       1.573135111331e+00       4.228197030470e-03 
       1.698621895592e+00       3.518433022313e-03 
       1.834127512934e+00       2.924850950853e-03 
       1.980444934528e+00       2.429027438246e-03 
       2.138435191726e+00       2.015353098055e-03 
       2.309029199186e+00       1.670611051394e-03 
       2.493232377687e+00       1.383617352939e-03 
       2.692130395285e+00       1.144936613831e-03 
       2.906895534573e+00       9.466456811594e-04 
       3.138793597714e+00       7.820630526073e-04 
       3.389191366484e+00       6.455840702672e-04 
       3.659564657905e+00       5.325062613096e-04 
       3.951507022538e+00       4.389051239979e-04 
       4.266739136701e+00       3.614870732205e-04 
       4.607118943941e+00       2.975060330437e-04 
       4.974652605557e+00       2.446679722035e-04 
       5.371506324689e+00       2.010656854286e-04 
       5.800019113685e+00       1.651111953797e-04 
       6.262716579983e+00       1.354831882567e-04 
       6.762325811764e+00       1.110815461363e-04 
       7.301791451110e+00       9.099891306249e-05 
       7.884293049406e+00       7.447938785437e-05 
       8.513263807261e+00       6.089817677322e-05 
       9.192410809424e+00       4.973881414658e-05 
       9.925736873929e+00       4.057269067924e-05 
       1.071756414427e+01       3.304738899976e-05 
       1.157255956364e+01       2.687215534285e-05 
       1.249576238137e+01       2.180580859741e-05 
       1.349261385375e+01       1.765103986769e-05 
       1.456898931416e+01       1.424483334867e-05 
       1.573123280165e+01       1.145333345344e-05 
       1.698619445202e+01       9.166625846161e-06 
       1.834127087176e+01       7.294688728148e-06 
       1.980444873285e+01       5.763823779290e-06 
       2.138435184532e+01       4.513606790375e-06 
       2.309029198506e+01       3.494950819210e-06 
       2.493232377636e+01       2.667733381988e-06 
       2.692130395282e+01       1.999539423085e-06 
       2.906895534573e+01       1.463864706655e-06 
       3.138793597714e+01       1.039298575247e-06 
       3.389191366484e+01       7.083238785723e-07 
       3.659564657905e+01       4.564528401090e-07 
       3.951507022538e+01       2.714739817510e-07 
       4.266739136701e+01       1.427690112190e-07 
       4.607118943941e+01       6.073440883841e-08 
       4.974652605557e+01       1.626016285692e-08 
       5.371506324689e+01       4.904103347480e-10 
       5.800019113685e+01       4.675758517105e-09 
       6.262716579983e+01       2.033344479898e-08 
       6.762325811764e+01       3.963637397123e-08 
