# Matter power spectrum P(k) at redshift z=0
# for k=1.04775e-05 to 67.6233 h/Mpc,
# number of wavenumbers equal to 246
#    1:k (h/Mpc)              2:P (Mpc/h)^3        
       1.047750691338e-05       5.020964806754e+01 
       1.131335172818e-05       5.407048206553e+01 
       1.221587619877e-05       5.822819064161e+01 
       1.319039970550e-05       6.270562589666e+01 
       1.424266598317e-05       6.752731788102e+01 
       1.537887697396e-05       7.271977200258e+01 
       1.660572938097e-05       7.831147241541e+01 
       1.793045413791e-05       8.433311815128e+01 
       1.936085902737e-05       9.081778242446e+01 
       2.090537469909e-05       9.780108061339e+01 
       2.257310435923e-05       1.053213197032e+02 
       2.437387742372e-05       1.134197377001e+02 
       2.631830745176e-05       1.221408202816e+02 
       2.841785470091e-05       1.315324720916e+02 
       3.068489367268e-05       1.416462093730e+02 
       3.313278604643e-05       1.525374500691e+02 
       3.577595943165e-05       1.642660687078e+02 
       3.862999240274e-05       1.768963504868e+02 
       4.171170631739e-05       1.904975992460e+02 
       4.503926445983e-05       2.051444490305e+02 
       4.863227909323e-05       2.209171463752e+02 
       5.251192705226e-05       2.379022222313e+02 
       5.670107455699e-05       2.561927925605e+02 
       6.122441198393e-05       2.758890441791e+02 
       6.610859938837e-05       2.970989225465e+02 
       7.138242363583e-05       3.199385558200e+02 
       7.707696806873e-05       3.445329780877e+02 
       8.322579570814e-05       3.710167315928e+02 
       8.986514707061e-05       3.995346440953e+02 
       9.703415376577e-05       4.302425403883e+02 
       1.047750691338e-04       4.633080762974e+02 
       1.131335172818e-04       4.989116267506e+02 
       1.221587619877e-04       5.372471946560e+02 
       1.319039970550e-04       5.785234124631e+02 
       1.424266598317e-04       6.229645930979e+02 
       1.537887697396e-04       6.708118484949e+02 
       1.660572938097e-04       7.223242660217e+02 
       1.793045413791e-04       7.777801552761e+02 
       1.936085902737e-04       8.374783607330e+02 
       2.090537469909e-04       9.017396264490e+02 
       2.257310435923e-04       9.709080260146e+02 
       2.437387742372e-04       1.045352448643e+03 
       2.631830745176e-04       1.125468122835e+03 
       2.841785470091e-04       1.211678179509e+03 
       3.068489367268e-04       1.304435249089e+03 
       3.313278604643e-04       1.404223052539e+03 
       3.577595943165e-04       1.511558013387e+03 
       3.862999240274e-04       1.626990836460e+03 
       4.171170631739e-04       1.751108027366e+03 
       4.503926445983e-04       1.884533381340e+03 
       4.863227909323e-04       2.027929376465e+03 
       5.251192705226e-04       2.181998446360e+03 
       5.670107455699e-04       2.347484100847e+03 
       6.122441198393e-04       2.525171869323e+03 
       6.610859938837e-04       2.715889981385e+03 
       7.138242363583e-04       2.920509686076e+03 
       7.707696806873e-04       3.139945097686e+03 
       8.322579570814e-04       3.375152334366e+03 
       8.986514707061e-04       3.627127828192e+03 
       9.703415376577e-04       3.896905449968e+03 
       1.047750691338e-03       4.185552170898e+03 
       1.131335172818e-03       4.494162426715e+03 
       1.221587619877e-03       4.823850702572e+03 
       1.319039970550e-03       5.175742734908e+03 
       1.424266598317e-03       5.551019592359e+03 
       1.537887697396e-03       5.950788335679e+03 
       1.660572938097e-03       6.376123046527e+03 
       1.793045413791e-03       6.828073895796e+03 
       1.936085902737e-03       7.307625374961e+03 
       2.090537469909e-03       7.815671907343e+03 
       2.257310435923e-03       8.352990368705e+03 
       2.437387742372e-03       8.920211056655e+03 
       2.631830745176e-03       9.517783060763e+03 
       2.841785470091e-03       1.014593703528e+04 
       3.068489367268e-03       1.080464505552e+04 
       3.313278604643e-03       1.149357459315e+04 
       3.577595943165e-03       1.221203620537e+04 
       3.862999240274e-03       1.295892538141e+04 
       4.171170631739e-03       1.373266001902e+04 
       4.503926445983e-03       1.453111834020e+04 
       4.863227909323e-03       1.535154963590e+04 
       5.251192705226e-03       1.619063489862e+04 
       5.670107455699e-03       1.704431248213e+04 
       6.122441198393e-03       1.790756007154e+04 
       6.610859938837e-03       1.877460446263e+04 
       7.138242363583e-03       1.963872623574e+04 
       7.707696806873e-03       2.049215674570e+04 
       8.322579570814e-03       2.132611289424e+04 
       8.986514707061e-03       2.213055952008e+04 
       9.703415376577e-03       2.289442561498e+04 
       1.047750691338e-02       2.360548494209e+04 
       1.131335172818e-02       2.425024336078e+04 
       1.221587619877e-02       2.481422452985e+04 
       1.319039970550e-02       2.528218729053e+04 
       1.424266598317e-02       2.563813284175e+04 
       1.537887697392e-02       2.586610254051e+04 
       1.660572938023e-02       2.595034661875e+04 
       1.793045412706e-02       2.587629306157e+04 
       1.936085890181e-02       2.563216480551e+04 
       2.090537352463e-02       2.520926669024e+04 
       2.257309535333e-02       2.460441774498e+04 
       2.437382002918e-02       2.382085197886e+04 
       2.631799944462e-02       2.287032738744e+04 
       2.841644545389e-02       2.177436925671e+04 
       3.067933355377e-02       2.056539531951e+04 
       3.311368470740e-02       1.928723337625e+04 
       3.571840443502e-02       1.799396789325e+04 
       3.847720348444e-02       1.674681578469e+04 
       4.135335538431e-02       1.560446839166e+04 
       4.429361667738e-02       1.461029231108e+04 
       4.724366439141e-02       1.378045430654e+04 
       5.016480835311e-02       1.310497079292e+04 
       5.303989620246e-02       1.255712332885e+04 
       5.586870669566e-02       1.210420564141e+04 
       5.866042680613e-02       1.171467303174e+04 
       6.142798932958e-02       1.136014870213e+04 
       6.418496440164e-02       1.101861329871e+04 
       6.694418833788e-02       1.067066130852e+04 
       6.971731106057e-02       1.030363979660e+04 
       7.251476155766e-02       9.909058775845e+03 
       7.534587671527e-02       9.483605667391e+03 
       7.821907666265e-02       9.029306098904e+03 
       8.114203772912e-02       8.552128661046e+03 
       8.412184535029e-02       8.061937878171e+03 
       8.716512279304e-02       7.570757406451e+03 
       9.027813695930e-02       7.092467568615e+03 
       9.346688431697e-02       6.640522263522e+03 
       9.673716028276e-02       6.226702842493e+03 
       1.000946150830e-01       5.859945978930e+03 
       1.035447986537e-01       5.545251494843e+03 
       1.070931966762e-01       5.283159428206e+03 
       1.107452594425e-01       5.069453966836e+03 
       1.145064249153e-01       4.895268739372e+03 
       1.183821370918e-01       4.747854662139e+03 
       1.223778605862e-01       4.611717862087e+03 
       1.264990921987e-01       4.470606643043e+03 
       1.307513701367e-01       4.310269807494e+03 
       1.351402814784e-01       4.121392350420e+03 
       1.396714684203e-01       3.902047523217e+03 
       1.443506338194e-01       3.658640926907e+03 
       1.491835465229e-01       3.404471905718e+03 
       1.541760469708e-01       3.156635543974e+03 
       1.593340535561e-01       2.931925396182e+03 
       1.646635702297e-01       2.742345320798e+03 
       1.701706958456e-01       2.592230339186e+03 
       1.758616357459e-01       2.477211740928e+03 
       1.817427160982e-01       2.385159713931e+03 
       1.878204015065e-01       2.300337913960e+03 
       1.941013164283e-01       2.205764926346e+03 
       2.005922709503e-01       2.090832464369e+03 
       2.073002914972e-01       1.956453374477e+03 
       2.142326570816e-01       1.814169689842e+03 
       2.213969417533e-01       1.679267915322e+03 
       2.288010639706e-01       1.563838436670e+03 
       2.364533437147e-01       1.472658890798e+03 
       2.443625682930e-01       1.401504094552e+03 
       2.525380679504e-01       1.338411653608e+03 
       2.609898026346e-01       1.270891147188e+03 
       2.697284615565e-01       1.193347851306e+03 
       2.787655775689e-01       1.109323611226e+03 
       2.881136588829e-01       1.028755266712e+03 
       2.977863412677e-01       9.604656323043e+02 
       3.077985646929e-01       9.050080331243e+02 
       3.181667794071e-01       8.561247811634e+02 
       3.289091877812e-01       8.061709397102e+02 
       3.400460299658e-01       7.523704925933e+02 
       3.515999236474e-01       6.989040061451e+02 
       3.635962711085e-01       6.510471649835e+02 
       3.760637506334e-01       6.101078723369e+02 
       3.890349143879e-01       5.721163186062e+02 
       4.025469216825e-01       5.337642384263e+02 
       4.166424456376e-01       4.956133476464e+02 
       4.313708035863e-01       4.604532191303e+02 
       4.467893782977e-01       4.287567534323e+02 
       4.629654199664e-01       3.987563405733e+02 
       4.799783501994e-01       3.692241283006e+02 
       4.979227319373e-01       3.412248279264e+02 
       5.169121270864e-01       3.154645513608e+02 
       5.370841404489e-01       2.908171700674e+02 
       5.586070464571e-01       2.670885509717e+02 
       5.816885094930e-01       2.447918322455e+02 
       6.065870144995e-01       2.235530427026e+02 
       6.336266468475e-01       2.031948609320e+02 
       6.632156059511e-01       1.838633114770e+02 
       6.958678639263e-01       1.653384934494e+02 
       7.322247985589e-01       1.476797780641e+02 
       7.730680195114e-01       1.308182041365e+02 
       8.193049553677e-01       1.148157511772e+02 
       8.718988016039e-01       9.974696172884e+01 
       9.317218031082e-01       8.576136479930e+01 
       9.993660908989e-01       7.303826267755e+01 
       1.075037110174e+00       6.171954241886e+01 
       1.158653485707e+00       5.186230451272e+01 
       1.250099157308e+00       4.342332730881e+01 
       1.349432401273e+00       3.627224737558e+01 
       1.456947457397e+00       3.025056386417e+01 
       1.573135111331e+00       2.519705409687e+01 
       1.698621895592e+00       2.096438531622e+01 
       1.834127512934e+00       1.742447346088e+01 
       1.980444934528e+00       1.446767193048e+01 
       2.138435191726e+00       1.200074722314e+01 
       2.309029199186e+00       9.944823474497e+00 
       2.493232377687e+00       8.233207674864e+00 
       2.692130395285e+00       6.809743102266e+00 
       2.906895534573e+00       5.627149553256e+00 
       3.138793597714e+00       4.645608747260e+00 
       3.389191366484e+00       3.831581495640e+00 
       3.659564657905e+00       3.157091088915e+00 
       3.951507022538e+00       2.598710954018e+00 
       4.266739136701e+00       2.136832853503e+00 
       4.607118943941e+00       1.755037597562e+00 
       4.974652605557e+00       1.439699157127e+00 
       5.371506324689e+00       1.179398739218e+00 
       5.800019113685e+00       9.646727994394e-01 
       6.262716579983e+00       7.876375196581e-01 
       6.762325811764e+00       6.417617627007e-01 
       7.301791451110e+00       5.216141219028e-01 
       7.884293049406e+00       4.227086715230e-01 
       8.513263807261e+00       3.413062910120e-01 
       9.192410809424e+00       2.743546774045e-01 
       9.925736873929e+00       2.193142927822e-01 
       1.071756414427e+01       1.740990950218e-01 
       1.157255956364e+01       1.369986529276e-01 
       1.249576238137e+01       1.066097612972e-01 
       1.349261385375e+01       8.178842221338e-02 
       1.456898931416e+01       6.160588469329e-02 
       1.573123280165e+01       4.531093472400e-02 
       1.698619445202e+01       3.229617758355e-02 
       1.834127087176e+01       2.207049892008e-02 
       1.980444873285e+01       1.423244831347e-02 
       2.138435184532e+01       8.443605888850e-03 
       2.309029198506e+01       4.407123043146e-03 
       2.493232377636e+01       1.843897187299e-03 
       2.692130395282e+01       4.752930807993e-04 
       2.906895534573e+01       1.086354374222e-05 
       3.138793597714e+01       1.483809611951e-04 
       3.389191366484e+01       5.867153874460e-04 
       3.659564657905e+01       1.054105394709e-03 
       3.951507022538e+01       1.346419037115e-03 
       4.266739136701e+01       1.362746912670e-03 
       4.607118943941e+01       1.121108477034e-03 
       4.974652605557e+01       7.370088444186e-04 
       5.371506324689e+01       3.633390998762e-04 
       5.800019113685e+01       1.137349523533e-04 
       6.262716579983e+01       1.190458872530e-05 
       6.762325811764e+01       1.913112986317e-06 
