# Matter power spectrum P(k) at redshift z=99
# for k=1.04775e-05 to 67.6233 h/Mpc,
# number of wavenumbers equal to 246
#    1:k (h/Mpc)              2:P (Mpc/h)^3        
       1.047750691338e-05       7.261927673120e-03 
       1.131335172818e-05       7.820331745738e-03 
       1.221587619877e-05       8.421675986489e-03 
       1.319039970550e-05       9.069258192195e-03 
       1.424266598317e-05       9.766638404422e-03 
       1.537887697396e-05       1.051764069682e-02 
       1.660572938097e-05       1.132639105520e-02 
       1.793045413791e-05       1.219733231417e-02 
       1.936085902737e-05       1.313524224381e-02 
       2.090537469909e-05       1.414527121893e-02 
       2.257310435923e-05       1.523296272192e-02 
       2.437387742372e-05       1.640429444530e-02 
       2.631830745176e-05       1.766569582178e-02 
       2.841785470091e-05       1.902408601793e-02 
       3.068489367268e-05       2.048692970592e-02 
       3.313278604643e-05       2.206225513594e-02 
       3.577595943165e-05       2.375870704909e-02 
       3.862999240274e-05       2.558560727479e-02 
       4.171170631739e-05       2.755297763344e-02 
       4.503926445983e-05       2.967161927315e-02 
       4.863227909323e-05       3.195316450832e-02 
       5.251192705226e-05       3.441013519285e-02 
       5.670107455699e-05       3.705601722526e-02 
       6.122441198393e-05       3.990533413561e-02 
       6.610859938837e-05       4.297372168203e-02 
       7.138242363583e-05       4.627802141689e-02 
       7.707696806873e-05       4.983636194159e-02 
       8.322579570814e-05       5.366826847232e-02 
       8.986514707061e-05       5.779476394569e-02 
       9.703415376577e-05       6.223848243885e-02 
       1.047750691338e-04       6.702379865640e-02 
       1.131335172818e-04       7.217695153381e-02 
       1.221587619877e-04       7.772619073570e-02 
       1.319039970550e-04       8.370193432377e-02 
       1.424266598317e-04       9.013692507547e-02 
       1.537887697396e-04       9.706641242571e-02 
       1.660572938097e-04       1.045283354272e-01 
       1.793045413791e-04       1.125635349068e-01 
       1.936085902737e-04       1.212159614968e-01 
       2.090537469909e-04       1.305329132715e-01 
       2.257310435923e-04       1.405652846215e-01 
       2.437387742372e-04       1.513678302540e-01 
       2.631830745176e-04       1.629994504871e-01 
       2.841785470091e-04       1.755234921225e-01 
       3.068489367268e-04       1.890080670413e-01 
       3.313278604643e-04       2.035264002435e-01 
       3.577595943165e-04       2.191571803681e-01 
       3.862999240274e-04       2.359849437593e-01 
       4.171170631739e-04       2.541004741539e-01 
       4.503926445983e-04       2.736012080278e-01 
       4.863227909323e-04       2.945916790965e-01 
       5.251192705226e-04       3.171839525183e-01 
       5.670107455699e-04       3.414980764002e-01 
       6.122441198393e-04       3.676625413101e-01 
       6.610859938837e-04       3.958147252304e-01 
       7.138242363583e-04       4.261013284907e-01 
       7.707696806873e-04       4.586787792354e-01 
       8.322579570814e-04       4.937136001359e-01 
       8.986514707061e-04       5.313826801402e-01 
       9.703415376577e-04       5.718734972158e-01 
       1.047750691338e-03       6.153841629505e-01 
       1.131335172818e-03       6.621233239466e-01 
       1.221587619877e-03       7.123098220427e-01 
       1.319039970550e-03       7.661720584499e-01 
       1.424266598317e-03       8.239546297731e-01 
       1.537887697396e-03       8.859011173467e-01 
       1.660572938097e-03       9.522588006400e-01 
       1.793045413791e-03       1.023280099819e+00 
       1.936085902737e-03       1.099216304579e+00 
       2.090537469909e-03       1.180312990453e+00 
       2.257310435923e-03       1.266804115849e+00 
       2.437387742372e-03       1.358904853406e+00 
       2.631830745176e-03       1.456802683156e+00 
       2.841785470091e-03       1.560646890521e+00 
       3.068489367268e-03       1.670536062499e+00 
       3.313278604643e-03       1.786503852160e+00 
       3.577595943165e-03       1.908502930788e+00 
       3.862999240274e-03       2.036387730706e+00 
       4.171170631739e-03       2.169896177300e+00 
       4.503926445983e-03       2.308631878987e+00 
       4.863227909323e-03       2.452047290953e+00 
       5.251192705226e-03       2.599430628075e+00 
       5.670107455699e-03       2.749896931788e+00 
       6.122441198393e-03       2.902386513357e+00 
       6.610859938837e-03       3.055668710059e+00 
       7.138242363583e-03       3.208356461489e+00 
       7.707696806873e-03       3.358923892371e+00 
       8.322579570814e-03       3.505725595173e+00 
       8.986514707061e-03       3.647009643235e+00 
       9.703415376577e-03       3.780923304033e+00 
       1.047750691338e-02       3.905489706792e+00 
       1.131335172818e-02       4.018587969319e+00 
       1.221587619877e-02       4.117901583891e+00 
       1.319039970550e-02       4.200915337653e+00 
       1.424266598317e-02       4.264943647214e+00 
       1.537887697392e-02       4.307220798304e+00 
       1.660572938023e-02       4.325062205473e+00 
       1.793045412706e-02       4.316062162060e+00 
       1.936085890181e-02       4.278228855604e+00 
       2.090537352463e-02       4.210204490106e+00 
       2.257309535333e-02       4.111421146770e+00 
       2.437382002918e-02       3.982421986796e+00 
       2.631799944462e-02       3.825164336126e+00 
       2.841644545389e-02       3.643288792154e+00 
       3.067933355377e-02       3.442203936830e+00 
       3.311368470740e-02       3.229238063825e+00 
       3.571840443502e-02       3.013515533894e+00 
       3.847720348444e-02       2.805277098475e+00 
       4.135335538431e-02       2.614414795688e+00 
       4.429361667738e-02       2.448139105616e+00 
       4.724366439141e-02       2.309240786879e+00 
       5.016480835311e-02       2.196110719836e+00 
       5.303989620246e-02       2.104365174285e+00 
       5.586870669566e-02       2.028465466446e+00 
       5.866042680613e-02       1.963153402411e+00 
       6.142798932958e-02       1.903780829790e+00 
       6.418496440164e-02       1.846480018965e+00 
       6.694418833788e-02       1.788198129606e+00 
       6.971731106057e-02       1.726718571116e+00 
       7.251476155766e-02       1.660654195923e+00 
       7.534587671527e-02       1.589472498779e+00 
       7.821907666265e-02       1.513436940379e+00 
       8.114203772912e-02       1.433569955329e+00 
       8.412184535029e-02       1.351494107467e+00 
       8.716512279304e-02       1.269276129376e+00 
       9.027813695930e-02       1.189194371425e+00 
       9.346688431697e-02       1.113501051772e+00 
       9.673716028276e-02       1.044178306749e+00 
       1.000946150830e-01       9.827069300623e-01 
       1.035447986537e-01       9.299390409893e-01 
       1.070931966762e-01       8.859602861864e-01 
       1.107452594425e-01       8.500709590583e-01 
       1.145064249153e-01       8.208010742698e-01 
       1.183821370918e-01       7.960230941660e-01 
       1.223778605862e-01       7.731452059048e-01 
       1.264990921987e-01       7.494503007393e-01 
       1.307513701367e-01       7.225560328685e-01 
       1.351402814784e-01       6.909077950981e-01 
       1.396714684203e-01       6.541803305481e-01 
       1.443506338194e-01       6.134246607462e-01 
       1.491835465229e-01       5.708661383580e-01 
       1.541760469708e-01       5.293609654635e-01 
       1.593340535561e-01       4.917092745154e-01 
       1.646635702297e-01       4.599175947191e-01 
       1.701706958456e-01       4.347276015363e-01 
       1.758616357459e-01       4.154061312854e-01 
       1.817427160982e-01       3.999344845802e-01 
       1.878204015065e-01       3.856801601739e-01 
       1.941013164283e-01       3.698057376951e-01 
       2.005922709503e-01       3.505434267843e-01 
       2.073002914972e-01       3.280391643170e-01 
       2.142326570816e-01       3.042098312133e-01 
       2.213969417533e-01       2.816085053255e-01 
       2.288010639706e-01       2.622539275181e-01 
       2.364533437147e-01       2.469578992716e-01 
       2.443625682930e-01       2.350083838939e-01 
       2.525380679504e-01       2.244124715888e-01 
       2.609898026346e-01       2.130883732287e-01 
       2.697284615565e-01       2.000960336031e-01 
       2.787655775689e-01       1.860139824940e-01 
       2.881136588829e-01       1.725112155873e-01 
       2.977863412677e-01       1.610595747725e-01 
       3.077985646929e-01       1.517546896119e-01 
       3.181667794071e-01       1.435523754444e-01 
       3.289091877812e-01       1.351742719206e-01 
       3.400460299658e-01       1.261562910634e-01 
       3.515999236474e-01       1.171936171231e-01 
       3.635962711085e-01       1.091681202788e-01 
       3.760637506334e-01       1.023005798218e-01 
       3.890349143879e-01       9.592820974821e-02 
       4.025469216825e-01       8.949770211968e-02 
       4.166424456376e-01       8.310114900643e-02 
       4.313708035863e-01       7.720456289696e-02 
       4.467893782977e-01       7.188928870877e-02 
       4.629654199664e-01       6.685698259980e-02 
       4.799783501994e-01       6.190486176894e-02 
       4.979227319373e-01       5.720909967633e-02 
       5.169121270864e-01       5.288910111735e-02 
       5.370841404489e-01       4.875527404050e-02 
       5.586070464571e-01       4.477551625574e-02 
       5.816885094930e-01       4.103563748052e-02 
       6.065870144995e-01       3.747302857179e-02 
       6.336266468475e-01       3.405836827301e-02 
       6.632156059511e-01       3.081558935148e-02 
       6.958678639263e-01       2.770816472277e-02 
       7.322247985589e-01       2.474580102468e-02 
       7.730680195114e-01       2.191677903833e-02 
       8.193049553677e-01       1.923181926851e-02 
       8.718988016039e-01       1.670319896719e-02 
       9.317218031082e-01       1.435615335798e-02 
       9.993660908989e-01       1.222038554023e-02 
       1.075037110174e+00       1.031988123610e-02 
       1.158653485707e+00       8.664395030922e-03 
       1.250099157308e+00       7.246415093301e-03 
       1.349432401273e+00       6.044263700155e-03 
       1.456947457397e+00       5.031391451123e-03 
       1.573135111331e+00       4.180706191617e-03 
       1.698621895592e+00       3.467515796491e-03 
       1.834127512934e+00       2.870410101740e-03 
       1.980444934528e+00       2.370972015321e-03 
       2.138435191726e+00       1.953620872439e-03 
       2.309029199186e+00       1.605145888846e-03 
       2.493232377687e+00       1.314425696365e-03 
       2.692130395285e+00       1.072076735604e-03 
       2.906895534573e+00       8.702203919520e-04 
       3.138793597714e+00       7.022536016823e-04 
       3.389191366484e+00       5.626628704495e-04 
       3.659564657905e+00       4.468427535900e-04 
       3.951507022538e+00       3.509768633483e-04 
       4.266739136701e+00       2.719015689179e-04 
       4.607118943941e+00       2.069980996219e-04 
       4.974652605557e+00       1.541254228463e-04 
       5.371506324689e+00       1.115096792257e-04 
       5.800019113685e+00       7.768478483398e-05 
       6.262716579983e+00       5.142866405472e-05 
       6.762325811764e+00       3.169540816047e-05 
       7.301791451110e+00       1.755974156423e-05 
       7.884293049406e+00       8.167936011716e-06 
       8.513263807261e+00       2.691955247333e-06 
       9.192410809424e+00       3.030672535592e-07 
       9.925736873929e+00       1.586015346620e-07 
       1.071756414427e+01       1.415254831833e-06 
       1.157255956364e+01       3.267495954799e-06 
       1.249576238137e+01       5.010143672681e-06 
       1.349261385375e+01       6.114803682614e-06 
       1.456898931416e+01       6.298773455033e-06 
       1.573123280165e+01       5.562539661252e-06 
       1.698619445202e+01       4.168538022302e-06 
       1.834127087176e+01       2.547837881188e-06 
       1.980444873285e+01       1.150161814147e-06 
       2.138435184532e+01       2.821863149934e-07 
       2.309029198506e+01       1.369627265832e-09 
       2.493232377636e+01       1.231147297453e-07 
       2.692130395282e+01       3.469011470786e-07 
       2.906895534573e+01       4.351814926641e-07 
       3.138793597714e+01       3.331131221810e-07 
       3.389191366484e+01       1.495287498451e-07 
       3.659564657905e+01       2.402805409562e-08 
       3.951507022538e+01       2.241616800104e-09 
       4.266739136701e+01       2.799404528579e-08 
       4.607118943941e+01       3.479164626141e-08 
       4.974652605557e+01       1.590908350835e-08 
       5.371506324689e+01       1.220876302376e-09 
       5.800019113685e+01       1.266615468471e-09 
       6.262716579983e+01       3.266452920637e-09 
       6.762325811764e+01       1.292951455704e-09 
