# Matter power spectrum P(k) at redshift z=99
# for k=1.04775e-05 to 67.6233 h/Mpc,
# number of wavenumbers equal to 246
#    1:k (h/Mpc)              2:P (Mpc/h)^3        
       1.047750691338e-05       7.261927673119e-03 
       1.131335172818e-05       7.820331745737e-03 
       1.221587619877e-05       8.421675986489e-03 
       1.319039970550e-05       9.069258192194e-03 
       1.424266598317e-05       9.766638404421e-03 
       1.537887697396e-05       1.051764069681e-02 
       1.660572938097e-05       1.132639105520e-02 
       1.793045413791e-05       1.219733231416e-02 
       1.936085902737e-05       1.313524224380e-02 
       2.090537469909e-05       1.414527121893e-02 
       2.257310435923e-05       1.523296272192e-02 
       2.437387742372e-05       1.640429444530e-02 
       2.631830745176e-05       1.766569582178e-02 
       2.841785470091e-05       1.902408601793e-02 
       3.068489367268e-05       2.048692970591e-02 
       3.313278604643e-05       2.206225513594e-02 
       3.577595943165e-05       2.375870704909e-02 
       3.862999240274e-05       2.558560727479e-02 
       4.171170631739e-05       2.755297763344e-02 
       4.503926445983e-05       2.967161927314e-02 
       4.863227909323e-05       3.195316450832e-02 
       5.251192705226e-05       3.441013519284e-02 
       5.670107455699e-05       3.705601722526e-02 
       6.122441198393e-05       3.990533413561e-02 
       6.610859938837e-05       4.297372168203e-02 
       7.138242363583e-05       4.627802141688e-02 
       7.707696806873e-05       4.983636194159e-02 
       8.322579570814e-05       5.366826847231e-02 
       8.986514707061e-05       5.779476394568e-02 
       9.703415376577e-05       6.223848243885e-02 
       1.047750691338e-04       6.702379865640e-02 
       1.131335172818e-04       7.217695153381e-02 
       1.221587619877e-04       7.772619073573e-02 
       1.319039970550e-04       8.370193432376e-02 
       1.424266598317e-04       9.013692507546e-02 
       1.537887697396e-04       9.706641242570e-02 
       1.660572938097e-04       1.045283354271e-01 
       1.793045413791e-04       1.125635349068e-01 
       1.936085902737e-04       1.212159614968e-01 
       2.090537469909e-04       1.305329132714e-01 
       2.257310435923e-04       1.405652846215e-01 
       2.437387742372e-04       1.513678302540e-01 
       2.631830745176e-04       1.629994504871e-01 
       2.841785470091e-04       1.755234921224e-01 
       3.068489367268e-04       1.890080670413e-01 
       3.313278604643e-04       2.035264002435e-01 
       3.577595943165e-04       2.191571803681e-01 
       3.862999240274e-04       2.359849437591e-01 
       4.171170631739e-04       2.541004741539e-01 
       4.503926445983e-04       2.736012080277e-01 
       4.863227909323e-04       2.945916790965e-01 
       5.251192705226e-04       3.171839525183e-01 
       5.670107455699e-04       3.414980764002e-01 
       6.122441198393e-04       3.676625413100e-01 
       6.610859938837e-04       3.958147252304e-01 
       7.138242363583e-04       4.261013284915e-01 
       7.707696806873e-04       4.586787792354e-01 
       8.322579570814e-04       4.937136001347e-01 
       8.986514707061e-04       5.313826801402e-01 
       9.703415376577e-04       5.718734972157e-01 
       1.047750691338e-03       6.153841629505e-01 
       1.131335172818e-03       6.621233239465e-01 
       1.221587619877e-03       7.123098220425e-01 
       1.319039970550e-03       7.661720584343e-01 
       1.424266598317e-03       8.239546297725e-01 
       1.537887697396e-03       8.859011173467e-01 
       1.660572938097e-03       9.522588006422e-01 
       1.793045413791e-03       1.023280099819e+00 
       1.936085902737e-03       1.099216304579e+00 
       2.090537469909e-03       1.180312990453e+00 
       2.257310435923e-03       1.266804115852e+00 
       2.437387742372e-03       1.358904853403e+00 
       2.631830745176e-03       1.456802683156e+00 
       2.841785470091e-03       1.560646890522e+00 
       3.068489367268e-03       1.670536062500e+00 
       3.313278604643e-03       1.786503852156e+00 
       3.577595943165e-03       1.908502930789e+00 
       3.862999240274e-03       2.036387730709e+00 
       4.171170631739e-03       2.169896178673e+00 
       4.503926445983e-03       2.308631878994e+00 
       4.863227909323e-03       2.452047290962e+00 
       5.251192705226e-03       2.599430628088e+00 
       5.670107455699e-03       2.749896931805e+00 
       6.122441198393e-03       2.902386513385e+00 
       6.610859938837e-03       3.055668712200e+00 
       7.138242363583e-03       3.208356461544e+00 
       7.707696806873e-03       3.358923892379e+00 
       8.322579570814e-03       3.505725595214e+00 
       8.986514707061e-03       3.647009630708e+00 
       9.703415376577e-03       3.780923304255e+00 
       1.047750691338e-02       3.905491191034e+00 
       1.131335172818e-02       4.018587641238e+00 
       1.221587619877e-02       4.117901587479e+00 
       1.319039970550e-02       4.200915237732e+00 
       1.424266598317e-02       4.264940607751e+00 
       1.537887697392e-02       4.307218069262e+00 
       1.660572938023e-02       4.325060819474e+00 
       1.793045412706e-02       4.316060259908e+00 
       1.936085890181e-02       4.278230445628e+00 
       2.090537352463e-02       4.210205523840e+00 
       2.257309535333e-02       4.111415931619e+00 
       2.437382002918e-02       3.982421404633e+00 
       2.631799944462e-02       3.825166942374e+00 
       2.841644545389e-02       3.643277508446e+00 
       3.067933355377e-02       3.442194608315e+00 
       3.311368470740e-02       3.229232685338e+00 
       3.571840443502e-02       3.013511966355e+00 
       3.847720348444e-02       2.805279576122e+00 
       4.135335538431e-02       2.614413439288e+00 
       4.429361667738e-02       2.448131677954e+00 
       4.724366439141e-02       2.309237334583e+00 
       5.016480835311e-02       2.196114663918e+00 
       5.303989620246e-02       2.104370244640e+00 
       5.586870669566e-02       2.028468602754e+00 
       5.866042680613e-02       1.963152843484e+00 
       6.142798932958e-02       1.903780460669e+00 
       6.418496440164e-02       1.846478326656e+00 
       6.694418833788e-02       1.788193385978e+00 
       6.971731106057e-02       1.726713706496e+00 
       7.251476155766e-02       1.660655653337e+00 
       7.534587671527e-02       1.589470407763e+00 
       7.821907666265e-02       1.513433406867e+00 
       8.114203772912e-02       1.433568036917e+00 
       8.412184535029e-02       1.351490279231e+00 
       8.716512279304e-02       1.269271405532e+00 
       9.027813695930e-02       1.189193266964e+00 
       9.346688431697e-02       1.113500737220e+00 
       9.673716028276e-02       1.044174394690e+00 
       1.000946150830e-01       9.827073477019e-01 
       1.035447986537e-01       9.299370478820e-01 
       1.070931966762e-01       8.859597789332e-01 
       1.107452594425e-01       8.500677632734e-01 
       1.145064249153e-01       8.208049572318e-01 
       1.183821370918e-01       7.960260570031e-01 
       1.223778605862e-01       7.731461436185e-01 
       1.264990921987e-01       7.494523897654e-01 
       1.307513701367e-01       7.225576153104e-01 
       1.351402814784e-01       6.909087440351e-01 
       1.396714684203e-01       6.541806975118e-01 
       1.443506338194e-01       6.134277663493e-01 
       1.491835465229e-01       5.708675001119e-01 
       1.541760469708e-01       5.293629648697e-01 
       1.593340535561e-01       4.917110427094e-01 
       1.646635702297e-01       4.599195311487e-01 
       1.701706958456e-01       4.347285347039e-01 
       1.758616357459e-01       4.154084352815e-01 
       1.817427160982e-01       3.999376774495e-01 
       1.878204015065e-01       3.856821599735e-01 
       1.941013164283e-01       3.698093300452e-01 
       2.005922709503e-01       3.505462670601e-01 
       2.073002914972e-01       3.280432081904e-01 
       2.142326570816e-01       3.042136547222e-01 
       2.213969417533e-01       2.816129118476e-01 
       2.288010639706e-01       2.622569209016e-01 
       2.364533437147e-01       2.469618349955e-01 
       2.443625682930e-01       2.350134855665e-01 
       2.525380679504e-01       2.244180172925e-01 
       2.609898026346e-01       2.130936237833e-01 
       2.697284615565e-01       2.001019030050e-01 
       2.787655775689e-01       1.860191103071e-01 
       2.881136588829e-01       1.725174966813e-01 
       2.977863412677e-01       1.610663641951e-01 
       3.077985646929e-01       1.517610782643e-01 
       3.181667794071e-01       1.435593624479e-01 
       3.289091877812e-01       1.351816459341e-01 
       3.400460299658e-01       1.261641519100e-01 
       3.515999236474e-01       1.172018596996e-01 
       3.635962711085e-01       1.091770062109e-01 
       3.760637506334e-01       1.023097608641e-01 
       3.890349143879e-01       9.593772287411e-02 
       4.025469216825e-01       8.950758470138e-02 
       4.166424456376e-01       8.311175140449e-02 
       4.313708035863e-01       7.721563035181e-02 
       4.467893782977e-01       7.190089332362e-02 
       4.629654199664e-01       6.686913232042e-02 
       4.799783501994e-01       6.191753567396e-02 
       4.979227319373e-01       5.722239742513e-02 
       5.169121270864e-01       5.290306376728e-02 
       5.370841404489e-01       4.876977450217e-02 
       5.586070464571e-01       4.479089448173e-02 
       5.816885094930e-01       4.105198089313e-02 
       6.065870144995e-01       3.749000007428e-02 
       6.336266468475e-01       3.407629294279e-02 
       6.632156059511e-01       3.083452462333e-02 
       6.958678639263e-01       2.772832099834e-02 
       7.322247985589e-01       2.476716441041e-02 
       7.730680195114e-01       2.193958182656e-02 
       8.193049553677e-01       1.925607301590e-02 
       8.718988016039e-01       1.672928462284e-02 
       9.317218031082e-01       1.438421278711e-02 
       9.993660908989e-01       1.225067961676e-02 
       1.075037110174e+00       1.035260172283e-02 
       1.158653485707e+00       8.699702901850e-03 
       1.250099157308e+00       7.284617019739e-03 
       1.349432401273e+00       6.085457754561e-03 
       1.456947457397e+00       5.075716491523e-03 
       1.573135111331e+00       4.228290748417e-03 
       1.698621895592e+00       3.518554300557e-03 
       1.834127512934e+00       2.924984396278e-03 
       1.980444934528e+00       2.429160737381e-03 
       2.138435191726e+00       2.015507509727e-03 
       2.309029199186e+00       1.670769030701e-03 
       2.493232377687e+00       1.383790359011e-03 
       2.692130395285e+00       1.145124471505e-03 
       2.906895534573e+00       9.468507987239e-04 
       3.138793597714e+00       7.822892375312e-04 
       3.389191366484e+00       6.458163525653e-04 
       3.659564657905e+00       5.327640332928e-04 
       3.951507022538e+00       4.391819347962e-04 
       4.266739136701e+00       3.617844100175e-04 
       4.607118943941e+00       2.978234100682e-04 
       4.974652605557e+00       2.450071317861e-04 
       5.371506324689e+00       2.014296240594e-04 
       5.800019113685e+00       1.654990882931e-04 
       6.262716579983e+00       1.358969910777e-04 
       6.762325811764e+00       1.115231258296e-04 
       7.301791451110e+00       9.146844566814e-05 
       7.884293049406e+00       7.497781941817e-05 
       8.513263807261e+00       6.142740179178e-05 
       9.192410809424e+00       5.029842143222e-05 
       9.925736873929e+00       4.116519303167e-05 
       1.071756414427e+01       3.367223221905e-05 
       1.157255956364e+01       2.752941326925e-05 
       1.249576238137e+01       2.249626255180e-05 
       1.349261385375e+01       1.837419723493e-05 
       1.456898931416e+01       1.499984947713e-05 
       1.573123280165e+01       1.223915071926e-05 
       1.698619445202e+01       9.981485119329e-06 
       1.834127087176e+01       8.135985188653e-06 
       1.980444873285e+01       6.628049904820e-06 
       2.138435184532e+01       5.396487541552e-06 
       2.309029198506e+01       4.390973601070e-06 
       2.493232377636e+01       3.570368565679e-06 
       2.692130395282e+01       2.900861553341e-06 
       2.906895534573e+01       2.354832129599e-06 
       3.138793597714e+01       1.909606670057e-06 
       3.389191366484e+01       1.546649419825e-06 
       3.659564657905e+01       1.250892045994e-06 
       3.951507022538e+01       1.009891904734e-06 
       4.266739136701e+01       8.135740791061e-07 
       4.607118943941e+01       6.536636594225e-07 
       4.974652605557e+01       5.234668767291e-07 
       5.371506324689e+01       4.174748486408e-07 
       5.800019113685e+01       3.312369621516e-07 
       6.262716579983e+01       2.611239142822e-07 
       6.762325811764e+01       2.041833444782e-07 
