# Matter power spectrum P(k) at redshift z=99
# for k=1.04775e-05 to 67.6233 h/Mpc,
# number of wavenumbers equal to 246
#    1:k (h/Mpc)              2:P (Mpc/h)^3        
       1.047750691338e-05       7.261927673119e-03 
       1.131335172818e-05       7.820331745737e-03 
       1.221587619877e-05       8.421675986489e-03 
       1.319039970550e-05       9.069258192194e-03 
       1.424266598317e-05       9.766638404421e-03 
       1.537887697396e-05       1.051764069682e-02 
       1.660572938097e-05       1.132639105520e-02 
       1.793045413791e-05       1.219733231416e-02 
       1.936085902737e-05       1.313524224380e-02 
       2.090537469909e-05       1.414527121893e-02 
       2.257310435923e-05       1.523296272192e-02 
       2.437387742372e-05       1.640429444530e-02 
       2.631830745176e-05       1.766569582178e-02 
       2.841785470091e-05       1.902408601793e-02 
       3.068489367268e-05       2.048692970591e-02 
       3.313278604643e-05       2.206225513594e-02 
       3.577595943165e-05       2.375870704909e-02 
       3.862999240274e-05       2.558560727479e-02 
       4.171170631739e-05       2.755297763344e-02 
       4.503926445983e-05       2.967161927316e-02 
       4.863227909323e-05       3.195316450832e-02 
       5.251192705226e-05       3.441013519284e-02 
       5.670107455699e-05       3.705601722522e-02 
       6.122441198393e-05       3.990533413561e-02 
       6.610859938837e-05       4.297372168203e-02 
       7.138242363583e-05       4.627802141688e-02 
       7.707696806873e-05       4.983636194159e-02 
       8.322579570814e-05       5.366826847231e-02 
       8.986514707061e-05       5.779476394569e-02 
       9.703415376577e-05       6.223848243885e-02 
       1.047750691338e-04       6.702379865640e-02 
       1.131335172818e-04       7.217695153381e-02 
       1.221587619877e-04       7.772619073569e-02 
       1.319039970550e-04       8.370193432376e-02 
       1.424266598317e-04       9.013692507547e-02 
       1.537887697396e-04       9.706641242570e-02 
       1.660572938097e-04       1.045283354271e-01 
       1.793045413791e-04       1.125635349068e-01 
       1.936085902737e-04       1.212159614968e-01 
       2.090537469909e-04       1.305329132714e-01 
       2.257310435923e-04       1.405652846215e-01 
       2.437387742372e-04       1.513678302540e-01 
       2.631830745176e-04       1.629994504870e-01 
       2.841785470091e-04       1.755234921224e-01 
       3.068489367268e-04       1.890080670413e-01 
       3.313278604643e-04       2.035264002435e-01 
       3.577595943165e-04       2.191571803681e-01 
       3.862999240274e-04       2.359849437593e-01 
       4.171170631739e-04       2.541004741539e-01 
       4.503926445983e-04       2.736012080277e-01 
       4.863227909323e-04       2.945916790965e-01 
       5.251192705226e-04       3.171839525183e-01 
       5.670107455699e-04       3.414980764002e-01 
       6.122441198393e-04       3.676625413100e-01 
       6.610859938837e-04       3.958147252304e-01 
       7.138242363583e-04       4.261013284917e-01 
       7.707696806873e-04       4.586787792354e-01 
       8.322579570814e-04       4.937136001372e-01 
       8.986514707061e-04       5.313826801402e-01 
       9.703415376577e-04       5.718734972157e-01 
       1.047750691338e-03       6.153841629505e-01 
       1.131335172818e-03       6.621233239466e-01 
       1.221587619877e-03       7.123098220427e-01 
       1.319039970550e-03       7.661720584352e-01 
       1.424266598317e-03       8.239546297728e-01 
       1.537887697396e-03       8.859011173467e-01 
       1.660572938097e-03       9.522588006421e-01 
       1.793045413791e-03       1.023280099819e+00 
       1.936085902737e-03       1.099216304579e+00 
       2.090537469909e-03       1.180312990453e+00 
       2.257310435923e-03       1.266804115852e+00 
       2.437387742372e-03       1.358904853405e+00 
       2.631830745176e-03       1.456802683156e+00 
       2.841785470091e-03       1.560646890521e+00 
       3.068489367268e-03       1.670536062500e+00 
       3.313278604643e-03       1.786503852159e+00 
       3.577595943165e-03       1.908502930789e+00 
       3.862999240274e-03       2.036387730709e+00 
       4.171170631739e-03       2.169896177997e+00 
       4.503926445983e-03       2.308631878993e+00 
       4.863227909323e-03       2.452047290961e+00 
       5.251192705226e-03       2.599430628086e+00 
       5.670107455699e-03       2.749896931882e+00 
       6.122441198393e-03       2.902386513383e+00 
       6.610859938837e-03       3.055668708231e+00 
       7.138242363583e-03       3.208356461539e+00 
       7.707696806873e-03       3.358923893100e+00 
       8.322579570814e-03       3.505725594857e+00 
       8.986514707061e-03       3.647009712401e+00 
       9.703415376577e-03       3.780923304323e+00 
       1.047750691338e-02       3.905490953393e+00 
       1.131335172818e-02       4.018587644070e+00 
       1.221587619877e-02       4.117901584246e+00 
       1.319039970550e-02       4.200915375803e+00 
       1.424266598317e-02       4.264942349349e+00 
       1.537887697392e-02       4.307218043721e+00 
       1.660572938023e-02       4.325063182789e+00 
       1.793045412706e-02       4.316060852191e+00 
       1.936085890181e-02       4.278227272554e+00 
       2.090537352463e-02       4.210200771249e+00 
       2.257309535333e-02       4.111424834772e+00 
       2.437382002918e-02       3.982417157157e+00 
       2.631799944462e-02       3.825169440166e+00 
       2.841644545389e-02       3.643282850201e+00 
       3.067933355377e-02       3.442203072452e+00 
       3.311368470740e-02       3.229228903012e+00 
       3.571840443502e-02       3.013512340997e+00 
       3.847720348444e-02       2.805279599701e+00 
       4.135335538431e-02       2.614405336045e+00 
       4.429361667738e-02       2.448136208765e+00 
       4.724366439141e-02       2.309239918343e+00 
       5.016480835311e-02       2.196108423061e+00 
       5.303989620246e-02       2.104362495315e+00 
       5.586870669566e-02       2.028461903948e+00 
       5.866042680613e-02       1.963149826039e+00 
       6.142798932958e-02       1.903783387454e+00 
       6.418496440164e-02       1.846474608977e+00 
       6.694418833788e-02       1.788197639711e+00 
       6.971731106057e-02       1.726715706679e+00 
       7.251476155766e-02       1.660655205983e+00 
       7.534587671527e-02       1.589468282477e+00 
       7.821907666265e-02       1.513438487593e+00 
       8.114203772912e-02       1.433567393300e+00 
       8.412184535029e-02       1.351492614809e+00 
       8.716512279304e-02       1.269274001411e+00 
       9.027813695930e-02       1.189194095979e+00 
       9.346688431697e-02       1.113501033680e+00 
       9.673716028276e-02       1.044174877603e+00 
       1.000946150830e-01       9.826992480973e-01 
       1.035447986537e-01       9.299377727276e-01 
       1.070931966762e-01       8.859609718520e-01 
       1.107452594425e-01       8.500745620704e-01 
       1.145064249153e-01       8.208030283458e-01 
       1.183821370918e-01       7.960263709914e-01 
       1.223778605862e-01       7.731452884119e-01 
       1.264990921987e-01       7.494511623792e-01 
       1.307513701367e-01       7.225562641134e-01 
       1.351402814784e-01       6.909073592329e-01 
       1.396714684203e-01       6.541809085125e-01 
       1.443506338194e-01       6.134270256040e-01 
       1.491835465229e-01       5.708688034801e-01 
       1.541760469708e-01       5.293628755847e-01 
       1.593340535561e-01       4.917105711561e-01 
       1.646635702297e-01       4.599195149718e-01 
       1.701706958456e-01       4.347296439072e-01 
       1.758616357459e-01       4.154073232411e-01 
       1.817427160982e-01       3.999372506486e-01 
       1.878204015065e-01       3.856820499000e-01 
       1.941013164283e-01       3.698092077649e-01 
       2.005922709503e-01       3.505457464925e-01 
       2.073002914972e-01       3.280430251219e-01 
       2.142326570816e-01       3.042133045789e-01 
       2.213969417533e-01       2.816114938244e-01 
       2.288010639706e-01       2.622573104980e-01 
       2.364533437147e-01       2.469622319067e-01 
       2.443625682930e-01       2.350127261413e-01 
       2.525380679504e-01       2.244173088657e-01 
       2.609898026346e-01       2.130935209181e-01 
       2.697284615565e-01       2.001020826327e-01 
       2.787655775689e-01       1.860198236772e-01 
       2.881136588829e-01       1.725170919886e-01 
       2.977863412677e-01       1.610665438247e-01 
       3.077985646929e-01       1.517609125247e-01 
       3.181667794071e-01       1.435589571622e-01 
       3.289091877812e-01       1.351813519842e-01 
       3.400460299658e-01       1.261637994934e-01 
       3.515999236474e-01       1.172017500105e-01 
       3.635962711085e-01       1.091765711678e-01 
       3.760637506334e-01       1.023088290505e-01 
       3.890349143879e-01       9.593724292095e-02 
       4.025469216825e-01       8.950727495376e-02 
       4.166424456376e-01       8.311137073786e-02 
       4.313708035863e-01       7.721494428137e-02 
       4.467893782977e-01       7.189996644182e-02 
       4.629654199664e-01       6.686853017711e-02 
       4.799783501994e-01       6.191692962118e-02 
       4.979227319373e-01       5.722161047160e-02 
       5.169121270864e-01       5.290229192167e-02 
       5.370841404489e-01       4.876901721419e-02 
       5.586070464571e-01       4.479010507935e-02 
       5.816885094930e-01       4.105121093655e-02 
       6.065870144995e-01       3.748915132860e-02 
       6.336266468475e-01       3.407539277742e-02 
       6.632156059511e-01       3.083377723194e-02 
       6.958678639263e-01       2.772726994193e-02 
       7.322247985589e-01       2.476601590367e-02 
       7.730680195114e-01       2.193844965450e-02 
       8.193049553677e-01       1.925487687788e-02 
       8.718988016039e-01       1.672800147007e-02 
       9.317218031082e-01       1.438278165685e-02 
       9.993660908989e-01       1.224912495851e-02 
       1.075037110174e+00       1.035091395034e-02 
       1.158653485707e+00       8.697903419038e-03 
       1.250099157308e+00       7.282625791035e-03 
       1.349432401273e+00       6.083349097678e-03 
       1.456947457397e+00       5.073413163780e-03 
       1.573135111331e+00       4.225808911150e-03 
       1.698621895592e+00       3.515847393075e-03 
       1.834127512934e+00       2.922068608863e-03 
       1.980444934528e+00       2.426009636618e-03 
       2.138435191726e+00       2.012116324847e-03 
       2.309029199186e+00       1.667117603043e-03 
       2.493232377687e+00       1.379861221664e-03 
       2.692130395285e+00       1.140917835783e-03 
       2.906895534573e+00       9.423438895289e-04 
       3.138793597714e+00       7.774562738938e-04 
       3.389191366484e+00       6.406667697989e-04 
       3.659564657905e+00       5.272697764934e-04 
       3.951507022538e+00       4.333337318008e-04 
       4.266739136701e+00       3.555759198834e-04 
       4.607118943941e+00       2.912487534408e-04 
       4.974652605557e+00       2.380589944295e-04 
       5.371506324689e+00       1.941058983821e-04 
       5.800019113685e+00       1.578041092001e-04 
       6.262716579983e+00       1.278350762396e-04 
       6.762325811764e+00       1.031095920464e-04 
       7.301791451110e+00       8.272382837800e-05 
       7.884293049406e+00       6.593242374081e-05 
       8.513263807261e+00       5.211941906750e-05 
       9.192410809424e+00       4.077866943401e-05 
       9.925736873929e+00       3.149572776177e-05 
       1.071756414427e+01       2.393101000210e-05 
       1.157255956364e+01       1.780601008561e-05 
       1.249576238137e+01       1.289480549480e-05 
       1.349261385375e+01       9.011713257882e-06 
       1.456898931416e+01       6.003061188349e-06 
       1.573123280165e+01       3.740131822335e-06 
       1.698619445202e+01       2.111559076371e-06 
       1.834127087176e+01       1.017155515252e-06 
       1.980444873285e+01       3.627729692526e-07 
       2.138435184532e+01       5.648352914107e-08 
       2.309029198506e+01       6.596744440652e-09 
       2.493232377636e+01       1.221614080968e-07 
       2.692130395282e+01       3.161434864926e-07 
       2.906895534573e+01       5.112132663766e-07 
       3.138793597714e+01       6.472134879867e-07 
       3.389191366484e+01       6.886197835717e-07 
       3.659564657905e+01       6.292402904144e-07 
       3.951507022538e+01       4.913724243011e-07 
       4.266739136701e+01       3.179043689498e-07 
       4.607118943941e+01       1.576469981667e-07 
       4.974652605557e+01       4.819953555825e-08 
       5.371506324689e+01       2.711006681941e-09 
       5.800019113685e+01       7.306586653228e-09 
       6.262716579983e+01       3.146174550561e-08 
       6.762325811764e+01       4.640060723033e-08 
