# Matter power spectrum P(k) at redshift z=99
# for k=1.04775e-05 to 134.926 h/Mpc,
# number of wavenumbers equal to 255
#    1:k (h/Mpc)              2:P (Mpc/h)^3        
       1.047750691338e-05       7.261927095471e-03 
       1.131335172818e-05       7.820332150955e-03 
       1.221587619877e-05       8.421675382546e-03 
       1.319039970550e-05       9.069257738235e-03 
       1.424266598317e-05       9.766636451376e-03 
       1.537887697396e-05       1.051763973668e-02 
       1.660572938097e-05       1.132639250781e-02 
       1.793045413791e-05       1.219733201540e-02 
       1.936085902737e-05       1.313524187237e-02 
       2.090537469909e-05       1.414527085014e-02 
       2.257310435923e-05       1.523296544532e-02 
       2.437387742372e-05       1.640429654684e-02 
       2.631830745176e-05       1.766569603333e-02 
       2.841785470091e-05       1.902408711213e-02 
       3.068489367268e-05       2.048692967499e-02 
       3.313278604643e-05       2.206225467609e-02 
       3.577595943165e-05       2.375870883917e-02 
       3.862999240274e-05       2.558560669892e-02 
       4.171170631739e-05       2.755297672583e-02 
       4.503926445983e-05       2.967161933494e-02 
       4.863227909323e-05       3.195316455744e-02 
       5.251192705226e-05       3.441013466229e-02 
       5.670107455699e-05       3.705601741804e-02 
       6.122441198393e-05       3.990533412946e-02 
       6.610859938837e-05       4.297372242649e-02 
       7.138242363583e-05       4.627802054977e-02 
       7.707696806873e-05       4.983636160024e-02 
       8.322579570814e-05       5.366826787080e-02 
       8.986514707061e-05       5.779476319892e-02 
       9.703415376577e-05       6.223848222007e-02 
       1.047750691338e-04       6.702379825205e-02 
       1.131335172818e-04       7.217695031278e-02 
       1.221587619877e-04       7.772619030576e-02 
       1.319039970550e-04       8.370193380271e-02 
       1.424266598317e-04       9.013692506916e-02 
       1.537887697396e-04       9.706641130667e-02 
       1.660572938097e-04       1.045283343140e-01 
       1.793045413791e-04       1.125635329217e-01 
       1.936085902737e-04       1.212159592343e-01 
       2.090537469909e-04       1.305329107472e-01 
       2.257310435923e-04       1.405652819400e-01 
       2.437387742372e-04       1.513678275119e-01 
       2.631830745176e-04       1.629994475179e-01 
       2.841785470091e-04       1.755234890528e-01 
       3.068489367268e-04       1.890080645353e-01 
       3.313278604643e-04       2.035263977489e-01 
       3.577595943165e-04       2.191571778107e-01 
       3.862999240274e-04       2.359849423327e-01 
       4.171170631739e-04       2.541004713073e-01 
       4.503926445983e-04       2.736012061235e-01 
       4.863227909323e-04       2.945916774724e-01 
       5.251192705226e-04       3.171839507950e-01 
       5.670107455699e-04       3.414980769199e-01 
       6.122441198393e-04       3.676625416396e-01 
       6.610859938837e-04       3.958147272965e-01 
       7.138242363583e-04       4.261013332169e-01 
       7.707696806873e-04       4.586787880957e-01 
       8.322579570814e-04       4.937136112931e-01 
       8.986514707061e-04       5.313826962187e-01 
       9.703415376577e-04       5.718735176913e-01 
       1.047750691338e-03       6.153841926355e-01 
       1.131335172818e-03       6.621233623220e-01 
       1.221587619877e-03       7.123098743739e-01 
       1.319039970550e-03       7.661721263854e-01 
       1.424266598317e-03       8.239547181336e-01 
       1.537887697396e-03       8.859012282802e-01 
       1.660572938097e-03       9.522589495670e-01 
       1.793045413791e-03       1.023280284719e+00 
       1.936085902737e-03       1.099216542098e+00 
       2.090537469909e-03       1.180313285015e+00 
       2.257310435923e-03       1.266804486769e+00 
       2.437387742372e-03       1.358905328400e+00 
       2.631830745176e-03       1.456803285855e+00 
       2.841785470091e-03       1.560647662902e+00 
       3.068489367268e-03       1.670537010388e+00 
       3.313278604643e-03       1.786505039383e+00 
       3.577595943165e-03       1.908504409776e+00 
       3.862999240274e-03       2.036389468306e+00 
       4.171170631739e-03       2.169898252210e+00 
       4.503926445983e-03       2.308634491199e+00 
       4.863227909323e-03       2.452050673780e+00 
       5.251192705226e-03       2.599434679856e+00 
       5.670107455699e-03       2.749901124835e+00 
       6.122441198393e-03       2.902390056263e+00 
       6.610859938837e-03       3.055671267222e+00 
       7.138242363583e-03       3.208360119579e+00 
       7.707696806873e-03       3.358926647286e+00 
       8.322579570814e-03       3.505726884811e+00 
       8.986514707061e-03       3.647012431622e+00 
       9.703415376577e-03       3.780926171711e+00 
       1.047750691338e-02       3.905492871378e+00 
       1.131335172818e-02       4.018589814744e+00 
       1.221587619877e-02       4.117902875134e+00 
       1.319039970550e-02       4.200917683951e+00 
       1.424266598317e-02       4.264943719298e+00 
       1.537887697392e-02       4.307219646283e+00 
       1.660572938023e-02       4.325062430121e+00 
       1.793045412706e-02       4.316060359355e+00 
       1.936085890181e-02       4.278228893369e+00 
       2.090537352463e-02       4.210204427220e+00 
       2.257309535333e-02       4.111418693843e+00 
       2.437382002918e-02       3.982420871858e+00 
       2.631799944462e-02       3.825168608768e+00 
       2.841644545389e-02       3.643282156350e+00 
       3.067933355377e-02       3.442198600220e+00 
       3.311368470740e-02       3.229241476408e+00 
       3.571840443502e-02       3.013516196375e+00 
       3.847720348444e-02       2.805283789290e+00 
       4.135335538431e-02       2.614410496788e+00 
       4.429361667738e-02       2.448131997922e+00 
       4.724366439141e-02       2.309240446596e+00 
       5.016480835311e-02       2.196114978507e+00 
       5.303989620246e-02       2.104369628775e+00 
       5.586870669566e-02       2.028462349761e+00 
       5.866042680613e-02       1.963155055725e+00 
       6.142798932958e-02       1.903779441774e+00 
       6.418496440164e-02       1.846478930336e+00 
       6.694418833788e-02       1.788197185431e+00 
       6.971731106057e-02       1.726715374022e+00 
       7.251476155766e-02       1.660654069487e+00 
       7.534587671527e-02       1.589469518044e+00 
       7.821907666265e-02       1.513436226085e+00 
       8.114203772912e-02       1.433568402218e+00 
       8.412184535029e-02       1.351491887897e+00 
       8.716512279304e-02       1.269273352419e+00 
       9.027813695930e-02       1.189192777924e+00 
       9.346688431697e-02       1.113500705661e+00 
       9.673716028276e-02       1.044174032954e+00 
       1.000946150830e-01       9.827055472922e-01 
       1.035447986537e-01       9.299372468713e-01 
       1.070931966762e-01       8.859580090008e-01 
       1.107452594425e-01       8.500705559930e-01 
       1.145064249153e-01       8.208027581559e-01 
       1.183821370918e-01       7.960236267353e-01 
       1.223778605862e-01       7.731449890575e-01 
       1.264990921987e-01       7.494513653072e-01 
       1.307513701367e-01       7.225567896669e-01 
       1.351402814784e-01       6.909087949138e-01 
       1.396714684203e-01       6.541815649865e-01 
       1.443506338194e-01       6.134269917844e-01 
       1.491835465229e-01       5.708676295245e-01 
       1.541760469708e-01       5.293628926995e-01 
       1.593340535561e-01       4.917093946985e-01 
       1.646635702297e-01       4.599184339642e-01 
       1.701706958456e-01       4.347263158273e-01 
       1.758616357459e-01       4.154061343429e-01 
       1.817427160982e-01       3.999344428764e-01 
       1.878204015065e-01       3.856839196955e-01 
       1.941013164283e-01       3.698121249473e-01 
       2.005922709503e-01       3.505494883673e-01 
       2.073002914972e-01       3.280441987612e-01 
       2.142326570816e-01       3.042114518998e-01 
       2.213969417533e-01       2.816092175298e-01 
       2.288010639706e-01       2.622543542633e-01 
       2.364533437147e-01       2.469592169606e-01 
       2.443625682930e-01       2.350102211328e-01 
       2.525380679504e-01       2.244174726097e-01 
       2.609898026346e-01       2.130930923973e-01 
       2.697284615565e-01       2.000993175064e-01 
       2.787655775689e-01       1.860166324806e-01 
       2.881136588829e-01       1.725137826368e-01 
       2.977863412677e-01       1.610625578143e-01 
       3.077985646929e-01       1.517572401050e-01 
       3.181667794071e-01       1.435558828967e-01 
       3.289091877812e-01       1.351779131933e-01 
       3.400460299658e-01       1.261601275960e-01 
       3.515999236474e-01       1.171978615140e-01 
       3.635962711085e-01       1.091725383282e-01 
       3.760637506334e-01       1.023050011440e-01 
       3.890349143879e-01       9.593297783386e-02 
       4.025469216825e-01       8.950283117617e-02 
       4.166424456376e-01       8.310664185985e-02 
       4.313708035863e-01       7.721029502167e-02 
       4.467893782977e-01       7.189526707914e-02 
       4.629654199664e-01       6.686359432386e-02 
       4.799783501994e-01       6.191178530764e-02 
       4.979227319373e-01       5.721624005342e-02 
       5.169121270864e-01       5.289673654020e-02 
       5.370841404489e-01       4.876326248392e-02 
       5.586070464571e-01       4.478409766216e-02 
       5.816885094930e-01       4.104498211044e-02 
       6.065870144995e-01       3.748271370669e-02 
       6.336266468475e-01       3.406878024573e-02 
       6.632156059511e-01       3.082673195067e-02 
       6.958678639263e-01       2.772003716844e-02 
       7.322247985589e-01       2.475843577089e-02 
       7.730680195114e-01       2.193039207328e-02 
       8.193049553677e-01       1.924635000930e-02 
       8.718988016039e-01       1.671895809092e-02 
       9.317218031082e-01       1.437308261886e-02 
       9.993660908989e-01       1.223869839160e-02 
       1.075037110174e+00       1.033968293663e-02 
       1.158653485707e+00       8.685734814034e-03 
       1.250099157308e+00       7.269434093593e-03 
       1.349432401273e+00       6.069051545420e-03 
       1.456947457397e+00       5.057931217975e-03 
       1.573135111331e+00       4.209020994647e-03 
       1.698621895592e+00       3.497645214538e-03 
       1.834127512934e+00       2.902351940620e-03 
       1.980444934528e+00       2.404647858319e-03 
       2.138435191726e+00       1.989002637962e-03 
       2.309029199186e+00       1.642130121424e-03 
       2.493232377687e+00       1.352901156683e-03 
       2.692130395285e+00       1.111846034408e-03 
       2.906895534573e+00       9.110638273123e-04 
       3.138793597714e+00       7.439087031865e-04 
       3.389191366484e+00       6.047534274386e-04 
       3.659564657905e+00       4.889831455636e-04 
       3.951507022538e+00       3.926779689447e-04 
       4.266739136701e+00       3.126639468336e-04 
       4.607118943941e+00       2.462154571112e-04 
       4.974652605557e+00       1.911818409711e-04 
       5.371506324689e+00       1.456978727388e-04 
       5.800019113685e+00       1.084332061428e-04 
       6.262716579983e+00       7.811419121988e-05 
       6.762325811764e+00       5.385633574398e-05 
       7.301791451110e+00       3.490642264135e-05 
       7.884293049406e+00       2.064306235432e-05 
       8.513263807261e+00       1.054122156129e-05 
       9.192410809424e+00       4.102990104343e-06 
       9.925736873929e+00       7.910965251405e-07 
       1.071756414427e+01       1.996826646055e-08 
       1.157255956364e+01       1.094197553703e-06 
       1.249576238137e+01       3.233385008909e-06 
       1.349261385375e+01       5.614360489982e-06 
       1.456898931416e+01       7.456993755589e-06 
       1.573123280165e+01       8.211248069865e-06 
       1.698619445202e+01       7.614808225949e-06 
       1.834127087176e+01       5.883143274821e-06 
       1.980444873285e+01       3.592051172215e-06 
       2.138435184532e+01       1.511353541818e-06 
       2.309029198506e+01       2.589794353579e-07 
       2.493232377636e+01       2.320309667352e-08 
       2.692130395282e+01       4.319097458243e-07 
       2.906895534573e+01       8.589347432018e-07 
       3.138793597714e+01       8.797607487761e-07 
       3.389191366484e+01       5.031160125482e-07 
       3.659564657905e+01       1.115101825973e-07 
       3.951507022538e+01       9.259864588726e-10 
       4.266739136701e+01       7.347513159016e-08 
       4.607118943941e+01       1.011812161459e-07 
       4.974652605557e+01       4.099858220865e-08 
       5.371506324689e+01       8.917442996478e-10 
       5.800019113685e+01       6.259914039095e-09 
       6.262716579983e+01       8.111638215688e-09 
       6.762325811764e+01       8.798428778204e-10 
       7.301791451110e+01       2.787905971941e-10 
       7.884293049406e+01       2.542274349486e-10 
       8.513263807261e+01       2.771382396377e-12 
       9.192410809424e+01       1.860886539352e-11 
       9.925736873929e+01       1.504878977568e-12 
       1.071756414427e+02       1.279618478124e-12 
       1.157255956364e+02       1.890183683646e-11 
       1.249576238137e+02       1.779125378740e-11 
       1.349261385375e+02       8.497379146229e-11 
