# Matter power spectrum P(k) at redshift z=0
# for k=1.04775e-05 to 67.6233 h/Mpc,
# number of wavenumbers equal to 246
#    1:k (h/Mpc)              2:P (Mpc/h)^3        
       1.047750691338e-05       5.020964806751e+01 
       1.131335172818e-05       5.407048206554e+01 
       1.221587619877e-05       5.822819063877e+01 
       1.319039970550e-05       6.270562589678e+01 
       1.424266598317e-05       6.752731788102e+01 
       1.537887697396e-05       7.271977200258e+01 
       1.660572938097e-05       7.831147241542e+01 
       1.793045413791e-05       8.433311815128e+01 
       1.936085902737e-05       9.081778242446e+01 
       2.090537469909e-05       9.780108061339e+01 
       2.257310435923e-05       1.053213197032e+02 
       2.437387742372e-05       1.134197377001e+02 
       2.631830745176e-05       1.221408202816e+02 
       2.841785470091e-05       1.315324720916e+02 
       3.068489367268e-05       1.416462093730e+02 
       3.313278604643e-05       1.525374500691e+02 
       3.577595943165e-05       1.642660687078e+02 
       3.862999240274e-05       1.768963504868e+02 
       4.171170631739e-05       1.904975992460e+02 
       4.503926445983e-05       2.051444490305e+02 
       4.863227909323e-05       2.209171463752e+02 
       5.251192705226e-05       2.379022222314e+02 
       5.670107455699e-05       2.561927925660e+02 
       6.122441198393e-05       2.758890441790e+02 
       6.610859938837e-05       2.970989225466e+02 
       7.138242363583e-05       3.199385558200e+02 
       7.707696806873e-05       3.445329780878e+02 
       8.322579570814e-05       3.710167315928e+02 
       8.986514707061e-05       3.995346440954e+02 
       9.703415376577e-05       4.302425403884e+02 
       1.047750691338e-04       4.633080762974e+02 
       1.131335172818e-04       4.989116267507e+02 
       1.221587619877e-04       5.372471946561e+02 
       1.319039970550e-04       5.785234124627e+02 
       1.424266598317e-04       6.229645930980e+02 
       1.537887697396e-04       6.708118484951e+02 
       1.660572938097e-04       7.223242660220e+02 
       1.793045413791e-04       7.777801553789e+02 
       1.936085902737e-04       8.374783607333e+02 
       2.090537469909e-04       9.017396264495e+02 
       2.257310435923e-04       9.709080260152e+02 
       2.437387742372e-04       1.045352448644e+03 
       2.631830745176e-04       1.125468122836e+03 
       2.841785470091e-04       1.211678179511e+03 
       3.068489367268e-04       1.304435249091e+03 
       3.313278604643e-04       1.404223052541e+03 
       3.577595943165e-04       1.511558013390e+03 
       3.862999240274e-04       1.626990836482e+03 
       4.171170631739e-04       1.751108027370e+03 
       4.503926445983e-04       1.884533381345e+03 
       4.863227909323e-04       2.027929376470e+03 
       5.251192705226e-04       2.181998446367e+03 
       5.670107455699e-04       2.347484100857e+03 
       6.122441198393e-04       2.525171869337e+03 
       6.610859938837e-04       2.715889981400e+03 
       7.138242363583e-04       2.920509686088e+03 
       7.707696806873e-04       3.139945097711e+03 
       8.322579570814e-04       3.375152334397e+03 
       8.986514707061e-04       3.627127828231e+03 
       9.703415376577e-04       3.896905450016e+03 
       1.047750691338e-03       4.185552170959e+03 
       1.131335172818e-03       4.494162426791e+03 
       1.221587619877e-03       4.823850702669e+03 
       1.319039970550e-03       5.175742735159e+03 
       1.424266598317e-03       5.551019592515e+03 
       1.537887697396e-03       5.950788335880e+03 
       1.660572938097e-03       6.376123046806e+03 
       1.793045413791e-03       6.828073896122e+03 
       1.936085902737e-03       7.307625375386e+03 
       2.090537469909e-03       7.815671898730e+03 
       2.257310435923e-03       8.352990369399e+03 
       2.437387742372e-03       8.920211057533e+03 
       2.631830745176e-03       9.517783061890e+03 
       2.841785470091e-03       1.014593703671e+04 
       3.068489367268e-03       1.080464505743e+04 
       3.313278604643e-03       1.149357459461e+04 
       3.577595943165e-03       1.221203620826e+04 
       3.862999240274e-03       1.295892538505e+04 
       4.171170631739e-03       1.373266002230e+04 
       4.503926445983e-03       1.453111834595e+04 
       4.863227909323e-03       1.535154984227e+04 
       5.251192705226e-03       1.619063613436e+04 
       5.670107455699e-03       1.704431256576e+04 
       6.122441198393e-03       1.790755938454e+04 
       6.610859938837e-03       1.877460418709e+04 
       7.138242363583e-03       1.963872429095e+04 
       7.707696806873e-03       2.049215713348e+04 
       8.322579570814e-03       2.132607230507e+04 
       8.986514707061e-03       2.213055085171e+04 
       9.703415376577e-03       2.289445470778e+04 
       1.047750691338e-02       2.360549642295e+04 
       1.131335172818e-02       2.425022856685e+04 
       1.221587619877e-02       2.481423922413e+04 
       1.319039970550e-02       2.528218775695e+04 
       1.424266598317e-02       2.563814563252e+04 
       1.537887697392e-02       2.586606605374e+04 
       1.660572938023e-02       2.595027442510e+04 
       1.793045412706e-02       2.587633816367e+04 
       1.936085890181e-02       2.563220151345e+04 
       2.090537352463e-02       2.520934917271e+04 
       2.257309535333e-02       2.460447309927e+04 
       2.437382002918e-02       2.382090098844e+04 
       2.631799944462e-02       2.287045868871e+04 
       2.841644545389e-02       2.177452072047e+04 
       3.067933355377e-02       2.056554847179e+04 
       3.311368470740e-02       1.928728040661e+04 
       3.571840443502e-02       1.799401957344e+04 
       3.847720348444e-02       1.674685065535e+04 
       4.135335538431e-02       1.560458596634e+04 
       4.429361667738e-02       1.461014812914e+04 
       4.724366439141e-02       1.378053327901e+04 
       5.016480835311e-02       1.310505770528e+04 
       5.303989620246e-02       1.255715894167e+04 
       5.586870669566e-02       1.210425370159e+04 
       5.866042680613e-02       1.171465405974e+04 
       6.142798932958e-02       1.136048734897e+04 
       6.418496440164e-02       1.101857189611e+04 
       6.694418833788e-02       1.067068739321e+04 
       6.971731106057e-02       1.030358616703e+04 
       7.251476155766e-02       9.908979079349e+03 
       7.534587671527e-02       9.483803306897e+03 
       7.821907666265e-02       9.029489961138e+03 
       8.114203772912e-02       8.552327966255e+03 
       8.412184535029e-02       8.061968406319e+03 
       8.716512279304e-02       7.570768097822e+03 
       9.027813695930e-02       7.092521480006e+03 
       9.346688431697e-02       6.640537482934e+03 
       9.673716028276e-02       6.226711592201e+03 
       1.000946150830e-01       5.859932488835e+03 
       1.035447986537e-01       5.545248325166e+03 
       1.070931966762e-01       5.283143871155e+03 
       1.107452594425e-01       5.069426940693e+03 
       1.145064249153e-01       4.895250082172e+03 
       1.183821370918e-01       4.747833886228e+03 
       1.223778605862e-01       4.611750447013e+03 
       1.264990921987e-01       4.470622913913e+03 
       1.307513701367e-01       4.310276732055e+03 
       1.351402814784e-01       4.121391131909e+03 
       1.396714684203e-01       3.902065175703e+03 
       1.443506338194e-01       3.658644624903e+03 
       1.491835465229e-01       3.404481965501e+03 
       1.541760469708e-01       3.156675662392e+03 
       1.593340535561e-01       2.931973512250e+03 
       1.646635702297e-01       2.742367022481e+03 
       1.701706958456e-01       2.592258287787e+03 
       1.758616357459e-01       2.477237411195e+03 
       1.817427160982e-01       2.385183466020e+03 
       1.878204015065e-01       2.300356804424e+03 
       1.941013164283e-01       2.205762444267e+03 
       2.005922709503e-01       2.090816127710e+03 
       2.073002914972e-01       1.956464223495e+03 
       2.142326570816e-01       1.814193920467e+03 
       2.213969417533e-01       1.679296400625e+03 
       2.288010639706e-01       1.563851293699e+03 
       2.364533437147e-01       1.472687725764e+03 
       2.443625682930e-01       1.401509976803e+03 
       2.525380679504e-01       1.338412294212e+03 
       2.609898026346e-01       1.270900555312e+03 
       2.697284615565e-01       1.193382614737e+03 
       2.787655775689e-01       1.109337749543e+03 
       2.881136588829e-01       1.028771661145e+03 
       2.977863412677e-01       9.604822930964e+02 
       3.077985646929e-01       9.050242147888e+02 
       3.181667794071e-01       8.561440184499e+02 
       3.289091877812e-01       8.061875615858e+02 
       3.400460299658e-01       7.523917310770e+02 
       3.515999236474e-01       6.989247889904e+02 
       3.635962711085e-01       6.510628007954e+02 
       3.760637506334e-01       6.101239707743e+02 
       3.890349143879e-01       5.721338559059e+02 
       4.025469216825e-01       5.337827235495e+02 
       4.166424456376e-01       4.956316156620e+02 
       4.313708035863e-01       4.604686174741e+02 
       4.467893782977e-01       4.287774779019e+02 
       4.629654199664e-01       3.987748266247e+02 
       4.799783501994e-01       3.692419622999e+02 
       4.979227319373e-01       3.412410717546e+02 
       5.169121270864e-01       3.154836480837e+02 
       5.370841404489e-01       2.908351337528e+02 
       5.586070464571e-01       2.671069800697e+02 
       5.816885094930e-01       2.448094121643e+02 
       6.065870144995e-01       2.235691432931e+02 
       6.336266468475e-01       2.032112855273e+02 
       6.632156059511e-01       1.838795467498e+02 
       6.958678639263e-01       1.653548863546e+02 
       7.322247985589e-01       1.476956480723e+02 
       7.730680195114e-01       1.308343336372e+02 
       8.193049553677e-01       1.148313632347e+02 
       8.718988016039e-01       9.976317812266e+01 
       9.317218031082e-01       8.577847586298e+01 
       9.993660908989e-01       7.305501752176e+01 
       1.075037110174e+00       6.173623508671e+01 
       1.158653485707e+00       5.187945507155e+01 
       1.250099157308e+00       4.344057209780e+01 
       1.349432401273e+00       3.628948857016e+01 
       1.456947457397e+00       3.026814657026e+01 
       1.573135111331e+00       2.521473922394e+01 
       1.698621895592e+00       2.098209215002e+01 
       1.834127512934e+00       1.744245263262e+01 
       1.980444934528e+00       1.448566459576e+01 
       2.138435191726e+00       1.201896458165e+01 
       2.309029199186e+00       9.963200406241e+00 
       2.493232377687e+00       8.251831788354e+00 
       2.692130395285e+00       6.828627087878e+00 
       2.906895534573e+00       5.646278775058e+00 
       3.138793597714e+00       4.664934558310e+00 
       3.389191366484e+00       3.851129824650e+00 
       3.659564657905e+00       3.176944717920e+00 
       3.951507022538e+00       2.618885460082e+00 
       4.266739136701e+00       2.157353610346e+00 
       4.607118943941e+00       1.775935107579e+00 
       4.974652605557e+00       1.460999070395e+00 
       5.371506324689e+00       1.201127194321e+00 
       5.800019113685e+00       9.868812258143e-01 
       6.262716579983e+00       8.103485956975e-01 
       6.762325811764e+00       6.650057338121e-01 
       7.301791451110e+00       5.454264628618e-01 
       7.884293049406e+00       4.470966811571e-01 
       8.513263807261e+00       3.662992678062e-01 
       9.192410809424e+00       2.999418145700e-01 
       9.925736873929e+00       2.454810204386e-01 
       1.071756414427e+01       2.008074650905e-01 
       1.157255956364e+01       1.641846461473e-01 
       1.249576238137e+01       1.341763746199e-01 
       1.349261385375e+01       1.096036000884e-01 
       1.456898931416e+01       8.948936087872e-02 
       1.573123280165e+01       7.303397114568e-02 
       1.698619445202e+01       5.957816529255e-02 
       1.834127087176e+01       4.858100977825e-02 
       1.980444873285e+01       3.959664190608e-02 
       2.138435184532e+01       3.226121115082e-02 
       2.309029198506e+01       2.627336596736e-02 
       2.493232377636e+01       2.138845880695e-02 
       2.692130395282e+01       1.740472440157e-02 
       2.906895534573e+01       1.415743645635e-02 
       3.138793597714e+01       1.151138066041e-02 
       3.389191366484e+01       9.356134856410e-03 
       3.659564657905e+01       7.601206474723e-03 
       3.951507022538e+01       6.173140069668e-03 
       4.266739136701e+01       5.011170234387e-03 
       4.607118943941e+01       4.066182968712e-03 
       4.974652605557e+01       3.298003652834e-03 
       5.371506324689e+01       2.673734622411e-03 
       5.800019113685e+01       2.166577229152e-03 
       6.262716579983e+01       1.754749063087e-03 
       6.762325811764e+01       1.420465187159e-03 
