# Matter power spectrum P(k) at redshift z=0
# for k=1.04775e-05 to 67.6233 h/Mpc,
# number of wavenumbers equal to 246
#    1:k (h/Mpc)              2:P (Mpc/h)^3        
       1.047750691338e-05       5.020964806749e+01 
       1.131335172818e-05       5.407048206554e+01 
       1.221587619877e-05       5.822819063760e+01 
       1.319039970550e-05       6.270562589681e+01 
       1.424266598317e-05       6.752731788102e+01 
       1.537887697396e-05       7.271977200258e+01 
       1.660572938097e-05       7.831147241542e+01 
       1.793045413791e-05       8.433311815128e+01 
       1.936085902737e-05       9.081778242446e+01 
       2.090537469909e-05       9.780108061341e+01 
       2.257310435923e-05       1.053213197032e+02 
       2.437387742372e-05       1.134197377001e+02 
       2.631830745176e-05       1.221408202816e+02 
       2.841785470091e-05       1.315324720916e+02 
       3.068489367268e-05       1.416462093729e+02 
       3.313278604643e-05       1.525374500691e+02 
       3.577595943165e-05       1.642660687078e+02 
       3.862999240274e-05       1.768963504868e+02 
       4.171170631739e-05       1.904975992460e+02 
       4.503926445983e-05       2.051444490305e+02 
       4.863227909323e-05       2.209171463752e+02 
       5.251192705226e-05       2.379022222314e+02 
       5.670107455699e-05       2.561927926052e+02 
       6.122441198393e-05       2.758890441792e+02 
       6.610859938837e-05       2.970989225465e+02 
       7.138242363583e-05       3.199385558200e+02 
       7.707696806873e-05       3.445329780878e+02 
       8.322579570814e-05       3.710167315928e+02 
       8.986514707061e-05       3.995346440953e+02 
       9.703415376577e-05       4.302425403884e+02 
       1.047750691338e-04       4.633080762974e+02 
       1.131335172818e-04       4.989116267507e+02 
       1.221587619877e-04       5.372471946561e+02 
       1.319039970550e-04       5.785234124627e+02 
       1.424266598317e-04       6.229645930980e+02 
       1.537887697396e-04       6.708118484951e+02 
       1.660572938097e-04       7.223242660220e+02 
       1.793045413791e-04       7.777801553414e+02 
       1.936085902737e-04       8.374783607333e+02 
       2.090537469909e-04       9.017396264495e+02 
       2.257310435923e-04       9.709080260152e+02 
       2.437387742372e-04       1.045352448644e+03 
       2.631830745176e-04       1.125468122836e+03 
       2.841785470091e-04       1.211678179511e+03 
       3.068489367268e-04       1.304435249091e+03 
       3.313278604643e-04       1.404223052541e+03 
       3.577595943165e-04       1.511558013390e+03 
       3.862999240274e-04       1.626990836664e+03 
       4.171170631739e-04       1.751108027371e+03 
       4.503926445983e-04       1.884533381345e+03 
       4.863227909323e-04       2.027929376470e+03 
       5.251192705226e-04       2.181998446367e+03 
       5.670107455699e-04       2.347484100857e+03 
       6.122441198393e-04       2.525171869337e+03 
       6.610859938837e-04       2.715889981401e+03 
       7.138242363583e-04       2.920509686086e+03 
       7.707696806873e-04       3.139945097710e+03 
       8.322579570814e-04       3.375152334397e+03 
       8.986514707061e-04       3.627127828231e+03 
       9.703415376577e-04       3.896905450016e+03 
       1.047750691338e-03       4.185552170961e+03 
       1.131335172818e-03       4.494162426791e+03 
       1.221587619877e-03       4.823850702666e+03 
       1.319039970550e-03       5.175742735792e+03 
       1.424266598317e-03       5.551019592524e+03 
       1.537887697396e-03       5.950788335882e+03 
       1.660572938097e-03       6.376123046788e+03 
       1.793045413791e-03       6.828073896113e+03 
       1.936085902737e-03       7.307625375385e+03 
       2.090537469909e-03       7.815671859179e+03 
       2.257310435923e-03       8.352990369397e+03 
       2.437387742372e-03       8.920211057536e+03 
       2.631830745176e-03       9.517783061882e+03 
       2.841785470091e-03       1.014593703670e+04 
       3.068489367268e-03       1.080464505743e+04 
       3.313278604643e-03       1.149357459467e+04 
       3.577595943165e-03       1.221203620823e+04 
       3.862999240274e-03       1.295892538500e+04 
       4.171170631739e-03       1.373265985328e+04 
       4.503926445983e-03       1.453111834584e+04 
       4.863227909323e-03       1.535154984170e+04 
       5.251192705226e-03       1.619063613166e+04 
       5.670107455699e-03       1.704431256546e+04 
       6.122441198393e-03       1.790755938550e+04 
       6.610859938837e-03       1.877460416620e+04 
       7.138242363583e-03       1.963872429466e+04 
       7.707696806873e-03       2.049215713098e+04 
       8.322579570814e-03       2.132606941561e+04 
       8.986514707061e-03       2.213055072857e+04 
       9.703415376577e-03       2.289445472239e+04 
       1.047750691338e-02       2.360548386159e+04 
       1.131335172818e-02       2.425022852025e+04 
       1.221587619877e-02       2.481423919493e+04 
       1.319039970550e-02       2.528218666426e+04 
       1.424266598317e-02       2.563814408701e+04 
       1.537887697392e-02       2.586606327977e+04 
       1.660572938023e-02       2.595027319992e+04 
       1.793045412706e-02       2.587634831542e+04 
       1.936085890181e-02       2.563219654026e+04 
       2.090537352463e-02       2.520936693084e+04 
       2.257309535333e-02       2.460447374678e+04 
       2.437382002918e-02       2.382085741646e+04 
       2.631799944462e-02       2.287049437429e+04 
       2.841644545389e-02       2.177451698572e+04 
       3.067933355377e-02       2.056558457679e+04 
       3.311368470740e-02       1.928730775911e+04 
       3.571840443502e-02       1.799399016076e+04 
       3.847720348444e-02       1.674683069436e+04 
       4.135335538431e-02       1.560461602669e+04 
       4.429361667738e-02       1.461043309129e+04 
       4.724366439141e-02       1.378055696984e+04 
       5.016480835311e-02       1.310505606426e+04 
       5.303989620246e-02       1.255718466897e+04 
       5.586870669566e-02       1.210424389773e+04 
       5.866042680613e-02       1.171463406990e+04 
       6.142798932958e-02       1.136045461320e+04 
       6.418496440164e-02       1.101855432584e+04 
       6.694418833788e-02       1.067066543847e+04 
       6.971731106057e-02       1.030356657320e+04 
       7.251476155766e-02       9.908977703945e+03 
       7.534587671527e-02       9.483746263800e+03 
       7.821907666265e-02       9.029513484244e+03 
       8.114203772912e-02       8.552286513159e+03 
       8.412184535029e-02       8.061892056459e+03 
       8.716512279304e-02       7.570765242609e+03 
       9.027813695930e-02       7.092477435526e+03 
       9.346688431697e-02       6.640509571421e+03 
       9.673716028276e-02       6.226694942173e+03 
       1.000946150830e-01       5.859941381907e+03 
       1.035447986537e-01       5.545228885220e+03 
       1.070931966762e-01       5.283124285891e+03 
       1.107452594425e-01       5.069398644121e+03 
       1.145064249153e-01       4.895238581904e+03 
       1.183821370918e-01       4.747820479336e+03 
       1.223778605862e-01       4.611713652722e+03 
       1.264990921987e-01       4.470582166431e+03 
       1.307513701367e-01       4.310215183167e+03 
       1.351402814784e-01       4.121356538326e+03 
       1.396714684203e-01       3.902020363892e+03 
       1.443506338194e-01       3.658599801628e+03 
       1.491835465229e-01       3.404453934789e+03 
       1.541760469708e-01       3.156633022304e+03 
       1.593340535561e-01       2.931932852271e+03 
       1.646635702297e-01       2.742328553744e+03 
       1.701706958456e-01       2.592201861733e+03 
       1.758616357459e-01       2.477188986839e+03 
       1.817427160982e-01       2.385133519747e+03 
       1.878204015065e-01       2.300304634034e+03 
       1.941013164283e-01       2.205695293015e+03 
       2.005922709503e-01       2.090744514430e+03 
       2.073002914972e-01       1.956400345886e+03 
       2.142326570816e-01       1.814119808716e+03 
       2.213969417533e-01       1.679221519362e+03 
       2.288010639706e-01       1.563767129983e+03 
       2.364533437147e-01       1.472601595398e+03 
       2.443625682930e-01       1.401421904636e+03 
       2.525380679504e-01       1.338321473055e+03 
       2.609898026346e-01       1.270800558976e+03 
       2.697284615565e-01       1.193275378058e+03 
       2.787655775689e-01       1.109226400242e+03 
       2.881136588829e-01       1.028655760193e+03 
       2.977863412677e-01       9.603597004258e+02 
       3.077985646929e-01       9.048988179571e+02 
       3.181667794071e-01       8.560091012596e+02 
       3.289091877812e-01       8.060486799547e+02 
       3.400460299658e-01       7.522418680646e+02 
       3.515999236474e-01       6.987671132999e+02 
       3.635962711085e-01       6.508999089398e+02 
       3.760637506334e-01       6.099510539733e+02 
       3.890349143879e-01       5.719533302024e+02 
       4.025469216825e-01       5.335933213574e+02 
       4.166424456376e-01       4.954334837283e+02 
       4.313708035863e-01       4.602617976318e+02 
       4.467893782977e-01       4.285611110749e+02 
       4.629654199664e-01       3.985466935224e+02 
       4.799783501994e-01       3.690044424573e+02 
       4.979227319373e-01       3.409904357869e+02 
       5.169121270864e-01       3.152233167171e+02 
       5.370841404489e-01       2.905619831341e+02 
       5.586070464571e-01       2.668194769807e+02 
       5.816885094930e-01       2.445075137923e+02 
       6.065870144995e-01       2.232505431396e+02 
       6.336266468475e-01       2.028761472283e+02 
       6.632156059511e-01       1.835255102763e+02 
       6.958678639263e-01       1.649813063699e+02 
       7.322247985589e-01       1.472996735540e+02 
       7.730680195114e-01       1.304133848130e+02 
       8.193049553677e-01       1.143826853996e+02 
       8.718988016039e-01       9.928278037373e+01 
       9.317218031082e-01       8.526323962166e+01 
       9.993660908989e-01       7.250168539967e+01 
       1.075037110174e+00       6.114042116645e+01 
       1.158653485707e+00       5.123864026083e+01 
       1.250099157308e+00       4.275178717192e+01 
       1.349432401273e+00       3.555135891349e+01 
       1.456947457397e+00       2.947876732291e+01 
       1.573135111331e+00       2.437297091731e+01 
       1.698621895592e+00       2.008744692693e+01 
       1.834127512934e+00       1.649476350957e+01 
       1.980444934528e+00       1.348572835260e+01 
       2.138435191726e+00       1.096813858174e+01 
       2.309029199186e+00       8.864297445622e+00 
       2.493232377687e+00       7.108656334051e+00 
       2.692130395285e+00       5.646545731192e+00 
       2.906895534573e+00       4.432224219754e+00 
       3.138793597714e+00       3.427714392429e+00 
       3.389191366484e+00       2.601496636305e+00 
       3.659564657905e+00       1.927640546028e+00 
       3.951507022538e+00       1.384621067310e+00 
       4.266739136701e+00       9.545428980007e-01 
       4.607118943941e+00       6.222546947293e-01 
       4.974652605557e+00       3.746699564729e-01 
       5.371506324689e+00       1.999351078145e-01 
       5.800019113685e+00       8.685086330370e-02 
       6.262716579983e+00       2.432801428706e-02 
       6.762325811764e+00       1.054757182163e-03 
       7.301791451110e+00       5.468703306848e-03 
       7.884293049406e+00       2.603630575083e-02 
       8.513263807261e+00       5.192227569547e-02 
       9.192410809424e+00       7.394736284197e-02 
       9.925736873929e+00       8.568357532484e-02 
       1.071756414427e+01       8.432593884389e-02 
       1.157255956364e+01       7.102390099491e-02 
       1.249576238137e+01       5.027900438258e-02 
       1.349261385375e+01       2.837425336410e-02 
       1.456898931416e+01       1.114170447505e-02 
       1.573123280165e+01       1.845870637376e-03 
       1.698619445202e+01       1.385418135967e-04 
       1.834127087176e+01       2.715008715187e-03 
       1.980444873285e+01       5.443262860131e-03 
       2.138435184532e+01       5.756922894555e-03 
       2.309029198506e+01       3.760050362893e-03 
       2.493232377636e+01       1.328615556029e-03 
       2.692130395282e+01       9.107444069279e-05 
       2.906895534573e+01       1.322867886409e-04 
       3.138793597714e+01       4.677124165174e-04 
       3.389191366484e+01       4.104227110297e-04 
       3.659564657905e+01       1.261867346982e-04 
       3.951507022538e+01       5.901225434005e-07 
       4.266739136701e+01       3.271576633726e-05 
       4.607118943941e+01       3.922524917317e-05 
       4.974652605557e+01       7.893179554060e-06 
       5.371506324689e+01       6.971061815707e-07 
       5.800019113685e+01       4.222266848332e-06 
       6.262716579983e+01       1.059338252662e-06 
       6.762325811764e+01       9.290660310956e-08 
