# Matter power spectrum P(k) at redshift z=99
# for k=1.04775e-05 to 67.6233 h/Mpc,
# number of wavenumbers equal to 246
#    1:k (h/Mpc)              2:P (Mpc/h)^3        
       1.047750691338e-05       7.261927673120e-03 
       1.131335172818e-05       7.820331745738e-03 
       1.221587619877e-05       8.421675986490e-03 
       1.319039970550e-05       9.069258192195e-03 
       1.424266598317e-05       9.766638404422e-03 
       1.537887697396e-05       1.051764069682e-02 
       1.660572938097e-05       1.132639105520e-02 
       1.793045413791e-05       1.219733231417e-02 
       1.936085902737e-05       1.313524224381e-02 
       2.090537469909e-05       1.414527121894e-02 
       2.257310435923e-05       1.523296272192e-02 
       2.437387742372e-05       1.640429444530e-02 
       2.631830745176e-05       1.766569582178e-02 
       2.841785470091e-05       1.902408601793e-02 
       3.068489367268e-05       2.048692970592e-02 
       3.313278604643e-05       2.206225513594e-02 
       3.577595943165e-05       2.375870704909e-02 
       3.862999240274e-05       2.558560727479e-02 
       4.171170631739e-05       2.755297763344e-02 
       4.503926445983e-05       2.967161927315e-02 
       4.863227909323e-05       3.195316450832e-02 
       5.251192705226e-05       3.441013519285e-02 
       5.670107455699e-05       3.705601722526e-02 
       6.122441198393e-05       3.990533413564e-02 
       6.610859938837e-05       4.297372168204e-02 
       7.138242363583e-05       4.627802141689e-02 
       7.707696806873e-05       4.983636194160e-02 
       8.322579570814e-05       5.366826847232e-02 
       8.986514707061e-05       5.779476394569e-02 
       9.703415376577e-05       6.223848243886e-02 
       1.047750691338e-04       6.702379865641e-02 
       1.131335172818e-04       7.217695153382e-02 
       1.221587619877e-04       7.772619073573e-02 
       1.319039970550e-04       8.370193432377e-02 
       1.424266598317e-04       9.013692507547e-02 
       1.537887697396e-04       9.706641242572e-02 
       1.660572938097e-04       1.045283354272e-01 
       1.793045413791e-04       1.125635349068e-01 
       1.936085902737e-04       1.212159614968e-01 
       2.090537469909e-04       1.305329132715e-01 
       2.257310435923e-04       1.405652846215e-01 
       2.437387742372e-04       1.513678302540e-01 
       2.631830745176e-04       1.629994504871e-01 
       2.841785470091e-04       1.755234921225e-01 
       3.068489367268e-04       1.890080670413e-01 
       3.313278604643e-04       2.035264002436e-01 
       3.577595943165e-04       2.191571803681e-01 
       3.862999240274e-04       2.359849437592e-01 
       4.171170631739e-04       2.541004741539e-01 
       4.503926445983e-04       2.736012080278e-01 
       4.863227909323e-04       2.945916790965e-01 
       5.251192705226e-04       3.171839525183e-01 
       5.670107455699e-04       3.414980764002e-01 
       6.122441198393e-04       3.676625413101e-01 
       6.610859938837e-04       3.958147252304e-01 
       7.138242363583e-04       4.261013284901e-01 
       7.707696806873e-04       4.586787792352e-01 
       8.322579570814e-04       4.937136001341e-01 
       8.986514707061e-04       5.313826801402e-01 
       9.703415376577e-04       5.718734972158e-01 
       1.047750691338e-03       6.153841629505e-01 
       1.131335172818e-03       6.621233239466e-01 
       1.221587619877e-03       7.123098220421e-01 
       1.319039970550e-03       7.661720584727e-01 
       1.424266598317e-03       8.239546297730e-01 
       1.537887697396e-03       8.859011173466e-01 
       1.660572938097e-03       9.522588006397e-01 
       1.793045413791e-03       1.023280099819e+00 
       1.936085902737e-03       1.099216304579e+00 
       2.090537469909e-03       1.180312990453e+00 
       2.257310435923e-03       1.266804115850e+00 
       2.437387742372e-03       1.358904853406e+00 
       2.631830745176e-03       1.456802683155e+00 
       2.841785470091e-03       1.560646890520e+00 
       3.068489367268e-03       1.670536062498e+00 
       3.313278604643e-03       1.786503852157e+00 
       3.577595943165e-03       1.908502930785e+00 
       3.862999240274e-03       2.036387730704e+00 
       4.171170631739e-03       2.169896178378e+00 
       4.503926445983e-03       2.308631878983e+00 
       4.863227909323e-03       2.452047290946e+00 
       5.251192705226e-03       2.599430628065e+00 
       5.670107455699e-03       2.749896931733e+00 
       6.122441198393e-03       2.902386513338e+00 
       6.610859938837e-03       3.055668707339e+00 
       7.138242363583e-03       3.208356461451e+00 
       7.707696806873e-03       3.358923892558e+00 
       8.322579570814e-03       3.505725595178e+00 
       8.986514707061e-03       3.647009627549e+00 
       9.703415376577e-03       3.780923303941e+00 
       1.047750691338e-02       3.905491189085e+00 
       1.131335172818e-02       4.018588482678e+00 
       1.221587619877e-02       4.117901582787e+00 
       1.319039970550e-02       4.200915264961e+00 
       1.424266598317e-02       4.264942459285e+00 
       1.537887697392e-02       4.307219475590e+00 
       1.660572938023e-02       4.325062956179e+00 
       1.793045412706e-02       4.316058147183e+00 
       1.936085890181e-02       4.278224953697e+00 
       2.090537352463e-02       4.210199150559e+00 
       2.257309535333e-02       4.111422353021e+00 
       2.437382002918e-02       3.982421195741e+00 
       2.631799944462e-02       3.825165002326e+00 
       2.841644545389e-02       3.643282611673e+00 
       3.067933355377e-02       3.442194454612e+00 
       3.311368470740e-02       3.229241900557e+00 
       3.571840443502e-02       3.013511019831e+00 
       3.847720348444e-02       2.805281005582e+00 
       4.135335538431e-02       2.614408195894e+00 
       4.429361667738e-02       2.448132172334e+00 
       4.724366439141e-02       2.309235321544e+00 
       5.016480835311e-02       2.196114400310e+00 
       5.303989620246e-02       2.104364349515e+00 
       5.586870669566e-02       2.028463984476e+00 
       5.866042680613e-02       1.963154188576e+00 
       6.142798932958e-02       1.903781243315e+00 
       6.418496440164e-02       1.846473293810e+00 
       6.694418833788e-02       1.788198938337e+00 
       6.971731106057e-02       1.726717296536e+00 
       7.251476155766e-02       1.660656126629e+00 
       7.534587671527e-02       1.589469526552e+00 
       7.821907666265e-02       1.513439228056e+00 
       8.114203772912e-02       1.433570403366e+00 
       8.412184535029e-02       1.351491520706e+00 
       8.716512279304e-02       1.269274903973e+00 
       9.027813695930e-02       1.189194547354e+00 
       9.346688431697e-02       1.113502442238e+00 
       9.673716028276e-02       1.044173344314e+00 
       1.000946150830e-01       9.827062425869e-01 
       1.035447986537e-01       9.299349480461e-01 
       1.070931966762e-01       8.859583114431e-01 
       1.107452594425e-01       8.500684146452e-01 
       1.145064249153e-01       8.208027872601e-01 
       1.183821370918e-01       7.960236653986e-01 
       1.223778605862e-01       7.731433782467e-01 
       1.264990921987e-01       7.494484413115e-01 
       1.307513701367e-01       7.225547742373e-01 
       1.351402814784e-01       6.909059847919e-01 
       1.396714684203e-01       6.541789184608e-01 
       1.443506338194e-01       6.134238977809e-01 
       1.491835465229e-01       5.708642581505e-01 
       1.541760469708e-01       5.293602227628e-01 
       1.593340535561e-01       4.917077130757e-01 
       1.646635702297e-01       4.599157891377e-01 
       1.701706958456e-01       4.347243717246e-01 
       1.758616357459e-01       4.154045697206e-01 
       1.817427160982e-01       3.999330974997e-01 
       1.878204015065e-01       3.856775349029e-01 
       1.941013164283e-01       3.698038661355e-01 
       2.005922709503e-01       3.505405016299e-01 
       2.073002914972e-01       3.280368809712e-01 
       2.142326570816e-01       3.042077634164e-01 
       2.213969417533e-01       2.816048650615e-01 
       2.288010639706e-01       2.622497555765e-01 
       2.364533437147e-01       2.469543924303e-01 
       2.443625682930e-01       2.350043407215e-01 
       2.525380679504e-01       2.244093735560e-01 
       2.609898026346e-01       2.130852472570e-01 
       2.697284615565e-01       2.000916466960e-01 
       2.787655775689e-01       1.860099290070e-01 
       2.881136588829e-01       1.725065485750e-01 
       2.977863412677e-01       1.610553865800e-01 
       3.077985646929e-01       1.517496371462e-01 
       3.181667794071e-01       1.435471996769e-01 
       3.289091877812e-01       1.351684595703e-01 
       3.400460299658e-01       1.261507954809e-01 
       3.515999236474e-01       1.171880757178e-01 
       3.635962711085e-01       1.091621014443e-01 
       3.760637506334e-01       1.022940498673e-01 
       3.890349143879e-01       9.592147507903e-02 
       4.025469216825e-01       8.949067930900e-02 
       4.166424456376e-01       8.309397499115e-02 
       4.313708035863e-01       7.719677116238e-02 
       4.467893782977e-01       7.188108645886e-02 
       4.629654199664e-01       6.684845287793e-02 
       4.799783501994e-01       6.189594664111e-02 
       4.979227319373e-01       5.719957279335e-02 
       5.169121270864e-01       5.287930846498e-02 
       5.370841404489e-01       4.874479904292e-02 
       5.586070464571e-01       4.476469200805e-02 
       5.816885094930e-01       4.102429373111e-02 
       6.065870144995e-01       3.746093424135e-02 
       6.336266468475e-01       3.404588222920e-02 
       6.632156059511e-01       3.080228929732e-02 
       6.958678639263e-01       2.769425911364e-02 
       7.322247985589e-01       2.473093825239e-02 
       7.730680195114e-01       2.190105467241e-02 
       8.193049553677e-01       1.921500535932e-02 
       8.718988016039e-01       1.668521034213e-02 
       9.317218031082e-01       1.433687983167e-02 
       9.993660908989e-01       1.219963228166e-02 
       1.075037110174e+00       1.029757205620e-02 
       1.158653485707e+00       8.640348882726e-03 
       1.250099157308e+00       7.220638691796e-03 
       1.349432401273e+00       6.016630455065e-03 
       1.456947457397e+00       5.001814744746e-03 
       1.573135111331e+00       4.149180929459e-03 
       1.698621895592e+00       3.434006407553e-03 
       1.834127512934e+00       2.834925389944e-03 
       1.980444934528e+00       2.333523675628e-03 
       2.138435191726e+00       1.914262103330e-03 
       2.309029199186e+00       1.563997099365e-03 
       2.493232377687e+00       1.271628239872e-03 
       2.692130395285e+00       1.027847796850e-03 
       2.906895534573e+00       8.248325436538e-04 
       3.138793597714e+00       6.560525009329e-04 
       3.389191366484e+00       5.160772530387e-04 
       3.659564657905e+00       4.003984451284e-04 
       3.951507022538e+00       3.052810085468e-04 
       4.266739136701e+00       2.276494190051e-04 
       4.607118943941e+00       1.649630462816e-04 
       4.974652605557e+00       1.151175404205e-04 
       5.371506324689e+00       7.635537522719e-05 
       5.800019113685e+00       4.716560323053e-05 
       6.262716579983e+00       2.621118747308e-05 
       6.762325811764e+00       1.225103071697e-05 
       7.301791451110e+00       4.078351544968e-06 
       7.884293049406e+00       4.793523722652e-07 
       8.513263807261e+00       2.148806714678e-07 
       9.192410809424e+00       2.040771168400e-06 
       9.925736873929e+00       4.765160991023e-06 
       1.071756414427e+01       7.342280803659e-06 
       1.157255956364e+01       8.985561249890e-06 
       1.249576238137e+01       9.271648492972e-06 
       1.349261385375e+01       8.197072761380e-06 
       1.456898931416e+01       6.147068897677e-06 
       1.573123280165e+01       3.758420480877e-06 
       1.698619445202e+01       1.696526314791e-06 
       1.834127087176e+01       4.158319630061e-07 
       1.980444873285e+01       1.967523314590e-09 
       2.138435184532e+01       1.821088633157e-07 
       2.309029198506e+01       5.120916609966e-07 
       2.493232377636e+01       6.412853518413e-07 
       2.692130395282e+01       4.897229085150e-07 
       2.906895534573e+01       2.188812190468e-07 
       3.138793597714e+01       3.470506022309e-08 
       3.389191366484e+01       3.488276333078e-09 
       3.659564657905e+01       4.157268955586e-08 
       3.951507022538e+01       5.117360200205e-08 
       4.266739136701e+01       2.315364064836e-08 
       4.607118943941e+01       1.705969444746e-09 
       4.974652605557e+01       1.926462428927e-09 
       5.371506324689e+01       4.815384485638e-09 
       5.800019113685e+01       1.866350663941e-09 
       6.262716579983e+01       3.452393328642e-12 
       6.762325811764e+01       4.165075042358e-10 
