# Matter power spectrum P(k) at redshift z=99
# for k=1.04775e-05 to 67.6233 h/Mpc,
# number of wavenumbers equal to 246
#    1:k (h/Mpc)              2:P (Mpc/h)^3        
       1.047750691338e-05       7.261927673119e-03 
       1.131335172818e-05       7.820331745737e-03 
       1.221587619877e-05       8.421675986489e-03 
       1.319039970550e-05       9.069258192194e-03 
       1.424266598317e-05       9.766638404421e-03 
       1.537887697396e-05       1.051764069682e-02 
       1.660572938097e-05       1.132639105520e-02 
       1.793045413791e-05       1.219733231416e-02 
       1.936085902737e-05       1.313524224381e-02 
       2.090537469909e-05       1.414527121893e-02 
       2.257310435923e-05       1.523296272192e-02 
       2.437387742372e-05       1.640429444530e-02 
       2.631830745176e-05       1.766569582178e-02 
       2.841785470091e-05       1.902408601793e-02 
       3.068489367268e-05       2.048692970592e-02 
       3.313278604643e-05       2.206225513594e-02 
       3.577595943165e-05       2.375870704909e-02 
       3.862999240274e-05       2.558560727479e-02 
       4.171170631739e-05       2.755297763344e-02 
       4.503926445983e-05       2.967161927315e-02 
       4.863227909323e-05       3.195316450832e-02 
       5.251192705226e-05       3.441013519284e-02 
       5.670107455699e-05       3.705601722527e-02 
       6.122441198393e-05       3.990533413559e-02 
       6.610859938837e-05       4.297372168203e-02 
       7.138242363583e-05       4.627802141688e-02 
       7.707696806873e-05       4.983636194159e-02 
       8.322579570814e-05       5.366826847231e-02 
       8.986514707061e-05       5.779476394569e-02 
       9.703415376577e-05       6.223848243885e-02 
       1.047750691338e-04       6.702379865640e-02 
       1.131335172818e-04       7.217695153381e-02 
       1.221587619877e-04       7.772619073573e-02 
       1.319039970550e-04       8.370193432377e-02 
       1.424266598317e-04       9.013692507548e-02 
       1.537887697396e-04       9.706641242570e-02 
       1.660572938097e-04       1.045283354271e-01 
       1.793045413791e-04       1.125635349068e-01 
       1.936085902737e-04       1.212159614968e-01 
       2.090537469909e-04       1.305329132714e-01 
       2.257310435923e-04       1.405652846215e-01 
       2.437387742372e-04       1.513678302540e-01 
       2.631830745176e-04       1.629994504871e-01 
       2.841785470091e-04       1.755234921224e-01 
       3.068489367268e-04       1.890080670413e-01 
       3.313278604643e-04       2.035264002435e-01 
       3.577595943165e-04       2.191571803681e-01 
       3.862999240274e-04       2.359849437591e-01 
       4.171170631739e-04       2.541004741539e-01 
       4.503926445983e-04       2.736012080278e-01 
       4.863227909323e-04       2.945916790965e-01 
       5.251192705226e-04       3.171839525183e-01 
       5.670107455699e-04       3.414980764002e-01 
       6.122441198393e-04       3.676625413100e-01 
       6.610859938837e-04       3.958147252304e-01 
       7.138242363583e-04       4.261013284911e-01 
       7.707696806873e-04       4.586787792352e-01 
       8.322579570814e-04       4.937136001347e-01 
       8.986514707061e-04       5.313826801402e-01 
       9.703415376577e-04       5.718734972158e-01 
       1.047750691338e-03       6.153841629505e-01 
       1.131335172818e-03       6.621233239466e-01 
       1.221587619877e-03       7.123098220423e-01 
       1.319039970550e-03       7.661720584628e-01 
       1.424266598317e-03       8.239546297730e-01 
       1.537887697396e-03       8.859011173466e-01 
       1.660572938097e-03       9.522588006417e-01 
       1.793045413791e-03       1.023280099819e+00 
       1.936085902737e-03       1.099216304579e+00 
       2.090537469909e-03       1.180312990453e+00 
       2.257310435923e-03       1.266804115851e+00 
       2.437387742372e-03       1.358904853405e+00 
       2.631830745176e-03       1.456802683156e+00 
       2.841785470091e-03       1.560646890521e+00 
       3.068489367268e-03       1.670536062499e+00 
       3.313278604643e-03       1.786503852160e+00 
       3.577595943165e-03       1.908502930788e+00 
       3.862999240274e-03       2.036387730709e+00 
       4.171170631739e-03       2.169896178641e+00 
       4.503926445983e-03       2.308631878993e+00 
       4.863227909323e-03       2.452047290961e+00 
       5.251192705226e-03       2.599430628087e+00 
       5.670107455699e-03       2.749896931823e+00 
       6.122441198393e-03       2.902386513384e+00 
       6.610859938837e-03       3.055668712738e+00 
       7.138242363583e-03       3.208356461542e+00 
       7.707696806873e-03       3.358923892838e+00 
       8.322579570814e-03       3.505725436168e+00 
       8.986514707061e-03       3.647009908498e+00 
       9.703415376577e-03       3.780923304312e+00 
       1.047750691338e-02       3.905491778476e+00 
       1.131335172818e-02       4.018587641281e+00 
       1.221587619877e-02       4.117901579242e+00 
       1.319039970550e-02       4.200915340941e+00 
       1.424266598317e-02       4.264941975798e+00 
       1.537887697392e-02       4.307217923539e+00 
       1.660572938023e-02       4.325062337299e+00 
       1.793045412706e-02       4.316057609024e+00 
       1.936085890181e-02       4.278227592837e+00 
       2.090537352463e-02       4.210202606600e+00 
       2.257309535333e-02       4.111421102357e+00 
       2.437382002918e-02       3.982412339730e+00 
       2.631799944462e-02       3.825169453313e+00 
       2.841644545389e-02       3.643283928266e+00 
       3.067933355377e-02       3.442194111914e+00 
       3.311368470740e-02       3.229233358909e+00 
       3.571840443502e-02       3.013511307228e+00 
       3.847720348444e-02       2.805274989330e+00 
       4.135335538431e-02       2.614405794558e+00 
       4.429361667738e-02       2.448135553683e+00 
       4.724366439141e-02       2.309234301416e+00 
       5.016480835311e-02       2.196113157253e+00 
       5.303989620246e-02       2.104363597031e+00 
       5.586870669566e-02       2.028461844239e+00 
       5.866042680613e-02       1.963150892415e+00 
       6.142798932958e-02       1.903779308209e+00 
       6.418496440164e-02       1.846476913070e+00 
       6.694418833788e-02       1.788198797261e+00 
       6.971731106057e-02       1.726716571316e+00 
       7.251476155766e-02       1.660657226170e+00 
       7.534587671527e-02       1.589466470183e+00 
       7.821907666265e-02       1.513440847399e+00 
       8.114203772912e-02       1.433571442434e+00 
       8.412184535029e-02       1.351493908491e+00 
       8.716512279304e-02       1.269274492115e+00 
       9.027813695930e-02       1.189195362892e+00 
       9.346688431697e-02       1.113499914414e+00 
       9.673716028276e-02       1.044175178991e+00 
       1.000946150830e-01       9.827066870173e-01 
       1.035447986537e-01       9.299371516483e-01 
       1.070931966762e-01       8.859597374666e-01 
       1.107452594425e-01       8.500708101688e-01 
       1.145064249153e-01       8.208028802652e-01 
       1.183821370918e-01       7.960244999337e-01 
       1.223778605862e-01       7.731474445033e-01 
       1.264990921987e-01       7.494522229360e-01 
       1.307513701367e-01       7.225569703589e-01 
       1.351402814784e-01       6.909080097913e-01 
       1.396714684203e-01       6.541820225767e-01 
       1.443506338194e-01       6.134255393215e-01 
       1.491835465229e-01       5.708672980696e-01 
       1.541760469708e-01       5.293647609136e-01 
       1.593340535561e-01       4.917106731964e-01 
       1.646635702297e-01       4.599207110303e-01 
       1.701706958456e-01       4.347277383288e-01 
       1.758616357459e-01       4.154076742655e-01 
       1.817427160982e-01       3.999376553438e-01 
       1.878204015065e-01       3.856829059576e-01 
       1.941013164283e-01       3.698093379605e-01 
       2.005922709503e-01       3.505457035086e-01 
       2.073002914972e-01       3.280436306604e-01 
       2.142326570816e-01       3.042133330302e-01 
       2.213969417533e-01       2.816119136861e-01 
       2.288010639706e-01       2.622573724283e-01 
       2.364533437147e-01       2.469618972314e-01 
       2.443625682930e-01       2.350132135306e-01 
       2.525380679504e-01       2.244179450555e-01 
       2.609898026346e-01       2.130938574817e-01 
       2.697284615565e-01       2.001023062149e-01 
       2.787655775689e-01       1.860196366485e-01 
       2.881136588829e-01       1.725173236115e-01 
       2.977863412677e-01       1.610661924301e-01 
       3.077985646929e-01       1.517609126443e-01 
       3.181667794071e-01       1.435594090376e-01 
       3.289091877812e-01       1.351816089371e-01 
       3.400460299658e-01       1.261647777170e-01 
       3.515999236474e-01       1.172017347801e-01 
       3.635962711085e-01       1.091770154045e-01 
       3.760637506334e-01       1.023096307373e-01 
       3.890349143879e-01       9.593766719003e-02 
       4.025469216825e-01       8.950762541512e-02 
       4.166424456376e-01       8.311164965148e-02 
       4.313708035863e-01       7.721547278464e-02 
       4.467893782977e-01       7.190052532558e-02 
       4.629654199664e-01       6.686890849339e-02 
       4.799783501994e-01       6.191767554307e-02 
       4.979227319373e-01       5.722219365246e-02 
       5.169121270864e-01       5.290292045616e-02 
       5.370841404489e-01       4.876972537381e-02 
       5.586070464571e-01       4.479084296651e-02 
       5.816885094930e-01       4.105180190709e-02 
       6.065870144995e-01       3.748995057001e-02 
       6.336266468475e-01       3.407625390662e-02 
       6.632156059511e-01       3.083463414876e-02 
       6.958678639263e-01       2.772827005505e-02 
       7.322247985589e-01       2.476712065674e-02 
       7.730680195114e-01       2.193956474883e-02 
       8.193049553677e-01       1.925614115769e-02 
       8.718988016039e-01       1.672930812443e-02 
       9.317218031082e-01       1.438421198344e-02 
       9.993660908989e-01       1.225069528862e-02 
       1.075037110174e+00       1.035261354063e-02 
       1.158653485707e+00       8.699728473660e-03 
       1.250099157308e+00       7.284577214681e-03 
       1.349432401273e+00       6.085441021870e-03 
       1.456947457397e+00       5.075721828778e-03 
       1.573135111331e+00       4.228301686471e-03 
       1.698621895592e+00       3.518557409301e-03 
       1.834127512934e+00       2.924971659424e-03 
       1.980444934528e+00       2.429149564454e-03 
       2.138435191726e+00       2.015508656263e-03 
       2.309029199186e+00       1.670775239460e-03 
       2.493232377687e+00       1.383792160949e-03 
       2.692130395285e+00       1.145124339526e-03 
       2.906895534573e+00       9.468545738750e-04 
       3.138793597714e+00       7.822848713882e-04 
       3.389191366484e+00       6.458206597715e-04 
       3.659564657905e+00       5.327675016273e-04 
       3.951507022538e+00       4.391835767721e-04 
       4.266739136701e+00       3.617874010610e-04 
       4.607118943941e+00       2.978253851453e-04 
       4.974652605557e+00       2.450115644944e-04 
       5.371506324689e+00       2.014340837155e-04 
       5.800019113685e+00       1.655029129605e-04 
       6.262716579983e+00       1.359007278596e-04 
       6.762325811764e+00       1.115276306232e-04 
       7.301791451110e+00       9.147447714660e-05 
       7.884293049406e+00       7.498448713525e-05 
       8.513263807261e+00       6.143465773491e-05 
       9.192410809424e+00       5.030647153709e-05 
       9.925736873929e+00       4.117311754171e-05 
       1.071756414427e+01       3.368155592537e-05 
       1.157255956364e+01       2.753960422927e-05 
       1.249576238137e+01       2.250710059418e-05 
       1.349261385375e+01       1.838577080634e-05 
       1.456898931416e+01       1.501240009140e-05 
       1.573123280165e+01       1.225279052845e-05 
       1.698619445202e+01       9.996083400710e-06 
       1.834127087176e+01       8.151543011214e-06 
       1.980444873285e+01       6.644711896185e-06 
       2.138435184532e+01       5.414233086836e-06 
       2.309029198506e+01       4.409910426019e-06 
       2.493232377636e+01       3.590468882737e-06 
       2.692130395282e+01       2.922197270515e-06 
       2.906895534573e+01       2.377415535799e-06 
       3.138793597714e+01       1.933480548229e-06 
       3.389191366484e+01       1.571852570274e-06 
       3.659564657905e+01       1.277397672075e-06 
       3.951507022538e+01       1.037710840356e-06 
       4.266739136701e+01       8.427037675574e-07 
       4.607118943941e+01       6.840579500379e-07 
       4.974652605557e+01       5.550763878486e-07 
       5.371506324689e+01       4.502429659012e-07 
       5.800019113685e+01       3.650481378010e-07 
       6.262716579983e+01       2.958502320203e-07 
       6.762325811764e+01       2.396573377714e-07 
