# Matter power spectrum P(k) at redshift z=0
# for k=1.04775e-05 to 67.6233 h/Mpc,
# number of wavenumbers equal to 246
#    1:k (h/Mpc)              2:P (Mpc/h)^3        
       1.047750691338e-05       5.020964806759e+01 
       1.131335172818e-05       5.407048206553e+01 
       1.221587619877e-05       5.822819065168e+01 
       1.319039970550e-05       6.270562589986e+01 
       1.424266598317e-05       6.752731788102e+01 
       1.537887697396e-05       7.271977200256e+01 
       1.660572938097e-05       7.831147241545e+01 
       1.793045413791e-05       8.433311815128e+01 
       1.936085902737e-05       9.081778242446e+01 
       2.090537469909e-05       9.780108061375e+01 
       2.257310435923e-05       1.053213197032e+02 
       2.437387742372e-05       1.134197376999e+02 
       2.631830745176e-05       1.221408202828e+02 
       2.841785470091e-05       1.315324720918e+02 
       3.068489367268e-05       1.416462093645e+02 
       3.313278604643e-05       1.525374500691e+02 
       3.577595943165e-05       1.642660687076e+02 
       3.862999240274e-05       1.768963504868e+02 
       4.171170631739e-05       1.904975992441e+02 
       4.503926445983e-05       2.051444490303e+02 
       4.863227909323e-05       2.209171463751e+02 
       5.251192705226e-05       2.379022222312e+02 
       5.670107455699e-05       2.561927753037e+02 
       6.122441198393e-05       2.758890441770e+02 
       6.610859938837e-05       2.970989225478e+02 
       7.138242363583e-05       3.199385558200e+02 
       7.707696806873e-05       3.445329780879e+02 
       8.322579570814e-05       3.710167315928e+02 
       8.986514707061e-05       3.995346440952e+02 
       9.703415376577e-05       4.302425403825e+02 
       1.047750691338e-04       4.633080762972e+02 
       1.131335172818e-04       4.989116276111e+02 
       1.221587619877e-04       5.372471946564e+02 
       1.319039970550e-04       5.785234135167e+02 
       1.424266598317e-04       6.229645930980e+02 
       1.537887697396e-04       6.708118484951e+02 
       1.660572938097e-04       7.223242660219e+02 
       1.793045413791e-04       7.777801560226e+02 
       1.936085902737e-04       8.374783607331e+02 
       2.090537469909e-04       9.017396264496e+02 
       2.257310435923e-04       9.709080260151e+02 
       2.437387742372e-04       1.045352448644e+03 
       2.631830745176e-04       1.125468122837e+03 
       2.841785470091e-04       1.211678179510e+03 
       3.068489367268e-04       1.304435249090e+03 
       3.313278604643e-04       1.404223052541e+03 
       3.577595943165e-04       1.511558013390e+03 
       3.862999240274e-04       1.626990836539e+03 
       4.171170631739e-04       1.751108027370e+03 
       4.503926445983e-04       1.884533381344e+03 
       4.863227909323e-04       2.027929376471e+03 
       5.251192705226e-04       2.181998446367e+03 
       5.670107455699e-04       2.347484100856e+03 
       6.122441198393e-04       2.525171869333e+03 
       6.610859938837e-04       2.715889981400e+03 
       7.138242363583e-04       2.920509686076e+03 
       7.707696806873e-04       3.139945097706e+03 
       8.322579570814e-04       3.375152334390e+03 
       8.986514707061e-04       3.627127828226e+03 
       9.703415376577e-04       3.896905450005e+03 
       1.047750691338e-03       4.185552170918e+03 
       1.131335172818e-03       4.494162426769e+03 
       1.221587619877e-03       4.823850702630e+03 
       1.319039970550e-03       5.175742734953e+03 
       1.424266598317e-03       5.551019592450e+03 
       1.537887697396e-03       5.950788335767e+03 
       1.660572938097e-03       6.376123046618e+03 
       1.793045413791e-03       6.828073895815e+03 
       1.936085902737e-03       7.307625374911e+03 
       2.090537469909e-03       7.815671859464e+03 
       2.257310435923e-03       8.352990368212e+03 
       2.437387742372e-03       8.920211055666e+03 
       2.631830745176e-03       9.517783058989e+03 
       2.841785470091e-03       1.014593703221e+04 
       3.068489367268e-03       1.080464505071e+04 
       3.313278604643e-03       1.149357458384e+04 
       3.577595943165e-03       1.221203619195e+04 
       3.862999240274e-03       1.295892536020e+04 
       4.171170631739e-03       1.373266030461e+04 
       4.503926445983e-03       1.453111828896e+04 
       4.863227909323e-03       1.535154975416e+04 
       5.251192705226e-03       1.619063599173e+04 
       5.670107455699e-03       1.704431237445e+04 
       6.122441198393e-03       1.790755905676e+04 
       6.610859938837e-03       1.877460360639e+04 
       7.138242363583e-03       1.963872368448e+04 
       7.707696806873e-03       2.049215620348e+04 
       8.322579570814e-03       2.132606852861e+04 
       8.986514707061e-03       2.213054990002e+04 
       9.703415376577e-03       2.289445184896e+04 
       1.047750691338e-02       2.360547920042e+04 
       1.131335172818e-02       2.425022356049e+04 
       1.221587619877e-02       2.481423049299e+04 
       1.319039970550e-02       2.528219095154e+04 
       1.424266598317e-02       2.563812988528e+04 
       1.537887697392e-02       2.586605550408e+04 
       1.660572938023e-02       2.595025417229e+04 
       1.793045412706e-02       2.587627957952e+04 
       1.936085890181e-02       2.563213929362e+04 
       2.090537352463e-02       2.520929998599e+04 
       2.257309535333e-02       2.460433688736e+04 
       2.437382002918e-02       2.382070291632e+04 
       2.631799944462e-02       2.287021197603e+04 
       2.841644545389e-02       2.177419583366e+04 
       3.067933355377e-02       2.056519011026e+04 
       3.311368470740e-02       1.928683781765e+04 
       3.571840443502e-02       1.799338767083e+04 
       3.847720348444e-02       1.674610652745e+04 
       4.135335538431e-02       1.560367144493e+04 
       4.429361667738e-02       1.460929429212e+04 
       4.724366439141e-02       1.377931854247e+04 
       5.016480835311e-02       1.310358855083e+04 
       5.303989620246e-02       1.255547409709e+04 
       5.586870669566e-02       1.210237019206e+04 
       5.866042680613e-02       1.171256138318e+04 
       6.142798932958e-02       1.135813731138e+04 
       6.418496440164e-02       1.101595645915e+04 
       6.694418833788e-02       1.066781458283e+04 
       6.971731106057e-02       1.030040671612e+04 
       7.251476155766e-02       9.905521125560e+03 
       7.534587671527e-02       9.479998221546e+03 
       7.821907666265e-02       9.025358491504e+03 
       8.114203772912e-02       8.547853602675e+03 
       8.412184535029e-02       8.057126358812e+03 
       8.716512279304e-02       7.565601217701e+03 
       9.027813695930e-02       7.086978010163e+03 
       9.346688431697e-02       6.634591129797e+03 
       9.673716028276e-02       6.220405198770e+03 
       1.000946150830e-01       5.853204398138e+03 
       1.035447986537e-01       5.538093840087e+03 
       1.070931966762e-01       5.275533026900e+03 
       1.107452594425e-01       5.061332350619e+03 
       1.145064249153e-01       4.886601695768e+03 
       1.183821370918e-01       4.738611535910e+03 
       1.223778605862e-01       4.601879787073e+03 
       1.264990921987e-01       4.460098894506e+03 
       1.307513701367e-01       4.299057681505e+03 
       1.351402814784e-01       4.109469545953e+03 
       1.396714684203e-01       3.889427108724e+03 
       1.443506338194e-01       3.645301157045e+03 
       1.491835465229e-01       3.390458954820e+03 
       1.541760469708e-01       3.141943754936e+03 
       1.593340535561e-01       2.916538435793e+03 
       1.646635702297e-01       2.726156952174e+03 
       1.701706958456e-01       2.575177070195e+03 
       1.758616357459e-01       2.459194903395e+03 
       1.817427160982e-01       2.366070914510e+03 
       1.878204015065e-01       2.280106846176e+03 
       1.941013164283e-01       2.184358328718e+03 
       2.005922709503e-01       2.068291629856e+03 
       2.073002914972e-01       1.932891751847e+03 
       2.142326570816e-01       1.789616288481e+03 
       2.213969417533e-01       1.653703678378e+03 
       2.288010639706e-01       1.537155348711e+03 
       2.364533437147e-01       1.444749668968e+03 
       2.443625682930e-01       1.372167230155e+03 
       2.525380679504e-01       1.307566771384e+03 
       2.609898026346e-01       1.238572378517e+03 
       2.697284615565e-01       1.159668519239e+03 
       2.787655775689e-01       1.074338788561e+03 
       2.881136588829e-01       9.924898635527e+02 
       2.977863412677e-01       9.227867955236e+02 
       3.077985646929e-01       8.657339330889e+02 
       3.181667794071e-01       8.151593859793e+02 
       3.289091877812e-01       7.635389669196e+02 
       3.400460299658e-01       7.082090095223e+02 
       3.515999236474e-01       6.532676162513e+02 
       3.635962711085e-01       6.038431383894e+02 
       3.760637506334e-01       5.611856042440e+02 
       3.890349143879e-01       5.214362550746e+02 
       4.025469216825e-01       4.814135755068e+02 
       4.166424456376e-01       4.416760634875e+02 
       4.313708035863e-01       4.048863491044e+02 
       4.467893782977e-01       3.714888350328e+02 
       4.629654199664e-01       3.397883741044e+02 
       4.799783501994e-01       3.086650729792e+02 
       4.979227319373e-01       2.791077340982e+02 
       5.169121270864e-01       2.517704012649e+02 
       5.370841404489e-01       2.256210027265e+02 
       5.586070464571e-01       2.005000074428e+02 
       5.816885094930e-01       1.768787062406e+02 
       6.065870144995e-01       1.544419775082e+02 
       6.336266468475e-01       1.330718199705e+02 
       6.632156059511e-01       1.129275115262e+02 
       6.958678639263e-01       9.388406882139e+01 
       7.322247985589e-01       7.607191058644e+01 
       7.730680195114e-01       5.955585259004e+01 
       8.193049553677e-01       4.454348782155e+01 
       8.718988016039e-01       3.129612489144e+01 
       9.317218031082e-01       2.014791904614e+01 
       9.993660908989e-01       1.141180407901e+01 
       1.075037110174e+00       5.255470916308e+00 
       1.158653485707e+00       1.601221159444e+00 
       1.250099157308e+00       1.084092461434e-01 
       1.349432401273e+00       2.385515302469e-01 
       1.456947457397e+00       1.355209561367e+00 
       1.573135111331e+00       2.817263341748e+00 
       1.698621895592e+00       4.067202757726e+00 
       1.834127512934e+00       4.712906290668e+00 
       1.980444934528e+00       4.590604757292e+00 
       2.138435191726e+00       3.783817190787e+00 
       2.309029199186e+00       2.580294891077e+00 
       2.493232377687e+00       1.363397415838e+00 
       2.692130395285e+00       4.664397801476e-01 
       2.906895534573e+00       4.539607261442e-02 
       3.138793597714e+00       3.320830780660e-02 
       3.389191366484e+00       2.062391855469e-01 
       3.659564657905e+00       3.309178051904e-01 
       3.951507022538e+00       2.995243652956e-01 
       4.266739136701e+00       1.623118760637e-01 
       4.607118943941e+00       3.969602547719e-02 
       4.974652605557e+00       1.035712159706e-05 
       5.371506324689e+00       1.659799200895e-02 
       5.800019113685e+00       2.877225636925e-02 
       6.262716579983e+00       1.675775547005e-02 
       6.762325811764e+00       2.405436548510e-03 
       7.301791451110e+00       4.864239369525e-04 
       7.884293049406e+00       2.625728373309e-03 
       8.513263807261e+00       1.422868426780e-03 
       9.192410809424e+00       4.296473456669e-05 
       9.925736873929e+00       1.929530740322e-04 
       1.071756414427e+01       1.764012744688e-04 
       1.157255956364e+01       4.024912224534e-06 
       1.249576238137e+01       2.218466148872e-05 
       1.349261385375e+01       8.015732396264e-06 
       1.456898931416e+01       9.379923966502e-07 
       1.573123280165e+01       1.782818025930e-06 
       1.698619445202e+01       9.937352665591e-09 
       1.834127087176e+01       1.347809243867e-07 
       1.980444873285e+01       1.375514050260e-08 
       2.138435184532e+01       1.785001655244e-08 
       2.309029198506e+01       9.120434214191e-11 
       2.493232377636e+01       8.162286016046e-10 
       2.692130395282e+01       1.201924328767e-09 
       2.906895534573e+01       1.490034267374e-10 
       3.138793597714e+01       4.114917430530e-10 
       3.389191366484e+01       3.917530949467e-10 
       3.659564657905e+01       1.179340828880e-10 
       3.951507022538e+01       8.940783029047e-11 
       4.266739136701e+01       1.776077256110e-10 
       4.607118943941e+01       3.046215603754e-11 
       4.974652605557e+01       5.599297697437e-11 
       5.371506324689e+01       4.235906514543e-11 
       5.800019113685e+01       1.197470835296e-11 
       6.262716579983e+01       2.781434477237e-11 
       6.762325811764e+01       8.916533474711e-12 
