# Matter power spectrum P(k) at redshift z=99
# for k=1.04775e-05 to 67.6233 h/Mpc,
# number of wavenumbers equal to 246
#    1:k (h/Mpc)              2:P (Mpc/h)^3        
       1.047750691338e-05       7.261927673120e-03 
       1.131335172818e-05       7.820331745738e-03 
       1.221587619877e-05       8.421675986490e-03 
       1.319039970550e-05       9.069258192195e-03 
       1.424266598317e-05       9.766638404422e-03 
       1.537887697396e-05       1.051764069682e-02 
       1.660572938097e-05       1.132639105520e-02 
       1.793045413791e-05       1.219733231417e-02 
       1.936085902737e-05       1.313524224381e-02 
       2.090537469909e-05       1.414527121894e-02 
       2.257310435923e-05       1.523296272192e-02 
       2.437387742372e-05       1.640429444530e-02 
       2.631830745176e-05       1.766569582178e-02 
       2.841785470091e-05       1.902408601793e-02 
       3.068489367268e-05       2.048692970592e-02 
       3.313278604643e-05       2.206225513594e-02 
       3.577595943165e-05       2.375870704909e-02 
       3.862999240274e-05       2.558560727479e-02 
       4.171170631739e-05       2.755297763344e-02 
       4.503926445983e-05       2.967161927315e-02 
       4.863227909323e-05       3.195316450832e-02 
       5.251192705226e-05       3.441013519285e-02 
       5.670107455699e-05       3.705601722525e-02 
       6.122441198393e-05       3.990533413563e-02 
       6.610859938837e-05       4.297372168203e-02 
       7.138242363583e-05       4.627802141689e-02 
       7.707696806873e-05       4.983636194160e-02 
       8.322579570814e-05       5.366826847232e-02 
       8.986514707061e-05       5.779476394569e-02 
       9.703415376577e-05       6.223848243885e-02 
       1.047750691338e-04       6.702379865641e-02 
       1.131335172818e-04       7.217695153381e-02 
       1.221587619877e-04       7.772619073573e-02 
       1.319039970550e-04       8.370193432376e-02 
       1.424266598317e-04       9.013692507548e-02 
       1.537887697396e-04       9.706641242571e-02 
       1.660572938097e-04       1.045283354272e-01 
       1.793045413791e-04       1.125635349068e-01 
       1.936085902737e-04       1.212159614968e-01 
       2.090537469909e-04       1.305329132715e-01 
       2.257310435923e-04       1.405652846215e-01 
       2.437387742372e-04       1.513678302540e-01 
       2.631830745176e-04       1.629994504871e-01 
       2.841785470091e-04       1.755234921225e-01 
       3.068489367268e-04       1.890080670413e-01 
       3.313278604643e-04       2.035264002436e-01 
       3.577595943165e-04       2.191571803681e-01 
       3.862999240274e-04       2.359849437593e-01 
       4.171170631739e-04       2.541004741539e-01 
       4.503926445983e-04       2.736012080278e-01 
       4.863227909323e-04       2.945916790965e-01 
       5.251192705226e-04       3.171839525182e-01 
       5.670107455699e-04       3.414980764002e-01 
       6.122441198393e-04       3.676625413101e-01 
       6.610859938837e-04       3.958147252304e-01 
       7.138242363583e-04       4.261013284924e-01 
       7.707696806873e-04       4.586787792353e-01 
       8.322579570814e-04       4.937136001374e-01 
       8.986514707061e-04       5.313826801402e-01 
       9.703415376577e-04       5.718734972158e-01 
       1.047750691338e-03       6.153841629505e-01 
       1.131335172818e-03       6.621233239466e-01 
       1.221587619877e-03       7.123098220432e-01 
       1.319039970550e-03       7.661720584615e-01 
       1.424266598317e-03       8.239546297726e-01 
       1.537887697396e-03       8.859011173466e-01 
       1.660572938097e-03       9.522588006398e-01 
       1.793045413791e-03       1.023280099819e+00 
       1.936085902737e-03       1.099216304579e+00 
       2.090537469909e-03       1.180312990452e+00 
       2.257310435923e-03       1.266804115852e+00 
       2.437387742372e-03       1.358904853406e+00 
       2.631830745176e-03       1.456802683156e+00 
       2.841785470091e-03       1.560646890521e+00 
       3.068489367268e-03       1.670536062497e+00 
       3.313278604643e-03       1.786503852161e+00 
       3.577595943165e-03       1.908502930787e+00 
       3.862999240274e-03       2.036387730705e+00 
       4.171170631739e-03       2.169896178661e+00 
       4.503926445983e-03       2.308631878985e+00 
       4.863227909323e-03       2.452047290949e+00 
       5.251192705226e-03       2.599430628069e+00 
       5.670107455699e-03       2.749896931850e+00 
       6.122441198393e-03       2.902386513347e+00 
       6.610859938837e-03       3.055668628206e+00 
       7.138242363583e-03       3.208356461467e+00 
       7.707696806873e-03       3.358923891606e+00 
       8.322579570814e-03       3.505725594794e+00 
       8.986514707061e-03       3.647009661561e+00 
       9.703415376577e-03       3.780923303966e+00 
       1.047750691338e-02       3.905491456614e+00 
       1.131335172818e-02       4.018587640718e+00 
       1.221587619877e-02       4.117901693066e+00 
       1.319039970550e-02       4.200915283701e+00 
       1.424266598317e-02       4.264942518605e+00 
       1.537887697392e-02       4.307217144451e+00 
       1.660572938023e-02       4.325062135898e+00 
       1.793045412706e-02       4.316056495225e+00 
       1.936085890181e-02       4.278226659904e+00 
       2.090537352463e-02       4.210204611614e+00 
       2.257309535333e-02       4.111419652129e+00 
       2.437382002918e-02       3.982413643550e+00 
       2.631799944462e-02       3.825166296611e+00 
       2.841644545389e-02       3.643281370265e+00 
       3.067933355377e-02       3.442197121072e+00 
       3.311368470740e-02       3.229237605006e+00 
       3.571840443502e-02       3.013514768913e+00 
       3.847720348444e-02       2.805278959799e+00 
       4.135335538431e-02       2.614408069185e+00 
       4.429361667738e-02       2.448126435168e+00 
       4.724366439141e-02       2.309235997624e+00 
       5.016480835311e-02       2.196111800588e+00 
       5.303989620246e-02       2.104365781671e+00 
       5.586870669566e-02       2.028458445212e+00 
       5.866042680613e-02       1.963152266405e+00 
       6.142798932958e-02       1.903780915483e+00 
       6.418496440164e-02       1.846481455622e+00 
       6.694418833788e-02       1.788194883076e+00 
       6.971731106057e-02       1.726717085547e+00 
       7.251476155766e-02       1.660653531586e+00 
       7.534587671527e-02       1.589470895914e+00 
       7.821907666265e-02       1.513437022662e+00 
       8.114203772912e-02       1.433570647753e+00 
       8.412184535029e-02       1.351492293311e+00 
       8.716512279304e-02       1.269274459879e+00 
       9.027813695930e-02       1.189190806179e+00 
       9.346688431697e-02       1.113499500948e+00 
       9.673716028276e-02       1.044171245496e+00 
       1.000946150830e-01       9.827058699404e-01 
       1.035447986537e-01       9.299355146194e-01 
       1.070931966762e-01       8.859567191777e-01 
       1.107452594425e-01       8.500699960601e-01 
       1.145064249153e-01       8.208015296708e-01 
       1.183821370918e-01       7.960244988770e-01 
       1.223778605862e-01       7.731441336771e-01 
       1.264990921987e-01       7.494503648424e-01 
       1.307513701367e-01       7.225544648187e-01 
       1.351402814784e-01       6.909065641841e-01 
       1.396714684203e-01       6.541791290220e-01 
       1.443506338194e-01       6.134240785856e-01 
       1.491835465229e-01       5.708654228756e-01 
       1.541760469708e-01       5.293611677962e-01 
       1.593340535561e-01       4.917074034764e-01 
       1.646635702297e-01       4.599162646068e-01 
       1.701706958456e-01       4.347254814717e-01 
       1.758616357459e-01       4.154041253864e-01 
       1.817427160982e-01       3.999329139013e-01 
       1.878204015065e-01       3.856780871989e-01 
       1.941013164283e-01       3.698049012865e-01 
       2.005922709503e-01       3.505423006896e-01 
       2.073002914972e-01       3.280384876829e-01 
       2.142326570816e-01       3.042091408937e-01 
       2.213969417533e-01       2.816065814873e-01 
       2.288010639706e-01       2.622518699199e-01 
       2.364533437147e-01       2.469560491067e-01 
       2.443625682930e-01       2.350066570186e-01 
       2.525380679504e-01       2.244107982237e-01 
       2.609898026346e-01       2.130865965993e-01 
       2.697284615565e-01       2.000940292085e-01 
       2.787655775689e-01       1.860120373965e-01 
       2.881136588829e-01       1.725092268328e-01 
       2.977863412677e-01       1.610572503671e-01 
       3.077985646929e-01       1.517517639918e-01 
       3.181667794071e-01       1.435489184673e-01 
       3.289091877812e-01       1.351711562824e-01 
       3.400460299658e-01       1.261532706632e-01 
       3.515999236474e-01       1.171904594563e-01 
       3.635962711085e-01       1.091649401090e-01 
       3.760637506334e-01       1.022970345194e-01 
       3.890349143879e-01       9.592442660041e-02 
       4.025469216825e-01       8.949363563472e-02 
       4.166424456376e-01       8.309753261199e-02 
       4.313708035863e-01       7.720029791614e-02 
       4.467893782977e-01       7.188481941191e-02 
       4.629654199664e-01       6.685231911999e-02 
       4.799783501994e-01       6.189997005559e-02 
       4.979227319373e-01       5.720405285085e-02 
       5.169121270864e-01       5.288360644944e-02 
       5.370841404489e-01       4.874954829956e-02 
       5.586070464571e-01       4.476974230542e-02 
       5.816885094930e-01       4.102955163598e-02 
       6.065870144995e-01       3.746634168335e-02 
       6.336266468475e-01       3.405160771199e-02 
       6.632156059511e-01       3.080844170700e-02 
       6.958678639263e-01       2.770058921306e-02 
       7.322247985589e-01       2.473771651021e-02 
       7.730680195114e-01       2.190821520769e-02 
       8.193049553677e-01       1.922266484818e-02 
       8.718988016039e-01       1.669340227223e-02 
       9.317218031082e-01       1.434567637003e-02 
       9.993660908989e-01       1.220912278393e-02 
       1.075037110174e+00       1.030770807525e-02 
       1.158653485707e+00       8.651271752979e-03 
       1.250099157308e+00       7.232330729104e-03 
       1.349432401273e+00       6.029208447019e-03 
       1.456947457397e+00       5.015232359146e-03 
       1.573135111331e+00       4.163450327244e-03 
       1.698621895592e+00       3.449184446009e-03 
       1.834127512934e+00       2.850971448681e-03 
       1.980444934528e+00       2.350423798752e-03 
       2.138435191726e+00       1.931990705539e-03 
       2.309029199186e+00       1.582476352639e-03 
       2.493232377687e+00       1.290802578501e-03 
       2.692130395285e+00       1.047602616819e-03 
       2.906895534573e+00       8.450225860510e-04 
       3.138793597714e+00       6.765157383241e-04 
       3.389191366484e+00       5.366006431743e-04 
       3.659564657905e+00       4.207251815400e-04 
       3.951507022538e+00       3.251279325622e-04 
       4.266739136701e+00       2.466838826746e-04 
       4.607118943941e+00       1.828367658487e-04 
       4.974652605557e+00       1.314591679091e-04 
       5.371506324689e+00       9.080671418586e-05 
       5.800019113685e+00       5.939875152595e-05 
       6.262716579983e+00       3.596946681421e-05 
       6.762325811764e+00       1.938294181378e-05 
       7.301791451110e+00       8.579433069249e-06 
       7.884293049406e+00       2.519173904695e-06 
       8.513263807261e+00       1.529562323349e-07 
       9.192410809424e+00       4.127036471223e-07 
       9.925736873929e+00       2.234977066451e-06 
       1.071756414427e+01       4.617450037113e-06 
       1.157255956364e+01       6.703342254657e-06 
       1.249576238137e+01       7.879529744230e-06 
       1.349261385375e+01       7.859424278679e-06 
       1.456898931416e+01       6.717876794868e-06 
       1.573123280165e+01       4.844668012378e-06 
       1.698619445202e+01       2.808768914876e-06 
       1.834127087176e+01       1.158471287376e-06 
       1.980444873285e+01       2.230824863903e-07 
       2.138435184532e+01       4.047304616120e-09 
       2.309029198506e+01       2.185175797819e-07 
       2.493232377636e+01       4.838370170311e-07 
       2.692130395282e+01       5.408829951988e-07 
       2.906895534573e+01       3.733111203876e-07 
       3.138793597714e+01       1.441733441991e-07 
       3.389191366484e+01       1.431690988520e-08 
       3.659564657905e+01       8.452313364518e-09 
       3.951507022538e+01       4.099269921687e-08 
       4.266739136701e+01       4.044215301328e-08 
       4.607118943941e+01       1.445977731949e-08 
       4.974652605557e+01       3.332067300419e-10 
       5.371506324689e+01       2.547052763304e-09 
       5.800019113685e+01       3.878859806202e-09 
       6.262716579983e+01       1.019365141487e-09 
       6.762325811764e+01       2.202325226978e-11 
