# Matter power spectrum P(k) at redshift z=0
# for k=1.04775e-05 to 67.6233 h/Mpc,
# number of wavenumbers equal to 246
#    1:k (h/Mpc)              2:P (Mpc/h)^3        
       1.047750691338e-05       5.020964806750e+01 
       1.131335172818e-05       5.407048206553e+01 
       1.221587619877e-05       5.822819063728e+01 
       1.319039970550e-05       6.270562589683e+01 
       1.424266598317e-05       6.752731788102e+01 
       1.537887697396e-05       7.271977200258e+01 
       1.660572938097e-05       7.831147241542e+01 
       1.793045413791e-05       8.433311815128e+01 
       1.936085902737e-05       9.081778242446e+01 
       2.090537469909e-05       9.780108061339e+01 
       2.257310435923e-05       1.053213197032e+02 
       2.437387742372e-05       1.134197377001e+02 
       2.631830745176e-05       1.221408202816e+02 
       2.841785470091e-05       1.315324720916e+02 
       3.068489367268e-05       1.416462093730e+02 
       3.313278604643e-05       1.525374500691e+02 
       3.577595943165e-05       1.642660687078e+02 
       3.862999240274e-05       1.768963504868e+02 
       4.171170631739e-05       1.904975992460e+02 
       4.503926445983e-05       2.051444490305e+02 
       4.863227909323e-05       2.209171463752e+02 
       5.251192705226e-05       2.379022222314e+02 
       5.670107455699e-05       2.561927925590e+02 
       6.122441198393e-05       2.758890441791e+02 
       6.610859938837e-05       2.970989225466e+02 
       7.138242363583e-05       3.199385558200e+02 
       7.707696806873e-05       3.445329780878e+02 
       8.322579570814e-05       3.710167315928e+02 
       8.986514707061e-05       3.995346440954e+02 
       9.703415376577e-05       4.302425403884e+02 
       1.047750691338e-04       4.633080762974e+02 
       1.131335172818e-04       4.989116267507e+02 
       1.221587619877e-04       5.372471946561e+02 
       1.319039970550e-04       5.785234124638e+02 
       1.424266598317e-04       6.229645930980e+02 
       1.537887697396e-04       6.708118484951e+02 
       1.660572938097e-04       7.223242660220e+02 
       1.793045413791e-04       7.777801553269e+02 
       1.936085902737e-04       8.374783607333e+02 
       2.090537469909e-04       9.017396264495e+02 
       2.257310435923e-04       9.709080260152e+02 
       2.437387742372e-04       1.045352448644e+03 
       2.631830745176e-04       1.125468122835e+03 
       2.841785470091e-04       1.211678179511e+03 
       3.068489367268e-04       1.304435249091e+03 
       3.313278604643e-04       1.404223052541e+03 
       3.577595943165e-04       1.511558013390e+03 
       3.862999240274e-04       1.626990836488e+03 
       4.171170631739e-04       1.751108027370e+03 
       4.503926445983e-04       1.884533381345e+03 
       4.863227909323e-04       2.027929376470e+03 
       5.251192705226e-04       2.181998446367e+03 
       5.670107455699e-04       2.347484100857e+03 
       6.122441198393e-04       2.525171869337e+03 
       6.610859938837e-04       2.715889981401e+03 
       7.138242363583e-04       2.920509686088e+03 
       7.707696806873e-04       3.139945097711e+03 
       8.322579570814e-04       3.375152334396e+03 
       8.986514707061e-04       3.627127828231e+03 
       9.703415376577e-04       3.896905450016e+03 
       1.047750691338e-03       4.185552170957e+03 
       1.131335172818e-03       4.494162426791e+03 
       1.221587619877e-03       4.823850702669e+03 
       1.319039970550e-03       5.175742738848e+03 
       1.424266598317e-03       5.551019592517e+03 
       1.537887697396e-03       5.950788335873e+03 
       1.660572938097e-03       6.376123046808e+03 
       1.793045413791e-03       6.828073896125e+03 
       1.936085902737e-03       7.307625375387e+03 
       2.090537469909e-03       7.815671859947e+03 
       2.257310435923e-03       8.352990369401e+03 
       2.437387742372e-03       8.920211057522e+03 
       2.631830745176e-03       9.517783061890e+03 
       2.841785470091e-03       1.014593703671e+04 
       3.068489367268e-03       1.080464505731e+04 
       3.313278604643e-03       1.149357459428e+04 
       3.577595943165e-03       1.221203620826e+04 
       3.862999240274e-03       1.295892538505e+04 
       4.171170631739e-03       1.373266002226e+04 
       4.503926445983e-03       1.453111834595e+04 
       4.863227909323e-03       1.535154984227e+04 
       5.251192705226e-03       1.619063613435e+04 
       5.670107455699e-03       1.704431256582e+04 
       6.122441198393e-03       1.790755938454e+04 
       6.610859938837e-03       1.877460419560e+04 
       7.138242363583e-03       1.963872429099e+04 
       7.707696806873e-03       2.049215712425e+04 
       8.322579570814e-03       2.132607271728e+04 
       8.986514707061e-03       2.213054840990e+04 
       9.703415376577e-03       2.289445470805e+04 
       1.047750691338e-02       2.360548011602e+04 
       1.131335172818e-02       2.425022856778e+04 
       1.221587619877e-02       2.481423924310e+04 
       1.319039970550e-02       2.528218625156e+04 
       1.424266598317e-02       2.563814752447e+04 
       1.537887697392e-02       2.586606142169e+04 
       1.660572938023e-02       2.595027363202e+04 
       1.793045412706e-02       2.587633792241e+04 
       1.936085890181e-02       2.563220287167e+04 
       2.090537352463e-02       2.520936244402e+04 
       2.257309535333e-02       2.460448545960e+04 
       2.437382002918e-02       2.382091135563e+04 
       2.631799944462e-02       2.287048422891e+04 
       2.841644545389e-02       2.177452958828e+04 
       3.067933355377e-02       2.056554506409e+04 
       3.311368470740e-02       1.928728094243e+04 
       3.571840443502e-02       1.799399498761e+04 
       3.847720348444e-02       1.674680552908e+04 
       4.135335538431e-02       1.560462852058e+04 
       4.429361667738e-02       1.461035470441e+04 
       4.724366439141e-02       1.378056079797e+04 
       5.016480835311e-02       1.310507066429e+04 
       5.303989620246e-02       1.255716186807e+04 
       5.586870669566e-02       1.210426136390e+04 
       5.866042680613e-02       1.171462531946e+04 
       6.142798932958e-02       1.136048423283e+04 
       6.418496440164e-02       1.101855076434e+04 
       6.694418833788e-02       1.067068944746e+04 
       6.971731106057e-02       1.030359601094e+04 
       7.251476155766e-02       9.909002459183e+03 
       7.534587671527e-02       9.483773228821e+03 
       7.821907666265e-02       9.029510696110e+03 
       8.114203772912e-02       8.552332341104e+03 
       8.412184535029e-02       8.061933536009e+03 
       8.716512279304e-02       7.570770556659e+03 
       9.027813695930e-02       7.092512538379e+03 
       9.346688431697e-02       6.640518496951e+03 
       9.673716028276e-02       6.226712323162e+03 
       1.000946150830e-01       5.859941989535e+03 
       1.035447986537e-01       5.545239726677e+03 
       1.070931966762e-01       5.283128283859e+03 
       1.107452594425e-01       5.069416436951e+03 
       1.145064249153e-01       4.895246810826e+03 
       1.183821370918e-01       4.747840042143e+03 
       1.223778605862e-01       4.611753333703e+03 
       1.264990921987e-01       4.470619484002e+03 
       1.307513701367e-01       4.310271291960e+03 
       1.351402814784e-01       4.121394446843e+03 
       1.396714684203e-01       3.902075192550e+03 
       1.443506338194e-01       3.658636205577e+03 
       1.491835465229e-01       3.404481866348e+03 
       1.541760469708e-01       3.156677466999e+03 
       1.593340535561e-01       2.931978191482e+03 
       1.646635702297e-01       2.742371417604e+03 
       1.701706958456e-01       2.592259627883e+03 
       1.758616357459e-01       2.477240621714e+03 
       1.817427160982e-01       2.385184973109e+03 
       1.878204015065e-01       2.300359815992e+03 
       1.941013164283e-01       2.205762787180e+03 
       2.005922709503e-01       2.090812067311e+03 
       2.073002914972e-01       1.956472166013e+03 
       2.142326570816e-01       1.814194496995e+03 
       2.213969417533e-01       1.679299806703e+03 
       2.288010639706e-01       1.563849921636e+03 
       2.364533437147e-01       1.472684211801e+03 
       2.443625682930e-01       1.401514909245e+03 
       2.525380679504e-01       1.338415708872e+03 
       2.609898026346e-01       1.270906345890e+03 
       2.697284615565e-01       1.193382820764e+03 
       2.787655775689e-01       1.109337822346e+03 
       2.881136588829e-01       1.028768596241e+03 
       2.977863412677e-01       9.604836600947e+02 
       3.077985646929e-01       9.050240316777e+02 
       3.181667794071e-01       8.561453072381e+02 
       3.289091877812e-01       8.061883701150e+02 
       3.400460299658e-01       7.523920199755e+02 
       3.515999236474e-01       6.989221969809e+02 
       3.635962711085e-01       6.510638053456e+02 
       3.760637506334e-01       6.101236441934e+02 
       3.890349143879e-01       5.721334370627e+02 
       4.025469216825e-01       5.337840298893e+02 
       4.166424456376e-01       4.956315607650e+02 
       4.313708035863e-01       4.604693140274e+02 
       4.467893782977e-01       4.287770554214e+02 
       4.629654199664e-01       3.987726859558e+02 
       4.799783501994e-01       3.692416460175e+02 
       4.979227319373e-01       3.412400949230e+02 
       5.169121270864e-01       3.154840184305e+02 
       5.370841404489e-01       2.908358412132e+02 
       5.586070464571e-01       2.671060126894e+02 
       5.816885094930e-01       2.448093796774e+02 
       6.065870144995e-01       2.235687443039e+02 
       6.336266468475e-01       2.032106582291e+02 
       6.632156059511e-01       1.838790263958e+02 
       6.958678639263e-01       1.653549286999e+02 
       7.322247985589e-01       1.476956809403e+02 
       7.730680195114e-01       1.308341649686e+02 
       8.193049553677e-01       1.148314650226e+02 
       8.718988016039e-01       9.976282311239e+01 
       9.317218031082e-01       8.577794815174e+01 
       9.993660908989e-01       7.305504338175e+01 
       1.075037110174e+00       6.173614932759e+01 
       1.158653485707e+00       5.187926995204e+01 
       1.250099157308e+00       4.344031584128e+01 
       1.349432401273e+00       3.628943622910e+01 
       1.456947457397e+00       3.026814148393e+01 
       1.573135111331e+00       2.521453447800e+01 
       1.698621895592e+00       2.098206290458e+01 
       1.834127512934e+00       1.744247457164e+01 
       1.980444934528e+00       1.448569125084e+01 
       2.138435191726e+00       1.201899164656e+01 
       2.309029199186e+00       9.963215420890e+00 
       2.493232377687e+00       8.251796217621e+00 
       2.692130395285e+00       6.828590406294e+00 
       2.906895534573e+00       5.646236660988e+00 
       3.138793597714e+00       4.664874107140e+00 
       3.389191366484e+00       3.851123678297e+00 
       3.659564657905e+00       3.176931963045e+00 
       3.951507022538e+00       2.618880029161e+00 
       4.266739136701e+00       2.157349160906e+00 
       4.607118943941e+00       1.775928563441e+00 
       4.974652605557e+00       1.460994937256e+00 
       5.371506324689e+00       1.201137289604e+00 
       5.800019113685e+00       9.868784369293e-01 
       6.262716579983e+00       8.103448839238e-01 
       6.762325811764e+00       6.650101654816e-01 
       7.301791451110e+00       5.454303491875e-01 
       7.884293049406e+00       4.471021363297e-01 
       8.513263807261e+00       3.662958550607e-01 
       9.192410809424e+00       2.999411569785e-01 
       9.925736873929e+00       2.454804952759e-01 
       1.071756414427e+01       2.008078650133e-01 
       1.157255956364e+01       1.641840683910e-01 
       1.249576238137e+01       1.341766881827e-01 
       1.349261385375e+01       1.096027315387e-01 
       1.456898931416e+01       8.948909189336e-02 
       1.573123280165e+01       7.303383225003e-02 
       1.698619445202e+01       5.957834111538e-02 
       1.834127087176e+01       4.858120349520e-02 
       1.980444873285e+01       3.959693018884e-02 
       2.138435184532e+01       3.226108695700e-02 
       2.309029198506e+01       2.627324232180e-02 
       2.493232377636e+01       2.138847894024e-02 
       2.692130395282e+01       1.740473058260e-02 
       2.906895534573e+01       1.415736519683e-02 
       3.138793597714e+01       1.151124043470e-02 
       3.389191366484e+01       9.355963348211e-03 
       3.659564657905e+01       7.601149491529e-03 
       3.951507022538e+01       6.172991980103e-03 
       4.266739136701e+01       5.010991797503e-03 
       4.607118943941e+01       4.066065013436e-03 
       4.974652605557e+01       3.297851613885e-03 
       5.371506324689e+01       2.673561124869e-03 
       5.800019113685e+01       2.166425177779e-03 
       6.262716579983e+01       1.754610244897e-03 
       6.762325811764e+01       1.420291909990e-03 
