# Matter power spectrum P(k) at redshift z=0
# for k=1.04775e-05 to 67.6233 h/Mpc,
# number of wavenumbers equal to 246
#    1:k (h/Mpc)              2:P (Mpc/h)^3        
       1.047750691338e-05       5.020964806748e+01 
       1.131335172818e-05       5.407048206553e+01 
       1.221587619877e-05       5.822819063790e+01 
       1.319039970550e-05       6.270562589678e+01 
       1.424266598317e-05       6.752731788102e+01 
       1.537887697396e-05       7.271977200257e+01 
       1.660572938097e-05       7.831147241542e+01 
       1.793045413791e-05       8.433311815128e+01 
       1.936085902737e-05       9.081778242446e+01 
       2.090537469909e-05       9.780108061340e+01 
       2.257310435923e-05       1.053213197032e+02 
       2.437387742372e-05       1.134197377001e+02 
       2.631830745176e-05       1.221408202816e+02 
       2.841785470091e-05       1.315324720916e+02 
       3.068489367268e-05       1.416462093729e+02 
       3.313278604643e-05       1.525374500691e+02 
       3.577595943165e-05       1.642660687078e+02 
       3.862999240274e-05       1.768963504868e+02 
       4.171170631739e-05       1.904975992460e+02 
       4.503926445983e-05       2.051444490305e+02 
       4.863227909323e-05       2.209171463752e+02 
       5.251192705226e-05       2.379022222314e+02 
       5.670107455699e-05       2.561927925763e+02 
       6.122441198393e-05       2.758890441790e+02 
       6.610859938837e-05       2.970989225466e+02 
       7.138242363583e-05       3.199385558200e+02 
       7.707696806873e-05       3.445329780878e+02 
       8.322579570814e-05       3.710167315928e+02 
       8.986514707061e-05       3.995346440954e+02 
       9.703415376577e-05       4.302425403884e+02 
       1.047750691338e-04       4.633080762974e+02 
       1.131335172818e-04       4.989116267507e+02 
       1.221587619877e-04       5.372471946561e+02 
       1.319039970550e-04       5.785234124634e+02 
       1.424266598317e-04       6.229645930980e+02 
       1.537887697396e-04       6.708118484951e+02 
       1.660572938097e-04       7.223242660220e+02 
       1.793045413791e-04       7.777801553132e+02 
       1.936085902737e-04       8.374783607333e+02 
       2.090537469909e-04       9.017396264495e+02 
       2.257310435923e-04       9.709080260152e+02 
       2.437387742372e-04       1.045352448644e+03 
       2.631830745176e-04       1.125468122835e+03 
       2.841785470091e-04       1.211678179510e+03 
       3.068489367268e-04       1.304435249091e+03 
       3.313278604643e-04       1.404223052541e+03 
       3.577595943165e-04       1.511558013390e+03 
       3.862999240274e-04       1.626990836454e+03 
       4.171170631739e-04       1.751108027370e+03 
       4.503926445983e-04       1.884533381345e+03 
       4.863227909323e-04       2.027929376470e+03 
       5.251192705226e-04       2.181998446367e+03 
       5.670107455699e-04       2.347484100857e+03 
       6.122441198393e-04       2.525171869335e+03 
       6.610859938837e-04       2.715889981401e+03 
       7.138242363583e-04       2.920509686086e+03 
       7.707696806873e-04       3.139945097709e+03 
       8.322579570814e-04       3.375152334394e+03 
       8.986514707061e-04       3.627127828230e+03 
       9.703415376577e-04       3.896905450014e+03 
       1.047750691338e-03       4.185552170948e+03 
       1.131335172818e-03       4.494162426788e+03 
       1.221587619877e-03       4.823850702656e+03 
       1.319039970550e-03       5.175742737663e+03 
       1.424266598317e-03       5.551019592510e+03 
       1.537887697396e-03       5.950788335871e+03 
       1.660572938097e-03       6.376123046717e+03 
       1.793045413791e-03       6.828073896117e+03 
       1.936085902737e-03       7.307625375374e+03 
       2.090537469909e-03       7.815671856142e+03 
       2.257310435923e-03       8.352990369382e+03 
       2.437387742372e-03       8.920211057512e+03 
       2.631830745176e-03       9.517783061856e+03 
       2.841785470091e-03       1.014593703667e+04 
       3.068489367268e-03       1.080464505722e+04 
       3.313278604643e-03       1.149357459425e+04 
       3.577595943165e-03       1.221203620818e+04 
       3.862999240274e-03       1.295892538494e+04 
       4.171170631739e-03       1.373266001084e+04 
       4.503926445983e-03       1.453111834578e+04 
       4.863227909323e-03       1.535154983606e+04 
       5.251192705226e-03       1.619063609759e+04 
       5.670107455699e-03       1.704431256404e+04 
       6.122441198393e-03       1.790755940593e+04 
       6.610859938837e-03       1.877460398984e+04 
       7.138242363583e-03       1.963872436106e+04 
       7.707696806873e-03       2.049215713118e+04 
       8.322579570814e-03       2.132607259527e+04 
       8.986514707061e-03       2.213054974264e+04 
       9.703415376577e-03       2.289445498342e+04 
       1.047750691338e-02       2.360547971142e+04 
       1.131335172818e-02       2.425023044206e+04 
       1.221587619877e-02       2.481423933035e+04 
       1.319039970550e-02       2.528218982884e+04 
       1.424266598317e-02       2.563814345812e+04 
       1.537887697392e-02       2.586608355552e+04 
       1.660572938023e-02       2.595028569636e+04 
       1.793045412706e-02       2.587634204622e+04 
       1.936085890181e-02       2.563218005388e+04 
       2.090537352463e-02       2.520935385869e+04 
       2.257309535333e-02       2.460447139937e+04 
       2.437382002918e-02       2.382085764033e+04 
       2.631799944462e-02       2.287038288012e+04 
       2.841644545389e-02       2.177452210945e+04 
       3.067933355377e-02       2.056551029619e+04 
       3.311368470740e-02       1.928732370925e+04 
       3.571840443502e-02       1.799402610591e+04 
       3.847720348444e-02       1.674680248933e+04 
       4.135335538431e-02       1.560457615015e+04 
       4.429361667738e-02       1.461033359326e+04 
       4.724366439141e-02       1.378052932238e+04 
       5.016480835311e-02       1.310505193122e+04 
       5.303989620246e-02       1.255716598491e+04 
       5.586870669566e-02       1.210427167114e+04 
       5.866042680613e-02       1.171468552699e+04 
       6.142798932958e-02       1.136055219309e+04 
       6.418496440164e-02       1.101859414760e+04 
       6.694418833788e-02       1.067071843349e+04 
       6.971731106057e-02       1.030363428439e+04 
       7.251476155766e-02       9.909083152410e+03 
       7.534587671527e-02       9.483779804173e+03 
       7.821907666265e-02       9.029503078501e+03 
       8.114203772912e-02       8.552348276060e+03 
       8.412184535029e-02       8.061992625899e+03 
       8.716512279304e-02       7.570796093002e+03 
       9.027813695930e-02       7.092493088889e+03 
       9.346688431697e-02       6.640535284557e+03 
       9.673716028276e-02       6.226739359772e+03 
       1.000946150830e-01       5.859980840157e+03 
       1.035447986537e-01       5.545298981065e+03 
       1.070931966762e-01       5.283160338965e+03 
       1.107452594425e-01       5.069431723161e+03 
       1.145064249153e-01       4.895255011084e+03 
       1.183821370918e-01       4.747852328535e+03 
       1.223778605862e-01       4.611735208182e+03 
       1.264990921987e-01       4.470620105607e+03 
       1.307513701367e-01       4.310274907946e+03 
       1.351402814784e-01       4.121362311205e+03 
       1.396714684203e-01       3.902058231387e+03 
       1.443506338194e-01       3.658657321166e+03 
       1.491835465229e-01       3.404472266142e+03 
       1.541760469708e-01       3.156650118158e+03 
       1.593340535561e-01       2.931932259527e+03 
       1.646635702297e-01       2.742353638713e+03 
       1.701706958456e-01       2.592242130345e+03 
       1.758616357459e-01       2.477220530378e+03 
       1.817427160982e-01       2.385163543539e+03 
       1.878204015065e-01       2.300354447660e+03 
       1.941013164283e-01       2.205772629847e+03 
       2.005922709503e-01       2.090828093758e+03 
       2.073002914972e-01       1.956466010497e+03 
       2.142326570816e-01       1.814172920762e+03 
       2.213969417533e-01       1.679269737418e+03 
       2.288010639706e-01       1.563833795008e+03 
       2.364533437147e-01       1.472670819433e+03 
       2.443625682930e-01       1.401508990584e+03 
       2.525380679504e-01       1.338419585325e+03 
       2.609898026346e-01       1.270900494312e+03 
       2.697284615565e-01       1.193362901629e+03 
       2.787655775689e-01       1.109333074301e+03 
       2.881136588829e-01       1.028759734540e+03 
       2.977863412677e-01       9.604733636144e+02 
       3.077985646929e-01       9.050164322289e+02 
       3.181667794071e-01       8.561372127702e+02 
       3.289091877812e-01       8.061807414437e+02 
       3.400460299658e-01       7.523835486473e+02 
       3.515999236474e-01       6.989135382020e+02 
       3.635962711085e-01       6.510558981346e+02 
       3.760637506334e-01       6.101166937174e+02 
       3.890349143879e-01       5.721264641866e+02 
       4.025469216825e-01       5.337761648170e+02 
       4.166424456376e-01       4.956229899826e+02 
       4.313708035863e-01       4.604644478505e+02 
       4.467893782977e-01       4.287697430159e+02 
       4.629654199664e-01       3.987682149361e+02 
       4.799783501994e-01       3.692353097218e+02 
       4.979227319373e-01       3.412357487938e+02 
       5.169121270864e-01       3.154769884426e+02 
       5.370841404489e-01       2.908293527517e+02 
       5.586070464571e-01       2.671030970075e+02 
       5.816885094930e-01       2.448040496981e+02 
       6.065870144995e-01       2.235640136999e+02 
       6.336266468475e-01       2.032076715305e+02 
       6.632156059511e-01       1.838751566019e+02 
       6.958678639263e-01       1.653513773198e+02 
       7.322247985589e-01       1.476913120100e+02 
       7.730680195114e-01       1.308303911765e+02 
       8.193049553677e-01       1.148280328772e+02 
       8.718988016039e-01       9.975895574556e+01 
       9.317218031082e-01       8.577387971141e+01 
       9.993660908989e-01       7.305017976921e+01 
       1.075037110174e+00       6.173113813409e+01 
       1.158653485707e+00       5.187381403952e+01 
       1.250099157308e+00       4.343439523758e+01 
       1.349432401273e+00       3.628318633537e+01 
       1.456947457397e+00       3.026108260735e+01 
       1.573135111331e+00       2.520698264382e+01 
       1.698621895592e+00       2.097370566106e+01 
       1.834127512934e+00       1.743321657135e+01 
       1.980444934528e+00       1.447569710179e+01 
       2.138435191726e+00       1.200796297134e+01 
       2.309029199186e+00       9.951216680124e+00 
       2.493232377687e+00       8.238726358262e+00 
       2.692130395285e+00       6.814296737892e+00 
       2.906895534573e+00       5.630602811445e+00 
       3.138793597714e+00       4.647787203025e+00 
       3.389191366484e+00       3.832488309450e+00 
       3.659564657905e+00       3.156637624285e+00 
       3.951507022538e+00       2.596790969079e+00 
       4.266739136701e+00       2.133350404699e+00 
       4.607118943941e+00       1.749906846117e+00 
       4.974652605557e+00       1.432801917648e+00 
       5.371506324689e+00       1.170674355104e+00 
       5.800019113685e+00       9.540460684500e-01 
       6.262716579983e+00       7.750673222022e-01 
       6.762325811764e+00       6.271862253190e-01 
       7.301791451110e+00       5.050454182104e-01 
       7.884293049406e+00       4.041639630369e-01 
       8.513263807261e+00       3.208748310298e-01 
       9.192410809424e+00       2.521664453864e-01 
       9.925736873929e+00       1.955786743629e-01 
       1.071756414427e+01       1.491086451403e-01 
       1.157255956364e+01       1.111414929357e-01 
       1.249576238137e+01       8.038441402397e-02 
       1.349261385375e+01       5.580366200871e-02 
       1.456898931416e+01       3.657783287936e-02 
       1.573123280165e+01       2.203989179099e-02 
       1.698619445202e+01       1.162771684854e-02 
       1.834127087176e+01       4.831737525850e-03 
       1.980444873285e+01       1.141915286640e-03 
       2.138435184532e+01       1.300159328223e-06 
       2.309029198506e+01       7.736921182335e-04 
       2.493232377636e+01       2.736515909407e-03 
       2.692130395282e+01       5.111998332581e-03 
       2.906895534573e+01       7.145072163737e-03 
       3.138793597714e+01       8.223957740932e-03 
       3.389191366484e+01       8.017788260619e-03 
       3.659564657905e+01       6.584889950160e-03 
       3.951507022538e+01       4.384286220502e-03 
       4.266739136701e+01       2.138707586291e-03 
       4.607118943941e+01       5.556751811494e-04 
       4.974652605557e+01       1.422090389405e-06 
       5.371506324689e+01       3.097721144098e-04 
       5.800019113685e+01       8.896768965131e-04 
       6.262716579983e+01       1.128416665410e-03 
       6.762325811764e+01       8.292293051808e-04 
