# Matter power spectrum P(k) at redshift z=0
# for k=1.04775e-05 to 67.6233 h/Mpc,
# number of wavenumbers equal to 246
#    1:k (h/Mpc)              2:P (Mpc/h)^3        
       1.047750691338e-05       5.020964806749e+01 
       1.131335172818e-05       5.407048206553e+01 
       1.221587619877e-05       5.822819063713e+01 
       1.319039970550e-05       6.270562589680e+01 
       1.424266598317e-05       6.752731788102e+01 
       1.537887697396e-05       7.271977200258e+01 
       1.660572938097e-05       7.831147241542e+01 
       1.793045413791e-05       8.433311815128e+01 
       1.936085902737e-05       9.081778242446e+01 
       2.090537469909e-05       9.780108061341e+01 
       2.257310435923e-05       1.053213197032e+02 
       2.437387742372e-05       1.134197377001e+02 
       2.631830745176e-05       1.221408202816e+02 
       2.841785470091e-05       1.315324720916e+02 
       3.068489367268e-05       1.416462093729e+02 
       3.313278604643e-05       1.525374500691e+02 
       3.577595943165e-05       1.642660687078e+02 
       3.862999240274e-05       1.768963504868e+02 
       4.171170631739e-05       1.904975992460e+02 
       4.503926445983e-05       2.051444490305e+02 
       4.863227909323e-05       2.209171463752e+02 
       5.251192705226e-05       2.379022222314e+02 
       5.670107455699e-05       2.561927925640e+02 
       6.122441198393e-05       2.758890441791e+02 
       6.610859938837e-05       2.970989225466e+02 
       7.138242363583e-05       3.199385558200e+02 
       7.707696806873e-05       3.445329780878e+02 
       8.322579570814e-05       3.710167315928e+02 
       8.986514707061e-05       3.995346440954e+02 
       9.703415376577e-05       4.302425403884e+02 
       1.047750691338e-04       4.633080762974e+02 
       1.131335172818e-04       4.989116267507e+02 
       1.221587619877e-04       5.372471946561e+02 
       1.319039970550e-04       5.785234124630e+02 
       1.424266598317e-04       6.229645930980e+02 
       1.537887697396e-04       6.708118484951e+02 
       1.660572938097e-04       7.223242660220e+02 
       1.793045413791e-04       7.777801553325e+02 
       1.936085902737e-04       8.374783607333e+02 
       2.090537469909e-04       9.017396264495e+02 
       2.257310435923e-04       9.709080260152e+02 
       2.437387742372e-04       1.045352448644e+03 
       2.631830745176e-04       1.125468122835e+03 
       2.841785470091e-04       1.211678179510e+03 
       3.068489367268e-04       1.304435249091e+03 
       3.313278604643e-04       1.404223052541e+03 
       3.577595943165e-04       1.511558013390e+03 
       3.862999240274e-04       1.626990836402e+03 
       4.171170631739e-04       1.751108027370e+03 
       4.503926445983e-04       1.884533381345e+03 
       4.863227909323e-04       2.027929376471e+03 
       5.251192705226e-04       2.181998446367e+03 
       5.670107455699e-04       2.347484100857e+03 
       6.122441198393e-04       2.525171869335e+03 
       6.610859938837e-04       2.715889981400e+03 
       7.138242363583e-04       2.920509686076e+03 
       7.707696806873e-04       3.139945097710e+03 
       8.322579570814e-04       3.375152334395e+03 
       8.986514707061e-04       3.627127828230e+03 
       9.703415376577e-04       3.896905450014e+03 
       1.047750691338e-03       4.185552170964e+03 
       1.131335172818e-03       4.494162426788e+03 
       1.221587619877e-03       4.823850702670e+03 
       1.319039970550e-03       5.175742730714e+03 
       1.424266598317e-03       5.551019592548e+03 
       1.537887697396e-03       5.950788335868e+03 
       1.660572938097e-03       6.376123046758e+03 
       1.793045413791e-03       6.828073896119e+03 
       1.936085902737e-03       7.307625375372e+03 
       2.090537469909e-03       7.815671859289e+03 
       2.257310435923e-03       8.352990369363e+03 
       2.437387742372e-03       8.920211057507e+03 
       2.631830745176e-03       9.517783061850e+03 
       2.841785470091e-03       1.014593703666e+04 
       3.068489367268e-03       1.080464505726e+04 
       3.313278604643e-03       1.149357459449e+04 
       3.577595943165e-03       1.221203620816e+04 
       3.862999240274e-03       1.295892538492e+04 
       4.171170631739e-03       1.373266002221e+04 
       4.503926445983e-03       1.453111834575e+04 
       4.863227909323e-03       1.535154983497e+04 
       5.251192705226e-03       1.619063609116e+04 
       5.670107455699e-03       1.704431256387e+04 
       6.122441198393e-03       1.790755940958e+04 
       6.610859938837e-03       1.877460415371e+04 
       7.138242363583e-03       1.963872437323e+04 
       7.707696806873e-03       2.049215712870e+04 
       8.322579570814e-03       2.132607264653e+04 
       8.986514707061e-03       2.213055076953e+04 
       9.703415376577e-03       2.289445502965e+04 
       1.047750691338e-02       2.360548708187e+04 
       1.131335172818e-02       2.425022874552e+04 
       1.221587619877e-02       2.481423932904e+04 
       1.319039970550e-02       2.528219070392e+04 
       1.424266598317e-02       2.563814071457e+04 
       1.537887697392e-02       2.586607585611e+04 
       1.660572938023e-02       2.595028890772e+04 
       1.793045412706e-02       2.587633761792e+04 
       1.936085890181e-02       2.563221586826e+04 
       2.090537352463e-02       2.520936353777e+04 
       2.257309535333e-02       2.460445498050e+04 
       2.437382002918e-02       2.382088852507e+04 
       2.631799944462e-02       2.287040153163e+04 
       2.841644545389e-02       2.177446866551e+04 
       3.067933355377e-02       2.056553618891e+04 
       3.311368470740e-02       1.928728451341e+04 
       3.571840443502e-02       1.799393913975e+04 
       3.847720348444e-02       1.674683241193e+04 
       4.135335538431e-02       1.560458725279e+04 
       4.429361667738e-02       1.461038150460e+04 
       4.724366439141e-02       1.378055456614e+04 
       5.016480835311e-02       1.310499931890e+04 
       5.303989620246e-02       1.255715393538e+04 
       5.586870669566e-02       1.210426016333e+04 
       5.866042680613e-02       1.171469761025e+04 
       6.142798932958e-02       1.136051615413e+04 
       6.418496440164e-02       1.101860697476e+04 
       6.694418833788e-02       1.067072094000e+04 
       6.971731106057e-02       1.030360021957e+04 
       7.251476155766e-02       9.909067238527e+03 
       7.534587671527e-02       9.483744362538e+03 
       7.821907666265e-02       9.029464587085e+03 
       8.114203772912e-02       8.552331223565e+03 
       8.412184535029e-02       8.061992213148e+03 
       8.716512279304e-02       7.570783917579e+03 
       9.027813695930e-02       7.092489995783e+03 
       9.346688431697e-02       6.640533835021e+03 
       9.673716028276e-02       6.226730292068e+03 
       1.000946150830e-01       5.859984196270e+03 
       1.035447986537e-01       5.545298117586e+03 
       1.070931966762e-01       5.283151825410e+03 
       1.107452594425e-01       5.069431225704e+03 
       1.145064249153e-01       4.895258429875e+03 
       1.183821370918e-01       4.747847537816e+03 
       1.223778605862e-01       4.611734289552e+03 
       1.264990921987e-01       4.470616427410e+03 
       1.307513701367e-01       4.310280231367e+03 
       1.351402814784e-01       4.121364582233e+03 
       1.396714684203e-01       3.902070054761e+03 
       1.443506338194e-01       3.658664950656e+03 
       1.491835465229e-01       3.404473616401e+03 
       1.541760469708e-01       3.156658390910e+03 
       1.593340535561e-01       2.931930282001e+03 
       1.646635702297e-01       2.742352489338e+03 
       1.701706958456e-01       2.592239759699e+03 
       1.758616357459e-01       2.477219914687e+03 
       1.817427160982e-01       2.385161997145e+03 
       1.878204015065e-01       2.300350916673e+03 
       1.941013164283e-01       2.205771875938e+03 
       2.005922709503e-01       2.090833915192e+03 
       2.073002914972e-01       1.956461386597e+03 
       2.142326570816e-01       1.814178278223e+03 
       2.213969417533e-01       1.679268119022e+03 
       2.288010639706e-01       1.563834586311e+03 
       2.364533437147e-01       1.472673360654e+03 
       2.443625682930e-01       1.401506813637e+03 
       2.525380679504e-01       1.338418160722e+03 
       2.609898026346e-01       1.270899261463e+03 
       2.697284615565e-01       1.193361040398e+03 
       2.787655775689e-01       1.109331571696e+03 
       2.881136588829e-01       1.028763395237e+03 
       2.977863412677e-01       9.604724821845e+02 
       3.077985646929e-01       9.050148258129e+02 
       3.181667794071e-01       8.561373327889e+02 
       3.289091877812e-01       8.061813923182e+02 
       3.400460299658e-01       7.523830697801e+02 
       3.515999236474e-01       6.989142489249e+02 
       3.635962711085e-01       6.510528645184e+02 
       3.760637506334e-01       6.101204063686e+02 
       3.890349143879e-01       5.721265998504e+02 
       4.025469216825e-01       5.337737329001e+02 
       4.166424456376e-01       4.956224488331e+02 
       4.313708035863e-01       4.604658720410e+02 
       4.467893782977e-01       4.287708743658e+02 
       4.629654199664e-01       3.987659296774e+02 
       4.799783501994e-01       3.692380362147e+02 
       4.979227319373e-01       3.412354920031e+02 
       5.169121270864e-01       3.154803392804e+02 
       5.370841404489e-01       2.908319987278e+02 
       5.586070464571e-01       2.671026412614e+02 
       5.816885094930e-01       2.448044626448e+02 
       6.065870144995e-01       2.235634260496e+02 
       6.336266468475e-01       2.032053453021e+02 
       6.632156059511e-01       1.838740512761e+02 
       6.958678639263e-01       1.653493614547e+02 
       7.322247985589e-01       1.476903114901e+02 
       7.730680195114e-01       1.308283286626e+02 
       8.193049553677e-01       1.148252928237e+02 
       8.718988016039e-01       9.975583366581e+01 
       9.317218031082e-01       8.577078965912e+01 
       9.993660908989e-01       7.304688088030e+01 
       1.075037110174e+00       6.172754464837e+01 
       1.158653485707e+00       5.186966988574e+01 
       1.250099157308e+00       4.343009869560e+01 
       1.349432401273e+00       3.627822972683e+01 
       1.456947457397e+00       3.025566872749e+01 
       1.573135111331e+00       2.520103770571e+01 
       1.698621895592e+00       2.096716314510e+01 
       1.834127512934e+00       1.742608685504e+01 
       1.980444934528e+00       1.446768715103e+01 
       2.138435191726e+00       1.199935828633e+01 
       2.309029199186e+00       9.941667308349e+00 
       2.493232377687e+00       8.228308467298e+00 
       2.692130395285e+00       6.802888191585e+00 
       2.906895534573e+00       5.618155879038e+00 
       3.138793597714e+00       4.634254630607e+00 
       3.389191366484e+00       3.817722167516e+00 
       3.659564657905e+00       3.140643549640e+00 
       3.951507022538e+00       2.579455276565e+00 
       4.266739136701e+00       2.114626076317e+00 
       4.607118943941e+00       1.729729242065e+00 
       4.974652605557e+00       1.411140915476e+00 
       5.371506324689e+00       1.147492023053e+00 
       5.800019113685e+00       9.293618937203e-01 
       6.262716579983e+00       7.489052704775e-01 
       6.762325811764e+00       5.996445472134e-01 
       7.301791451110e+00       4.762461504490e-01 
       7.884293049406e+00       3.743170284423e-01 
       8.513263807261e+00       2.902668160241e-01 
       9.192410809424e+00       2.211700637990e-01 
       9.925736873929e+00       1.646738189202e-01 
       1.071756414427e+01       1.188847802606e-01 
       1.157255956364e+01       8.229662608360e-02 
       1.249576238137e+01       5.370445703551e-02 
       1.349261385375e+01       3.213030674029e-02 
       1.456898931416e+01       1.674451845935e-02 
       1.573123280165e+01       6.787831244462e-03 
       1.698619445202e+01       1.489701651918e-03 
       1.834127087176e+01       1.894559504100e-06 
       1.980444873285e+01       1.349423679844e-03 
       2.138435184532e+01       4.425241802940e-03 
       2.309029198506e+01       8.042215682913e-03 
       2.493232377636e+01       1.105815060520e-02 
       2.692130395282e+01       1.256407448934e-02 
       2.906895534573e+01       1.209563117431e-02 
       3.138793597714e+01       9.789563315177e-03 
       3.389191366484e+01       6.387957636792e-03 
       3.659564657905e+01       3.010452447966e-03 
       3.951507022538e+01       7.140832182444e-04 
       4.266739136701e+01       5.574822131991e-07 
       4.607118943941e+01       5.504594730439e-04 
       4.974652605557e+01       1.428939741367e-03 
       5.371506324689e+01       1.726810222925e-03 
       5.800019113685e+01       1.211124539710e-03 
       6.262716579983e+01       4.132086369176e-04 
       6.762325811764e+01       1.031066846059e-05 
