# Matter power spectrum P(k) at redshift z=0
# for k=1.04775e-05 to 67.6233 h/Mpc,
# number of wavenumbers equal to 246
#    1:k (h/Mpc)              2:P (Mpc/h)^3        
       1.047750691338e-05       5.020964806755e+01 
       1.131335172818e-05       5.407048206554e+01 
       1.221587619877e-05       5.822819063774e+01 
       1.319039970550e-05       6.270562589676e+01 
       1.424266598317e-05       6.752731788102e+01 
       1.537887697396e-05       7.271977200258e+01 
       1.660572938097e-05       7.831147241542e+01 
       1.793045413791e-05       8.433311815128e+01 
       1.936085902737e-05       9.081778242446e+01 
       2.090537469909e-05       9.780108061339e+01 
       2.257310435923e-05       1.053213197032e+02 
       2.437387742372e-05       1.134197377001e+02 
       2.631830745176e-05       1.221408202815e+02 
       2.841785470091e-05       1.315324720916e+02 
       3.068489367268e-05       1.416462093730e+02 
       3.313278604643e-05       1.525374500691e+02 
       3.577595943165e-05       1.642660687078e+02 
       3.862999240274e-05       1.768963504868e+02 
       4.171170631739e-05       1.904975992460e+02 
       4.503926445983e-05       2.051444490305e+02 
       4.863227909323e-05       2.209171463752e+02 
       5.251192705226e-05       2.379022222314e+02 
       5.670107455699e-05       2.561927925458e+02 
       6.122441198393e-05       2.758890441791e+02 
       6.610859938837e-05       2.970989225466e+02 
       7.138242363583e-05       3.199385558200e+02 
       7.707696806873e-05       3.445329780878e+02 
       8.322579570814e-05       3.710167315928e+02 
       8.986514707061e-05       3.995346440954e+02 
       9.703415376577e-05       4.302425403884e+02 
       1.047750691338e-04       4.633080762974e+02 
       1.131335172818e-04       4.989116267507e+02 
       1.221587619877e-04       5.372471946561e+02 
       1.319039970550e-04       5.785234124625e+02 
       1.424266598317e-04       6.229645930980e+02 
       1.537887697396e-04       6.708118484951e+02 
       1.660572938097e-04       7.223242660220e+02 
       1.793045413791e-04       7.777801554369e+02 
       1.936085902737e-04       8.374783607333e+02 
       2.090537469909e-04       9.017396264495e+02 
       2.257310435923e-04       9.709080260152e+02 
       2.437387742372e-04       1.045352448644e+03 
       2.631830745176e-04       1.125468122836e+03 
       2.841785470091e-04       1.211678179511e+03 
       3.068489367268e-04       1.304435249091e+03 
       3.313278604643e-04       1.404223052541e+03 
       3.577595943165e-04       1.511558013390e+03 
       3.862999240274e-04       1.626990836386e+03 
       4.171170631739e-04       1.751108027370e+03 
       4.503926445983e-04       1.884533381345e+03 
       4.863227909323e-04       2.027929376471e+03 
       5.251192705226e-04       2.181998446367e+03 
       5.670107455699e-04       2.347484100857e+03 
       6.122441198393e-04       2.525171869337e+03 
       6.610859938837e-04       2.715889981400e+03 
       7.138242363583e-04       2.920509686089e+03 
       7.707696806873e-04       3.139945097711e+03 
       8.322579570814e-04       3.375152334396e+03 
       8.986514707061e-04       3.627127828231e+03 
       9.703415376577e-04       3.896905450016e+03 
       1.047750691338e-03       4.185552170955e+03 
       1.131335172818e-03       4.494162426791e+03 
       1.221587619877e-03       4.823850702670e+03 
       1.319039970550e-03       5.175742735075e+03 
       1.424266598317e-03       5.551019592513e+03 
       1.537887697396e-03       5.950788335873e+03 
       1.660572938097e-03       6.376123046806e+03 
       1.793045413791e-03       6.828073896118e+03 
       1.936085902737e-03       7.307625375386e+03 
       2.090537469909e-03       7.815671865146e+03 
       2.257310435923e-03       8.352990369402e+03 
       2.437387742372e-03       8.920211057554e+03 
       2.631830745176e-03       9.517783061890e+03 
       2.841785470091e-03       1.014593703671e+04 
       3.068489367268e-03       1.080464505740e+04 
       3.313278604643e-03       1.149357459544e+04 
       3.577595943165e-03       1.221203620826e+04 
       3.862999240274e-03       1.295892538505e+04 
       4.171170631739e-03       1.373266002202e+04 
       4.503926445983e-03       1.453111834595e+04 
       4.863227909323e-03       1.535154984227e+04 
       5.251192705226e-03       1.619063613436e+04 
       5.670107455699e-03       1.704431256576e+04 
       6.122441198393e-03       1.790755938448e+04 
       6.610859938837e-03       1.877460437748e+04 
       7.138242363583e-03       1.963872429097e+04 
       7.707696806873e-03       2.049215712383e+04 
       8.322579570814e-03       2.132606937974e+04 
       8.986514707061e-03       2.213055225405e+04 
       9.703415376577e-03       2.289445470786e+04 
       1.047750691338e-02       2.360548517907e+04 
       1.131335172818e-02       2.425022997143e+04 
       1.221587619877e-02       2.481423921382e+04 
       1.319039970550e-02       2.528218731655e+04 
       1.424266598317e-02       2.563814239245e+04 
       1.537887697392e-02       2.586605889750e+04 
       1.660572938023e-02       2.595027047195e+04 
       1.793045412706e-02       2.587635760683e+04 
       1.936085890181e-02       2.563220119040e+04 
       2.090537352463e-02       2.520936507684e+04 
       2.257309535333e-02       2.460448112283e+04 
       2.437382002918e-02       2.382089810921e+04 
       2.631799944462e-02       2.287043216850e+04 
       2.841644545389e-02       2.177452011853e+04 
       3.067933355377e-02       2.056549686871e+04 
       3.311368470740e-02       1.928730167461e+04 
       3.571840443502e-02       1.799405064814e+04 
       3.847720348444e-02       1.674687422881e+04 
       4.135335538431e-02       1.560460957167e+04 
       4.429361667738e-02       1.461037830445e+04 
       4.724366439141e-02       1.378049100479e+04 
       5.016480835311e-02       1.310506586166e+04 
       5.303989620246e-02       1.255717716103e+04 
       5.586870669566e-02       1.210425324729e+04 
       5.866042680613e-02       1.171463138407e+04 
       6.142798932958e-02       1.136048844496e+04 
       6.418496440164e-02       1.101856594270e+04 
       6.694418833788e-02       1.067070484573e+04 
       6.971731106057e-02       1.030355859832e+04 
       7.251476155766e-02       9.909011967004e+03 
       7.534587671527e-02       9.483775842923e+03 
       7.821907666265e-02       9.029502354222e+03 
       8.114203772912e-02       8.552325254313e+03 
       8.412184535029e-02       8.061979946122e+03 
       8.716512279304e-02       7.570778864499e+03 
       9.027813695930e-02       7.092511561285e+03 
       9.346688431697e-02       6.640528361842e+03 
       9.673716028276e-02       6.226723467738e+03 
       1.000946150830e-01       5.859930117360e+03 
       1.035447986537e-01       5.545241144397e+03 
       1.070931966762e-01       5.283154377915e+03 
       1.107452594425e-01       5.069418917580e+03 
       1.145064249153e-01       4.895242596428e+03 
       1.183821370918e-01       4.747845567598e+03 
       1.223778605862e-01       4.611740658658e+03 
       1.264990921987e-01       4.470628302335e+03 
       1.307513701367e-01       4.310270085139e+03 
       1.351402814784e-01       4.121395133113e+03 
       1.396714684203e-01       3.902067114735e+03 
       1.443506338194e-01       3.658639038091e+03 
       1.491835465229e-01       3.404482461496e+03 
       1.541760469708e-01       3.156668460924e+03 
       1.593340535561e-01       2.931984093946e+03 
       1.646635702297e-01       2.742366790928e+03 
       1.701706958456e-01       2.592263647342e+03 
       1.758616357459e-01       2.477236449891e+03 
       1.817427160982e-01       2.385181231706e+03 
       1.878204015065e-01       2.300354367498e+03 
       1.941013164283e-01       2.205761853346e+03 
       2.005922709503e-01       2.090813434402e+03 
       2.073002914972e-01       1.956469501433e+03 
       2.142326570816e-01       1.814193365987e+03 
       2.213969417533e-01       1.679294728722e+03 
       2.288010639706e-01       1.563847361269e+03 
       2.364533437147e-01       1.472686549290e+03 
       2.443625682930e-01       1.401512866259e+03 
       2.525380679504e-01       1.338417399566e+03 
       2.609898026346e-01       1.270906431042e+03 
       2.697284615565e-01       1.193385037884e+03 
       2.787655775689e-01       1.109338837177e+03 
       2.881136588829e-01       1.028772391535e+03 
       2.977863412677e-01       9.604827043416e+02 
       3.077985646929e-01       9.050249461344e+02 
       3.181667794071e-01       8.561439577995e+02 
       3.289091877812e-01       8.061879010421e+02 
       3.400460299658e-01       7.523904857912e+02 
       3.515999236474e-01       6.989264707784e+02 
       3.635962711085e-01       6.510644593861e+02 
       3.760637506334e-01       6.101228154319e+02 
       3.890349143879e-01       5.721320110880e+02 
       4.025469216825e-01       5.337824592578e+02 
       4.166424456376e-01       4.956318943423e+02 
       4.313708035863e-01       4.604691792466e+02 
       4.467893782977e-01       4.287785404466e+02 
       4.629654199664e-01       3.987725585218e+02 
       4.799783501994e-01       3.692419860545e+02 
       4.979227319373e-01       3.412408493703e+02 
       5.169121270864e-01       3.154857094201e+02 
       5.370841404489e-01       2.908353479856e+02 
       5.586070464571e-01       2.671061241189e+02 
       5.816885094930e-01       2.448101302510e+02 
       6.065870144995e-01       2.235681754809e+02 
       6.336266468475e-01       2.032111629018e+02 
       6.632156059511e-01       1.838792923708e+02 
       6.958678639263e-01       1.653546462233e+02 
       7.322247985589e-01       1.476959345188e+02 
       7.730680195114e-01       1.308342321331e+02 
       8.193049553677e-01       1.148316495502e+02 
       8.718988016039e-01       9.976267696887e+01 
       9.317218031082e-01       8.577837347140e+01 
       9.993660908989e-01       7.305519654061e+01 
       1.075037110174e+00       6.173637509337e+01 
       1.158653485707e+00       5.187944372956e+01 
       1.250099157308e+00       4.344041211202e+01 
       1.349432401273e+00       3.628937583503e+01 
       1.456947457397e+00       3.026812505450e+01 
       1.573135111331e+00       2.521456414611e+01 
       1.698621895592e+00       2.098204985165e+01 
       1.834127512934e+00       1.744238611864e+01 
       1.980444934528e+00       1.448569630428e+01 
       2.138435191726e+00       1.201897302118e+01 
       2.309029199186e+00       9.963164883517e+00 
       2.493232377687e+00       8.251824681003e+00 
       2.692130395285e+00       6.828653605408e+00 
       2.906895534573e+00       5.646275562974e+00 
       3.138793597714e+00       4.664892553159e+00 
       3.389191366484e+00       3.851131751836e+00 
       3.659564657905e+00       3.176945879383e+00 
       3.951507022538e+00       2.618876557982e+00 
       4.266739136701e+00       2.157353692127e+00 
       4.607118943941e+00       1.775930136735e+00 
       4.974652605557e+00       1.460993290573e+00 
       5.371506324689e+00       1.201126633306e+00 
       5.800019113685e+00       9.868744322357e-01 
       6.262716579983e+00       8.103497156790e-01 
       6.762325811764e+00       6.650097692520e-01 
       7.301791451110e+00       5.454249275595e-01 
       7.884293049406e+00       4.471013757037e-01 
       8.513263807261e+00       3.662981748193e-01 
       9.192410809424e+00       2.999435080732e-01 
       9.925736873929e+00       2.454809356209e-01 
       1.071756414427e+01       2.008069140055e-01 
       1.157255956364e+01       1.641846297959e-01 
       1.249576238137e+01       1.341767441987e-01 
       1.349261385375e+01       1.096027382226e-01 
       1.456898931416e+01       8.948955070981e-02 
       1.573123280165e+01       7.303344841670e-02 
       1.698619445202e+01       5.957851227806e-02 
       1.834127087176e+01       4.858111213725e-02 
       1.980444873285e+01       3.959708527252e-02 
       2.138435184532e+01       3.226127503079e-02 
       2.309029198506e+01       2.627363879591e-02 
       2.493232377636e+01       2.138837960344e-02 
       2.692130395282e+01       1.740486794178e-02 
       2.906895534573e+01       1.415731307913e-02 
       3.138793597714e+01       1.151135780174e-02 
       3.389191366484e+01       9.356050018908e-03 
       3.659564657905e+01       7.601254040812e-03 
       3.951507022538e+01       6.172997211171e-03 
       4.266739136701e+01       5.011138744526e-03 
       4.607118943941e+01       4.066175931226e-03 
       4.974652605557e+01       3.297970573120e-03 
       5.371506324689e+01       2.673713753560e-03 
       5.800019113685e+01       2.166572521151e-03 
       6.262716579983e+01       1.754728930742e-03 
       6.762325811764e+01       1.420448829631e-03 
