# Matter power spectrum P(k) at redshift z=99
# for k=1.04775e-05 to 67.6233 h/Mpc,
# number of wavenumbers equal to 246
#    1:k (h/Mpc)              2:P (Mpc/h)^3        
       1.047750691338e-05       7.261927673119e-03 
       1.131335172818e-05       7.820331745737e-03 
       1.221587619877e-05       8.421675986488e-03 
       1.319039970550e-05       9.069258192194e-03 
       1.424266598317e-05       9.766638404421e-03 
       1.537887697396e-05       1.051764069682e-02 
       1.660572938097e-05       1.132639105520e-02 
       1.793045413791e-05       1.219733231416e-02 
       1.936085902737e-05       1.313524224380e-02 
       2.090537469909e-05       1.414527121893e-02 
       2.257310435923e-05       1.523296272192e-02 
       2.437387742372e-05       1.640429444530e-02 
       2.631830745176e-05       1.766569582178e-02 
       2.841785470091e-05       1.902408601793e-02 
       3.068489367268e-05       2.048692970591e-02 
       3.313278604643e-05       2.206225513594e-02 
       3.577595943165e-05       2.375870704909e-02 
       3.862999240274e-05       2.558560727479e-02 
       4.171170631739e-05       2.755297763344e-02 
       4.503926445983e-05       2.967161927315e-02 
       4.863227909323e-05       3.195316450832e-02 
       5.251192705226e-05       3.441013519284e-02 
       5.670107455699e-05       3.705601722527e-02 
       6.122441198393e-05       3.990533413560e-02 
       6.610859938837e-05       4.297372168203e-02 
       7.138242363583e-05       4.627802141688e-02 
       7.707696806873e-05       4.983636194159e-02 
       8.322579570814e-05       5.366826847231e-02 
       8.986514707061e-05       5.779476394569e-02 
       9.703415376577e-05       6.223848243885e-02 
       1.047750691338e-04       6.702379865640e-02 
       1.131335172818e-04       7.217695153381e-02 
       1.221587619877e-04       7.772619073573e-02 
       1.319039970550e-04       8.370193432376e-02 
       1.424266598317e-04       9.013692507549e-02 
       1.537887697396e-04       9.706641242570e-02 
       1.660572938097e-04       1.045283354271e-01 
       1.793045413791e-04       1.125635349068e-01 
       1.936085902737e-04       1.212159614968e-01 
       2.090537469909e-04       1.305329132714e-01 
       2.257310435923e-04       1.405652846215e-01 
       2.437387742372e-04       1.513678302540e-01 
       2.631830745176e-04       1.629994504870e-01 
       2.841785470091e-04       1.755234921224e-01 
       3.068489367268e-04       1.890080670413e-01 
       3.313278604643e-04       2.035264002435e-01 
       3.577595943165e-04       2.191571803681e-01 
       3.862999240274e-04       2.359849437592e-01 
       4.171170631739e-04       2.541004741539e-01 
       4.503926445983e-04       2.736012080278e-01 
       4.863227909323e-04       2.945916790965e-01 
       5.251192705226e-04       3.171839525183e-01 
       5.670107455699e-04       3.414980764002e-01 
       6.122441198393e-04       3.676625413100e-01 
       6.610859938837e-04       3.958147252304e-01 
       7.138242363583e-04       4.261013284917e-01 
       7.707696806873e-04       4.586787792353e-01 
       8.322579570814e-04       4.937136001345e-01 
       8.986514707061e-04       5.313826801401e-01 
       9.703415376577e-04       5.718734972158e-01 
       1.047750691338e-03       6.153841629505e-01 
       1.131335172818e-03       6.621233239465e-01 
       1.221587619877e-03       7.123098220427e-01 
       1.319039970550e-03       7.661720584712e-01 
       1.424266598317e-03       8.239546297725e-01 
       1.537887697396e-03       8.859011173466e-01 
       1.660572938097e-03       9.522588006417e-01 
       1.793045413791e-03       1.023280099819e+00 
       1.936085902737e-03       1.099216304579e+00 
       2.090537469909e-03       1.180312990454e+00 
       2.257310435923e-03       1.266804115851e+00 
       2.437387742372e-03       1.358904853405e+00 
       2.631830745176e-03       1.456802683156e+00 
       2.841785470091e-03       1.560646890522e+00 
       3.068489367268e-03       1.670536062499e+00 
       3.313278604643e-03       1.786503852156e+00 
       3.577595943165e-03       1.908502930787e+00 
       3.862999240274e-03       2.036387730709e+00 
       4.171170631739e-03       2.169896178818e+00 
       4.503926445983e-03       2.308631878994e+00 
       4.863227909323e-03       2.452047290962e+00 
       5.251192705226e-03       2.599430628087e+00 
       5.670107455699e-03       2.749896931884e+00 
       6.122441198393e-03       2.902386513383e+00 
       6.610859938837e-03       3.055668704072e+00 
       7.138242363583e-03       3.208356461544e+00 
       7.707696806873e-03       3.358923892004e+00 
       8.322579570814e-03       3.505725595070e+00 
       8.986514707061e-03       3.647009714822e+00 
       9.703415376577e-03       3.780923304253e+00 
       1.047750691338e-02       3.905489706767e+00 
       1.131335172818e-02       4.018588268848e+00 
       1.221587619877e-02       4.117901587515e+00 
       1.319039970550e-02       4.200915385366e+00 
       1.424266598317e-02       4.264940007369e+00 
       1.537887697392e-02       4.307218786392e+00 
       1.660572938023e-02       4.325061003221e+00 
       1.793045412706e-02       4.316058477939e+00 
       1.936085890181e-02       4.278226759478e+00 
       2.090537352463e-02       4.210201590485e+00 
       2.257309535333e-02       4.111412283584e+00 
       2.437382002918e-02       3.982423665764e+00 
       2.631799944462e-02       3.825168745361e+00 
       2.841644545389e-02       3.643280885894e+00 
       3.067933355377e-02       3.442194954261e+00 
       3.311368470740e-02       3.229240927662e+00 
       3.571840443502e-02       3.013511876184e+00 
       3.847720348444e-02       2.805284927298e+00 
       4.135335538431e-02       2.614410093129e+00 
       4.429361667738e-02       2.448137594862e+00 
       4.724366439141e-02       2.309234523685e+00 
       5.016480835311e-02       2.196112299599e+00 
       5.303989620246e-02       2.104362698030e+00 
       5.586870669566e-02       2.028467270886e+00 
       5.866042680613e-02       1.963154787145e+00 
       6.142798932958e-02       1.903780613876e+00 
       6.418496440164e-02       1.846476318844e+00 
       6.694418833788e-02       1.788200106430e+00 
       6.971731106057e-02       1.726716332803e+00 
       7.251476155766e-02       1.660653716119e+00 
       7.534587671527e-02       1.589471774940e+00 
       7.821907666265e-02       1.513438044505e+00 
       8.114203772912e-02       1.433568058724e+00 
       8.412184535029e-02       1.351493088978e+00 
       8.716512279304e-02       1.269273388126e+00 
       9.027813695930e-02       1.189193849748e+00 
       9.346688431697e-02       1.113500438146e+00 
       9.673716028276e-02       1.044174581886e+00 
       1.000946150830e-01       9.827041184020e-01 
       1.035447986537e-01       9.299396118316e-01 
       1.070931966762e-01       8.859609643410e-01 
       1.107452594425e-01       8.500703451674e-01 
       1.145064249153e-01       8.208040060853e-01 
       1.183821370918e-01       7.960252263350e-01 
       1.223778605862e-01       7.731448201019e-01 
       1.264990921987e-01       7.494520649990e-01 
       1.307513701367e-01       7.225572931282e-01 
       1.351402814784e-01       6.909089456830e-01 
       1.396714684203e-01       6.541805680043e-01 
       1.443506338194e-01       6.134264400578e-01 
       1.491835465229e-01       5.708676117547e-01 
       1.541760469708e-01       5.293642075146e-01 
       1.593340535561e-01       4.917110703564e-01 
       1.646635702297e-01       4.599198822707e-01 
       1.701706958456e-01       4.347286274142e-01 
       1.758616357459e-01       4.154075440380e-01 
       1.817427160982e-01       3.999379467697e-01 
       1.878204015065e-01       3.856830816845e-01 
       1.941013164283e-01       3.698092744155e-01 
       2.005922709503e-01       3.505465568089e-01 
       2.073002914972e-01       3.280431254391e-01 
       2.142326570816e-01       3.042139520507e-01 
       2.213969417533e-01       2.816114656430e-01 
       2.288010639706e-01       2.622573397998e-01 
       2.364533437147e-01       2.469619591078e-01 
       2.443625682930e-01       2.350127654849e-01 
       2.525380679504e-01       2.244175755001e-01 
       2.609898026346e-01       2.130940027037e-01 
       2.697284615565e-01       2.001017346932e-01 
       2.787655775689e-01       1.860200614769e-01 
       2.881136588829e-01       1.725165762212e-01 
       2.977863412677e-01       1.610658344441e-01 
       3.077985646929e-01       1.517609329329e-01 
       3.181667794071e-01       1.435594250595e-01 
       3.289091877812e-01       1.351813390949e-01 
       3.400460299658e-01       1.261640380862e-01 
       3.515999236474e-01       1.172018313017e-01 
       3.635962711085e-01       1.091768948645e-01 
       3.760637506334e-01       1.023094519660e-01 
       3.890349143879e-01       9.593744632910e-02 
       4.025469216825e-01       8.950717997789e-02 
       4.166424456376e-01       8.311147123059e-02 
       4.313708035863e-01       7.721548582923e-02 
       4.467893782977e-01       7.190039717761e-02 
       4.629654199664e-01       6.686873198389e-02 
       4.799783501994e-01       6.191709730069e-02 
       4.979227319373e-01       5.722196226821e-02 
       5.169121270864e-01       5.290244727736e-02 
       5.370841404489e-01       4.876948549823e-02 
       5.586070464571e-01       4.479051418428e-02 
       5.816885094930e-01       4.105158425551e-02 
       6.065870144995e-01       3.748966549136e-02 
       6.336266468475e-01       3.407594887660e-02 
       6.632156059511e-01       3.083423587079e-02 
       6.958678639263e-01       2.772791852321e-02 
       7.322247985589e-01       2.476656387875e-02 
       7.730680195114e-01       2.193914444629e-02 
       8.193049553677e-01       1.925557852219e-02 
       8.718988016039e-01       1.672867539561e-02 
       9.317218031082e-01       1.438360808200e-02 
       9.993660908989e-01       1.225000647283e-02 
       1.075037110174e+00       1.035187359056e-02 
       1.158653485707e+00       8.698920862710e-03 
       1.250099157308e+00       7.283736801582e-03 
       1.349432401273e+00       6.084481287433e-03 
       1.456947457397e+00       5.074672899210e-03 
       1.573135111331e+00       4.227199142893e-03 
       1.698621895592e+00       3.517324098789e-03 
       1.834127512934e+00       2.923656285515e-03 
       1.980444934528e+00       2.427727184244e-03 
       2.138435191726e+00       2.013965581990e-03 
       2.309029199186e+00       1.669099731879e-03 
       2.493232377687e+00       1.381998462553e-03 
       2.692130395285e+00       1.143196271481e-03 
       2.906895534573e+00       9.447832338052e-04 
       3.138793597714e+00       7.800630907774e-04 
       3.389191366484e+00       6.434363205369e-04 
       3.659564657905e+00       5.302211951744e-04 
       3.951507022538e+00       4.364648475864e-04 
       4.266739136701e+00       3.588863352354e-04 
       4.607118943941e+00       2.947408978052e-04 
       4.974652605557e+00       2.417355616764e-04 
       5.371506324689e+00       1.979600417529e-04 
       5.800019113685e+00       1.618296751024e-04 
       6.262716579983e+00       1.320245620174e-04 
       6.762325811764e+00       1.074475956095e-04 
       7.301791451110e+00       8.719201488421e-05 
       7.884293049406e+00       7.050603054601e-05 
       8.513263807261e+00       5.676702119040e-05 
       9.192410809424e+00       4.546197979519e-05 
       9.925736873929e+00       3.616824939014e-05 
       1.071756414427e+01       2.853801113221e-05 
       1.157255956364e+01       2.228598439681e-05 
       1.249576238137e+01       1.717833087580e-05 
       1.349261385375e+01       1.302429825456e-05 
       1.456898931416e+01       9.667965286712e-06 
       1.573123280165e+01       6.982651044676e-06 
       1.698619445202e+01       4.864396531313e-06 
       1.834127087176e+01       3.227646099361e-06 
       1.980444873285e+01       2.000555552959e-06 
       2.138435184532e+01       1.121094855719e-06 
       2.309029198506e+01       5.334679906302e-07 
       2.493232377636e+01       1.854978656981e-07 
       2.692130395282e+01       2.628035606218e-08 
       2.906895534573e+01       5.230034291757e-09 
       3.138793597714e+01       7.238802196632e-08 
       3.389191366484e+01       1.801574632173e-07 
       3.659564657905e+01       2.865162838811e-07 
       3.951507022538e+01       3.590894220506e-07 
       4.266739136701e+01       3.791831580388e-07 
       4.607118943941e+01       3.441544750331e-07 
       4.974652605557e+01       2.668907102681e-07 
       5.371506324689e+01       1.712276067526e-07 
       5.800019113685e+01       8.386373570262e-08 
       6.262716579983e+01       2.497945807543e-08 
       6.762325811764e+01       1.191577503935e-09 
