# Matter power spectrum P(k) at redshift z=99
# for k=1.04775e-05 to 134.926 h/Mpc,
# number of wavenumbers equal to 255
#    1:k (h/Mpc)              2:P (Mpc/h)^3        
       1.047750691338e-05       7.261927095227e-03 
       1.131335172818e-05       7.820332150693e-03 
       1.221587619877e-05       8.421675382263e-03 
       1.319039970550e-05       9.069257737931e-03 
       1.424266598317e-05       9.766636451048e-03 
       1.537887697396e-05       1.051763973633e-02 
       1.660572938097e-05       1.132639250743e-02 
       1.793045413791e-05       1.219733201499e-02 
       1.936085902737e-05       1.313524187193e-02 
       2.090537469909e-05       1.414527084967e-02 
       2.257310435923e-05       1.523296544481e-02 
       2.437387742372e-05       1.640429654629e-02 
       2.631830745176e-05       1.766569603274e-02 
       2.841785470091e-05       1.902408711150e-02 
       3.068489367268e-05       2.048692967431e-02 
       3.313278604643e-05       2.206225467534e-02 
       3.577595943165e-05       2.375870883837e-02 
       3.862999240274e-05       2.558560669806e-02 
       4.171170631739e-05       2.755297672491e-02 
       4.503926445983e-05       2.967161933395e-02 
       4.863227909323e-05       3.195316455637e-02 
       5.251192705226e-05       3.441013466114e-02 
       5.670107455699e-05       3.705601741680e-02 
       6.122441198393e-05       3.990533412812e-02 
       6.610859938837e-05       4.297372242505e-02 
       7.138242363583e-05       4.627802054822e-02 
       7.707696806873e-05       4.983636159857e-02 
       8.322579570814e-05       5.366826786901e-02 
       8.986514707061e-05       5.779476319698e-02 
       9.703415376577e-05       6.223848221798e-02 
       1.047750691338e-04       6.702379824981e-02 
       1.131335172818e-04       7.217695031037e-02 
       1.221587619877e-04       7.772619030316e-02 
       1.319039970550e-04       8.370193379992e-02 
       1.424266598317e-04       9.013692506616e-02 
       1.537887697396e-04       9.706641130344e-02 
       1.660572938097e-04       1.045283343105e-01 
       1.793045413791e-04       1.125635329179e-01 
       1.936085902737e-04       1.212159592303e-01 
       2.090537469909e-04       1.305329107429e-01 
       2.257310435923e-04       1.405652819354e-01 
       2.437387742372e-04       1.513678275069e-01 
       2.631830745176e-04       1.629994475126e-01 
       2.841785470091e-04       1.755234890471e-01 
       3.068489367268e-04       1.890080645292e-01 
       3.313278604643e-04       2.035263977424e-01 
       3.577595943165e-04       2.191571778037e-01 
       3.862999240274e-04       2.359849423253e-01 
       4.171170631739e-04       2.541004712994e-01 
       4.503926445983e-04       2.736012061151e-01 
       4.863227909323e-04       2.945916774635e-01 
       5.251192705226e-04       3.171839507855e-01 
       5.670107455699e-04       3.414980769100e-01 
       6.122441198393e-04       3.676625416292e-01 
       6.610859938837e-04       3.958147272856e-01 
       7.138242363583e-04       4.261013332056e-01 
       7.707696806873e-04       4.586787880841e-01 
       8.322579570814e-04       4.937136112813e-01 
       8.986514707061e-04       5.313826962069e-01 
       9.703415376577e-04       5.718735176797e-01 
       1.047750691338e-03       6.153841926244e-01 
       1.131335172818e-03       6.621233623118e-01 
       1.221587619877e-03       7.123098743650e-01 
       1.319039970550e-03       7.661721263785e-01 
       1.424266598317e-03       8.239547181302e-01 
       1.537887697396e-03       8.859012282819e-01 
       1.660572938097e-03       9.522589495756e-01 
       1.793045413791e-03       1.023280284737e+00 
       1.936085902737e-03       1.099216542129e+00 
       2.090537469909e-03       1.180313285062e+00 
       2.257310435923e-03       1.266804486837e+00 
       2.437387742372e-03       1.358905328496e+00 
       2.631830745176e-03       1.456803285987e+00 
       2.841785470091e-03       1.560647663080e+00 
       3.068489367268e-03       1.670537010626e+00 
       3.313278604643e-03       1.786505039695e+00 
       3.577595943165e-03       1.908504410183e+00 
       3.862999240274e-03       2.036389468833e+00 
       4.171170631739e-03       2.169898252888e+00 
       4.503926445983e-03       2.308634492067e+00 
       4.863227909323e-03       2.452050674887e+00 
       5.251192705226e-03       2.599434681261e+00 
       5.670107455699e-03       2.749901126612e+00 
       6.122441198393e-03       2.902390058500e+00 
       6.610859938837e-03       3.055671270034e+00 
       7.138242363583e-03       3.208360123098e+00 
       7.707696806873e-03       3.358926651678e+00 
       8.322579570814e-03       3.505726890277e+00 
       8.986514707061e-03       3.647012438401e+00 
       9.703415376577e-03       3.780926180094e+00 
       1.047750691338e-02       3.905492881713e+00 
       1.131335172818e-02       4.018589827443e+00 
       1.221587619877e-02       4.117902890684e+00 
       1.319039970550e-02       4.200917702924e+00 
       1.424266598317e-02       4.264943742362e+00 
       1.537887697392e-02       4.307219674207e+00 
       1.660572938023e-02       4.325062463785e+00 
       1.793045412706e-02       4.316060399753e+00 
       1.936085890181e-02       4.278228941598e+00 
       2.090537352463e-02       4.210204484524e+00 
       2.257309535333e-02       4.111418761537e+00 
       2.437382002918e-02       3.982420951360e+00 
       2.631799944462e-02       3.825168701555e+00 
       2.841644545389e-02       3.643282263544e+00 
       3.067933355377e-02       3.442198724287e+00 
       3.311368470740e-02       3.229241619754e+00 
       3.571840443502e-02       3.013516358321e+00 
       3.847720348444e-02       2.805283972555e+00 
       4.135335538431e-02       2.614410702626e+00 
       4.429361667738e-02       2.448132228428e+00 
       4.724366439141e-02       2.309240702528e+00 
       5.016480835311e-02       2.196115261056e+00 
       5.303989620246e-02       2.104369938934e+00 
       5.586870669566e-02       2.028462688428e+00 
       5.866042680613e-02       1.963155423709e+00 
       6.142798932958e-02       1.903779839742e+00 
       6.418496440164e-02       1.846479358746e+00 
       6.694418833788e-02       1.788197644506e+00 
       6.971731106057e-02       1.726715863669e+00 
       7.251476155766e-02       1.660654589311e+00 
       7.534587671527e-02       1.589470067334e+00 
       7.821907666265e-02       1.513436803940e+00 
       8.114203772912e-02       1.433569007544e+00 
       8.412184535029e-02       1.351492519569e+00 
       8.716512279304e-02       1.269274009586e+00 
       9.027813695930e-02       1.189193460172e+00 
       9.346688431697e-02       1.113501412903e+00 
       9.673716028276e-02       1.044174766423e+00 
       1.000946150830e-01       9.827063087291e-01 
       1.035447986537e-01       9.299373696305e-01 
       1.070931966762e-01       8.859588359662e-01 
       1.107452594425e-01       8.500714205660e-01 
       1.145064249153e-01       8.208036681966e-01 
       1.183821370918e-01       7.960245852947e-01 
       1.223778605862e-01       7.731459998602e-01 
       1.264990921987e-01       7.494524099041e-01 
       1.307513701367e-01       7.225579106747e-01 
       1.351402814784e-01       6.909099703275e-01 
       1.396714684203e-01       6.541827923557e-01 
       1.443506338194e-01       6.134282684866e-01 
       1.491835465229e-01       5.708689549950e-01 
       1.541760469708e-01       5.293642619183e-01 
       1.593340535561e-01       4.917108105530e-01 
       1.646635702297e-01       4.599199138700e-01 
       1.701706958456e-01       4.347278570304e-01 
       1.758616357459e-01       4.154077522063e-01 
       1.817427160982e-01       3.999361611537e-01 
       1.878204015065e-01       3.856857337108e-01 
       1.941013164283e-01       3.698141135660e-01 
       2.005922709503e-01       3.505514440785e-01 
       2.073002914972e-01       3.280463863257e-01 
       2.142326570816e-01       3.042133232839e-01 
       2.213969417533e-01       2.816114857722e-01 
       2.288010639706e-01       2.622567068005e-01 
       2.364533437147e-01       2.469616817655e-01 
       2.443625682930e-01       2.350128068509e-01 
       2.525380679504e-01       2.244202301299e-01 
       2.609898026346e-01       2.130959517460e-01 
       2.697284615565e-01       2.001024629687e-01 
       2.787655775689e-01       1.860196911253e-01 
       2.881136588829e-01       1.725169038167e-01 
       2.977863412677e-01       1.610658057630e-01 
       3.077985646929e-01       1.517603691539e-01 
       3.181667794071e-01       1.435592051911e-01 
       3.289091877812e-01       1.351815894833e-01 
       3.400460299658e-01       1.261641009148e-01 
       3.515999236474e-01       1.172016768928e-01 
       3.635962711085e-01       1.091765037700e-01 
       3.760637506334e-01       1.023091976259e-01 
       3.890349143879e-01       9.593740590952e-02 
       4.025469216825e-01       8.950744631903e-02 
       4.166424456376e-01       8.311152809477e-02 
       4.313708035863e-01       7.721520102652e-02 
       4.467893782977e-01       7.190037193312e-02 
       4.629654199664e-01       6.686878732526e-02 
       4.799783501994e-01       6.191728561751e-02 
       4.979227319373e-01       5.722197195359e-02 
       5.169121270864e-01       5.290263662556e-02 
       5.370841404489e-01       4.876954369918e-02 
       5.586070464571e-01       4.479049088198e-02 
       5.816885094930e-01       4.105167184844e-02 
       6.065870144995e-01       3.748969223545e-02 
       6.336266468475e-01       3.407599117869e-02 
       6.632156059511e-01       3.083432068194e-02 
       6.958678639263e-01       2.772816022512e-02 
       7.322247985589e-01       2.476694118454e-02 
       7.730680195114e-01       2.193941487970e-02 
       8.193049553677e-01       1.925596097472e-02 
       8.718988016039e-01       1.672913138549e-02 
       9.317218031082e-01       1.438400057415e-02 
       9.993660908989e-01       1.225048860925e-02 
       1.075037110174e+00       1.035243648801e-02 
       1.158653485707e+00       8.699523181729e-03 
       1.250099157308e+00       7.284414746791e-03 
       1.349432401273e+00       6.085288933594e-03 
       1.456947457397e+00       5.075517333922e-03 
       1.573135111331e+00       4.228135680835e-03 
       1.698621895592e+00       3.518376005741e-03 
       1.834127512934e+00       2.924797008462e-03 
       1.980444934528e+00       2.428990445503e-03 
       2.138435191726e+00       2.015339225852e-03 
       2.309029199186e+00       1.670604176067e-03 
       2.493232377687e+00       1.383615750054e-03 
       2.692130395285e+00       1.144961426584e-03 
       2.906895534573e+00       9.466879188195e-04 
       3.138793597714e+00       7.821198247403e-04 
       3.389191366484e+00       6.456546781205e-04 
       3.659564657905e+00       5.325968937773e-04 
       3.951507022538e+00       4.390182841797e-04 
       4.266739136701e+00       3.616170600912e-04 
       4.607118943941e+00       2.976549133313e-04 
       4.974652605557e+00       2.448395038734e-04 
       5.371506324689e+00       2.012602684113e-04 
       5.800019113685e+00       1.653292312779e-04 
       6.262716579983e+00       1.357240965481e-04 
       6.762325811764e+00       1.113481989595e-04 
       7.301791451110e+00       9.129145850643e-05 
       7.884293049406e+00       7.479865163926e-05 
       8.513263807261e+00       6.124482556019e-05 
       9.192410809424e+00       5.011286715800e-05 
       9.925736873929e+00       4.097494478916e-05 
       1.071756414427e+01       3.347797779943e-05 
       1.157255956364e+01       2.733008152676e-05 
       1.249576238137e+01       2.229110897940e-05 
       1.349261385375e+01       1.816263757305e-05 
       1.456898931416e+01       1.478158989655e-05 
       1.573123280165e+01       1.201345831556e-05 
       1.698619445202e+01       9.747808331486e-06 
       1.834127087176e+01       7.893870396153e-06 
       1.980444873285e+01       6.377070624270e-06 
       2.138435184532e+01       5.136167063823e-06 
       2.309029198506e+01       4.121292043644e-06 
       2.493232377636e+01       3.291269718288e-06 
       2.692130395282e+01       2.612590009972e-06 
       2.906895534573e+01       2.057867426702e-06 
       3.138793597714e+01       1.605140597912e-06 
       3.389191366484e+01       1.236167331443e-06 
       3.659564657905e+01       9.363308742021e-07 
       3.951507022538e+01       6.940015220132e-07 
       4.266739136701e+01       4.997218581226e-07 
       4.607118943941e+01       3.461530647439e-07 
       4.974652605557e+01       2.272036444945e-07 
       5.371506324689e+01       1.379847071387e-07 
       5.800019113685e+01       7.437359673178e-08 
       6.262716579983e+01       3.267586118311e-08 
       6.762325811764e+01       9.279432757676e-09 
       7.301791451110e+01       4.102773998582e-10 
       7.884293049406e+01       2.051122469425e-09 
       8.513263807261e+01       9.962929241260e-09 
       9.192410809424e+01       1.998295760584e-08 
       9.925736873929e+01       2.817231393900e-08 
       1.071756414427e+02       3.194486155547e-08 
       1.157255956364e+02       2.986200746397e-08 
       1.249576238137e+02       2.376590446390e-08 
       1.349261385375e+02       1.492949857819e-08 
