# Matter power spectrum P(k) at redshift z=0
# for k=1.04775e-05 to 67.6233 h/Mpc,
# number of wavenumbers equal to 246
#    1:k (h/Mpc)              2:P (Mpc/h)^3        
       1.047750691338e-05       5.020964806755e+01 
       1.131335172818e-05       5.407048206553e+01 
       1.221587619877e-05       5.822819063850e+01 
       1.319039970550e-05       6.270562589685e+01 
       1.424266598317e-05       6.752731788102e+01 
       1.537887697396e-05       7.271977200257e+01 
       1.660572938097e-05       7.831147241542e+01 
       1.793045413791e-05       8.433311815128e+01 
       1.936085902737e-05       9.081778242446e+01 
       2.090537469909e-05       9.780108061340e+01 
       2.257310435923e-05       1.053213197032e+02 
       2.437387742372e-05       1.134197377001e+02 
       2.631830745176e-05       1.221408202816e+02 
       2.841785470091e-05       1.315324720916e+02 
       3.068489367268e-05       1.416462093730e+02 
       3.313278604643e-05       1.525374500691e+02 
       3.577595943165e-05       1.642660687078e+02 
       3.862999240274e-05       1.768963504868e+02 
       4.171170631739e-05       1.904975992460e+02 
       4.503926445983e-05       2.051444490305e+02 
       4.863227909323e-05       2.209171463752e+02 
       5.251192705226e-05       2.379022222314e+02 
       5.670107455699e-05       2.561927925503e+02 
       6.122441198393e-05       2.758890441791e+02 
       6.610859938837e-05       2.970989225466e+02 
       7.138242363583e-05       3.199385558200e+02 
       7.707696806873e-05       3.445329780878e+02 
       8.322579570814e-05       3.710167315928e+02 
       8.986514707061e-05       3.995346440954e+02 
       9.703415376577e-05       4.302425403884e+02 
       1.047750691338e-04       4.633080762974e+02 
       1.131335172818e-04       4.989116267507e+02 
       1.221587619877e-04       5.372471946561e+02 
       1.319039970550e-04       5.785234124634e+02 
       1.424266598317e-04       6.229645930980e+02 
       1.537887697396e-04       6.708118484951e+02 
       1.660572938097e-04       7.223242660220e+02 
       1.793045413791e-04       7.777801553968e+02 
       1.936085902737e-04       8.374783607333e+02 
       2.090537469909e-04       9.017396264495e+02 
       2.257310435923e-04       9.709080260152e+02 
       2.437387742372e-04       1.045352448644e+03 
       2.631830745176e-04       1.125468122836e+03 
       2.841785470091e-04       1.211678179511e+03 
       3.068489367268e-04       1.304435249091e+03 
       3.313278604643e-04       1.404223052541e+03 
       3.577595943165e-04       1.511558013390e+03 
       3.862999240274e-04       1.626990836444e+03 
       4.171170631739e-04       1.751108027371e+03 
       4.503926445983e-04       1.884533381345e+03 
       4.863227909323e-04       2.027929376471e+03 
       5.251192705226e-04       2.181998446367e+03 
       5.670107455699e-04       2.347484100857e+03 
       6.122441198393e-04       2.525171869337e+03 
       6.610859938837e-04       2.715889981401e+03 
       7.138242363583e-04       2.920509686084e+03 
       7.707696806873e-04       3.139945097710e+03 
       8.322579570814e-04       3.375152334394e+03 
       8.986514707061e-04       3.627127828231e+03 
       9.703415376577e-04       3.896905450016e+03 
       1.047750691338e-03       4.185552170959e+03 
       1.131335172818e-03       4.494162426791e+03 
       1.221587619877e-03       4.823850702668e+03 
       1.319039970550e-03       5.175742738581e+03 
       1.424266598317e-03       5.551019592516e+03 
       1.537887697396e-03       5.950788335876e+03 
       1.660572938097e-03       6.376123046806e+03 
       1.793045413791e-03       6.828073896116e+03 
       1.936085902737e-03       7.307625375386e+03 
       2.090537469909e-03       7.815671860183e+03 
       2.257310435923e-03       8.352990369398e+03 
       2.437387742372e-03       8.920211057536e+03 
       2.631830745176e-03       9.517783061890e+03 
       2.841785470091e-03       1.014593703671e+04 
       3.068489367268e-03       1.080464505738e+04 
       3.313278604643e-03       1.149357459477e+04 
       3.577595943165e-03       1.221203620826e+04 
       3.862999240274e-03       1.295892538505e+04 
       4.171170631739e-03       1.373266002397e+04 
       4.503926445983e-03       1.453111834595e+04 
       4.863227909323e-03       1.535154984225e+04 
       5.251192705226e-03       1.619063613422e+04 
       5.670107455699e-03       1.704431256600e+04 
       6.122441198393e-03       1.790755938466e+04 
       6.610859938837e-03       1.877460418979e+04 
       7.138242363583e-03       1.963872429121e+04 
       7.707696806873e-03       2.049215713508e+04 
       8.322579570814e-03       2.132606957316e+04 
       8.986514707061e-03       2.213055070092e+04 
       9.703415376577e-03       2.289445470882e+04 
       1.047750691338e-02       2.360548941209e+04 
       1.131335172818e-02       2.425021983279e+04 
       1.221587619877e-02       2.481423923081e+04 
       1.319039970550e-02       2.528218620712e+04 
       1.424266598317e-02       2.563814176961e+04 
       1.537887697392e-02       2.586607384565e+04 
       1.660572938023e-02       2.595027201800e+04 
       1.793045412706e-02       2.587635116782e+04 
       1.936085890181e-02       2.563220740218e+04 
       2.090537352463e-02       2.520932967704e+04 
       2.257309535333e-02       2.460447518354e+04 
       2.437382002918e-02       2.382091612378e+04 
       2.631799944462e-02       2.287042741623e+04 
       2.841644545389e-02       2.177456664849e+04 
       3.067933355377e-02       2.056554866756e+04 
       3.311368470740e-02       1.928733251221e+04 
       3.571840443502e-02       1.799403097327e+04 
       3.847720348444e-02       1.674669992989e+04 
       4.135335538431e-02       1.560464553846e+04 
       4.429361667738e-02       1.461041630402e+04 
       4.724366439141e-02       1.378053450400e+04 
       5.016480835311e-02       1.310506814835e+04 
       5.303989620246e-02       1.255715318691e+04 
       5.586870669566e-02       1.210422765288e+04 
       5.866042680613e-02       1.171463921727e+04 
       6.142798932958e-02       1.136046151621e+04 
       6.418496440164e-02       1.101855786159e+04 
       6.694418833788e-02       1.067070029683e+04 
       6.971731106057e-02       1.030358923500e+04 
       7.251476155766e-02       9.909018811440e+03 
       7.534587671527e-02       9.483762642435e+03 
       7.821907666265e-02       9.029513036829e+03 
       8.114203772912e-02       8.552339989908e+03 
       8.412184535029e-02       8.061911508123e+03 
       8.716512279304e-02       7.570790936782e+03 
       9.027813695930e-02       7.092465057715e+03 
       9.346688431697e-02       6.640511644554e+03 
       9.673716028276e-02       6.226707511942e+03 
       1.000946150830e-01       5.859909111622e+03 
       1.035447986537e-01       5.545261004087e+03 
       1.070931966762e-01       5.283132051868e+03 
       1.107452594425e-01       5.069411644406e+03 
       1.145064249153e-01       4.895262617809e+03 
       1.183821370918e-01       4.747848633072e+03 
       1.223778605862e-01       4.611728908985e+03 
       1.264990921987e-01       4.470606731382e+03 
       1.307513701367e-01       4.310252466960e+03 
       1.351402814784e-01       4.121381282462e+03 
       1.396714684203e-01       3.902050374770e+03 
       1.443506338194e-01       3.658662401532e+03 
       1.491835465229e-01       3.404490381481e+03 
       1.541760469708e-01       3.156672216032e+03 
       1.593340535561e-01       2.931979061668e+03 
       1.646635702297e-01       2.742364609184e+03 
       1.701706958456e-01       2.592252263602e+03 
       1.758616357459e-01       2.477243082466e+03 
       1.817427160982e-01       2.385182557496e+03 
       1.878204015065e-01       2.300357329133e+03 
       1.941013164283e-01       2.205761073751e+03 
       2.005922709503e-01       2.090814789741e+03 
       2.073002914972e-01       1.956466088621e+03 
       2.142326570816e-01       1.814192561165e+03 
       2.213969417533e-01       1.679296729228e+03 
       2.288010639706e-01       1.563849248942e+03 
       2.364533437147e-01       1.472685381242e+03 
       2.443625682930e-01       1.401515680975e+03 
       2.525380679504e-01       1.338413966569e+03 
       2.609898026346e-01       1.270900013956e+03 
       2.697284615565e-01       1.193384806886e+03 
       2.787655775689e-01       1.109339149150e+03 
       2.881136588829e-01       1.028768585401e+03 
       2.977863412677e-01       9.604814482679e+02 
       3.077985646929e-01       9.050248451750e+02 
       3.181667794071e-01       8.561452217616e+02 
       3.289091877812e-01       8.061867691163e+02 
       3.400460299658e-01       7.523935834132e+02 
       3.515999236474e-01       6.989203908013e+02 
       3.635962711085e-01       6.510629820780e+02 
       3.760637506334e-01       6.101225022290e+02 
       3.890349143879e-01       5.721304295175e+02 
       4.025469216825e-01       5.337813909370e+02 
       4.166424456376e-01       4.956307686797e+02 
       4.313708035863e-01       4.604692383153e+02 
       4.467893782977e-01       4.287761983033e+02 
       4.629654199664e-01       3.987727223387e+02 
       4.799783501994e-01       3.692423344784e+02 
       4.979227319373e-01       3.412401126366e+02 
       5.169121270864e-01       3.154841362370e+02 
       5.370841404489e-01       2.908355120420e+02 
       5.586070464571e-01       2.671059780217e+02 
       5.816885094930e-01       2.448092309175e+02 
       6.065870144995e-01       2.235671791128e+02 
       6.336266468475e-01       2.032102498264e+02 
       6.632156059511e-01       1.838786837410e+02 
       6.958678639263e-01       1.653545282393e+02 
       7.322247985589e-01       1.476957633870e+02 
       7.730680195114e-01       1.308334660721e+02 
       8.193049553677e-01       1.148309419458e+02 
       8.718988016039e-01       9.976246552006e+01 
       9.317218031082e-01       8.577802437239e+01 
       9.993660908989e-01       7.305492401315e+01 
       1.075037110174e+00       6.173582704746e+01 
       1.158653485707e+00       5.187900851725e+01 
       1.250099157308e+00       4.344009595210e+01 
       1.349432401273e+00       3.628940605733e+01 
       1.456947457397e+00       3.026790987295e+01 
       1.573135111331e+00       2.521449303357e+01 
       1.698621895592e+00       2.098205107167e+01 
       1.834127512934e+00       1.744233827505e+01 
       1.980444934528e+00       1.448564352819e+01 
       2.138435191726e+00       1.201895218258e+01 
       2.309029199186e+00       9.963126148340e+00 
       2.493232377687e+00       8.251807167216e+00 
       2.692130395285e+00       6.828566384994e+00 
       2.906895534573e+00       5.646208534084e+00 
       3.138793597714e+00       4.664804769523e+00 
       3.389191366484e+00       3.851031037611e+00 
       3.659564657905e+00       3.176853183323e+00 
       3.951507022538e+00       2.618796135259e+00 
       4.266739136701e+00       2.157250366233e+00 
       4.607118943941e+00       1.775822513446e+00 
       4.974652605557e+00       1.460875819217e+00 
       5.371506324689e+00       1.201003976694e+00 
       5.800019113685e+00       9.867373897897e-01 
       6.262716579983e+00       8.101944468570e-01 
       6.762325811764e+00       6.648448291681e-01 
       7.301791451110e+00       5.452451165389e-01 
       7.884293049406e+00       4.469061802919e-01 
       8.513263807261e+00       3.660897236944e-01 
       9.192410809424e+00       2.997180405693e-01 
       9.925736873929e+00       2.452453818299e-01 
       1.071756414427e+01       2.005550588775e-01 
       1.157255956364e+01       1.639149732119e-01 
       1.249576238137e+01       1.338904907468e-01 
       1.349261385375e+01       1.092979317584e-01 
       1.456898931416e+01       8.916529148081e-02 
       1.573123280165e+01       7.268937471173e-02 
       1.698619445202e+01       5.921485220531e-02 
       1.834127087176e+01       4.819685283405e-02 
       1.980444873285e+01       3.919114809783e-02 
       2.138435184532e+01       3.183338183025e-02 
       2.309029198506e+01       2.582353621310e-02 
       2.493232377636e+01       2.091593610773e-02 
       2.692130395282e+01       1.690979152401e-02 
       2.906895534573e+01       1.364022964592e-02 
       3.138793597714e+01       1.097243857328e-02 
       3.389191366484e+01       8.796103124183e-03 
       3.659564657905e+01       7.021652583629e-03 
       3.951507022538e+01       5.575555563561e-03 
       4.266739136701e+01       4.398039477673e-03 
       4.607118943941e+01       3.440252101677e-03 
       4.974652605557e+01       2.663024223967e-03 
       5.371506324689e+01       2.034052416414e-03 
       5.800019113685e+01       1.527484614808e-03 
       6.262716579983e+01       1.122299987669e-03 
       6.762325811764e+01       8.015097404585e-04 
