# Matter power spectrum P(k) at redshift z=0
# for k=1.04775e-05 to 67.6233 h/Mpc,
# number of wavenumbers equal to 246
#    1:k (h/Mpc)              2:P (Mpc/h)^3        
       1.047750691338e-05       5.020964806753e+01 
       1.131335172818e-05       5.407048206554e+01 
       1.221587619877e-05       5.822819063794e+01 
       1.319039970550e-05       6.270562589670e+01 
       1.424266598317e-05       6.752731788102e+01 
       1.537887697396e-05       7.271977200258e+01 
       1.660572938097e-05       7.831147241542e+01 
       1.793045413791e-05       8.433311815128e+01 
       1.936085902737e-05       9.081778242446e+01 
       2.090537469909e-05       9.780108061340e+01 
       2.257310435923e-05       1.053213197032e+02 
       2.437387742372e-05       1.134197377001e+02 
       2.631830745176e-05       1.221408202816e+02 
       2.841785470091e-05       1.315324720916e+02 
       3.068489367268e-05       1.416462093730e+02 
       3.313278604643e-05       1.525374500691e+02 
       3.577595943165e-05       1.642660687078e+02 
       3.862999240274e-05       1.768963504868e+02 
       4.171170631739e-05       1.904975992460e+02 
       4.503926445983e-05       2.051444490305e+02 
       4.863227909323e-05       2.209171463752e+02 
       5.251192705226e-05       2.379022222314e+02 
       5.670107455699e-05       2.561927925470e+02 
       6.122441198393e-05       2.758890441791e+02 
       6.610859938837e-05       2.970989225466e+02 
       7.138242363583e-05       3.199385558200e+02 
       7.707696806873e-05       3.445329780878e+02 
       8.322579570814e-05       3.710167315928e+02 
       8.986514707061e-05       3.995346440954e+02 
       9.703415376577e-05       4.302425403884e+02 
       1.047750691338e-04       4.633080762974e+02 
       1.131335172818e-04       4.989116267507e+02 
       1.221587619877e-04       5.372471946561e+02 
       1.319039970550e-04       5.785234124640e+02 
       1.424266598317e-04       6.229645930980e+02 
       1.537887697396e-04       6.708118484951e+02 
       1.660572938097e-04       7.223242660220e+02 
       1.793045413791e-04       7.777801554132e+02 
       1.936085902737e-04       8.374783607334e+02 
       2.090537469909e-04       9.017396264495e+02 
       2.257310435923e-04       9.709080260152e+02 
       2.437387742372e-04       1.045352448644e+03 
       2.631830745176e-04       1.125468122836e+03 
       2.841785470091e-04       1.211678179511e+03 
       3.068489367268e-04       1.304435249091e+03 
       3.313278604643e-04       1.404223052541e+03 
       3.577595943165e-04       1.511558013390e+03 
       3.862999240274e-04       1.626990836457e+03 
       4.171170631739e-04       1.751108027371e+03 
       4.503926445983e-04       1.884533381345e+03 
       4.863227909323e-04       2.027929376470e+03 
       5.251192705226e-04       2.181998446367e+03 
       5.670107455699e-04       2.347484100857e+03 
       6.122441198393e-04       2.525171869336e+03 
       6.610859938837e-04       2.715889981401e+03 
       7.138242363583e-04       2.920509686082e+03 
       7.707696806873e-04       3.139945097711e+03 
       8.322579570814e-04       3.375152334396e+03 
       8.986514707061e-04       3.627127828230e+03 
       9.703415376577e-04       3.896905450016e+03 
       1.047750691338e-03       4.185552170962e+03 
       1.131335172818e-03       4.494162426791e+03 
       1.221587619877e-03       4.823850702661e+03 
       1.319039970550e-03       5.175742739599e+03 
       1.424266598317e-03       5.551019592526e+03 
       1.537887697396e-03       5.950788335883e+03 
       1.660572938097e-03       6.376123046785e+03 
       1.793045413791e-03       6.828073896121e+03 
       1.936085902737e-03       7.307625375386e+03 
       2.090537469909e-03       7.815671860023e+03 
       2.257310435923e-03       8.352990369398e+03 
       2.437387742372e-03       8.920211057525e+03 
       2.631830745176e-03       9.517783061887e+03 
       2.841785470091e-03       1.014593703671e+04 
       3.068489367268e-03       1.080464505731e+04 
       3.313278604643e-03       1.149357459485e+04 
       3.577595943165e-03       1.221203620825e+04 
       3.862999240274e-03       1.295892538504e+04 
       4.171170631739e-03       1.373266002227e+04 
       4.503926445983e-03       1.453111834592e+04 
       4.863227909323e-03       1.535154984198e+04 
       5.251192705226e-03       1.619063613275e+04 
       5.670107455699e-03       1.704431256602e+04 
       6.122441198393e-03       1.790755938538e+04 
       6.610859938837e-03       1.877460422973e+04 
       7.138242363583e-03       1.963872429375e+04 
       7.707696806873e-03       2.049215713154e+04 
       8.322579570814e-03       2.132607231700e+04 
       8.986514707061e-03       2.213055012761e+04 
       9.703415376577e-03       2.289445471907e+04 
       1.047750691338e-02       2.360548088591e+04 
       1.131335172818e-02       2.425022854196e+04 
       1.221587619877e-02       2.481423922631e+04 
       1.319039970550e-02       2.528218691285e+04 
       1.424266598317e-02       2.563813764539e+04 
       1.537887697392e-02       2.586606573921e+04 
       1.660572938023e-02       2.595027336908e+04 
       1.793045412706e-02       2.587635348563e+04 
       1.936085890181e-02       2.563219582679e+04 
       2.090537352463e-02       2.520934295250e+04 
       2.257309535333e-02       2.460443651736e+04 
       2.437382002918e-02       2.382091754017e+04 
       2.631799944462e-02       2.287044870094e+04 
       2.841644545389e-02       2.177457045763e+04 
       3.067933355377e-02       2.056565197447e+04 
       3.311368470740e-02       1.928730984320e+04 
       3.571840443502e-02       1.799403140119e+04 
       3.847720348444e-02       1.674681418338e+04 
       4.135335538431e-02       1.560459179438e+04 
       4.429361667738e-02       1.461041054082e+04 
       4.724366439141e-02       1.378055099351e+04 
       5.016480835311e-02       1.310505209937e+04 
       5.303989620246e-02       1.255716845235e+04 
       5.586870669566e-02       1.210423267907e+04 
       5.866042680613e-02       1.171461470224e+04 
       6.142798932958e-02       1.136046119321e+04 
       6.418496440164e-02       1.101854985573e+04 
       6.694418833788e-02       1.067066261676e+04 
       6.971731106057e-02       1.030358434017e+04 
       7.251476155766e-02       9.909008767141e+03 
       7.534587671527e-02       9.483735777085e+03 
       7.821907666265e-02       9.029480997490e+03 
       8.114203772912e-02       8.552307910124e+03 
       8.412184535029e-02       8.061942469098e+03 
       8.716512279304e-02       7.570763245328e+03 
       9.027813695930e-02       7.092454998827e+03 
       9.346688431697e-02       6.640472972426e+03 
       9.673716028276e-02       6.226689195272e+03 
       1.000946150830e-01       5.859951774051e+03 
       1.035447986537e-01       5.545237341287e+03 
       1.070931966762e-01       5.283155667128e+03 
       1.107452594425e-01       5.069434329900e+03 
       1.145064249153e-01       4.895217490617e+03 
       1.183821370918e-01       4.747832369413e+03 
       1.223778605862e-01       4.611739342266e+03 
       1.264990921987e-01       4.470623576025e+03 
       1.307513701367e-01       4.310256754808e+03 
       1.351402814784e-01       4.121374156807e+03 
       1.396714684203e-01       3.902040278321e+03 
       1.443506338194e-01       3.658652994419e+03 
       1.491835465229e-01       3.404467926463e+03 
       1.541760469708e-01       3.156663783394e+03 
       1.593340535561e-01       2.931965734424e+03 
       1.646635702297e-01       2.742358975339e+03 
       1.701706958456e-01       2.592253073648e+03 
       1.758616357459e-01       2.477239379506e+03 
       1.817427160982e-01       2.385177408950e+03 
       1.878204015065e-01       2.300347392288e+03 
       1.941013164283e-01       2.205747944749e+03 
       2.005922709503e-01       2.090814588959e+03 
       2.073002914972e-01       1.956456163675e+03 
       2.142326570816e-01       1.814178985894e+03 
       2.213969417533e-01       1.679280534935e+03 
       2.288010639706e-01       1.563832703858e+03 
       2.364533437147e-01       1.472673442684e+03 
       2.443625682930e-01       1.401495401878e+03 
       2.525380679504e-01       1.338395306348e+03 
       2.609898026346e-01       1.270880458446e+03 
       2.697284615565e-01       1.193361239822e+03 
       2.787655775689e-01       1.109314435287e+03 
       2.881136588829e-01       1.028749930488e+03 
       2.977863412677e-01       9.604572934980e+02 
       3.077985646929e-01       9.049975871124e+02 
       3.181667794071e-01       8.561200880248e+02 
       3.289091877812e-01       8.061584526005e+02 
       3.400460299658e-01       7.523558495945e+02 
       3.515999236474e-01       6.988910951495e+02 
       3.635962711085e-01       6.510284632934e+02 
       3.760637506334e-01       6.100885971391e+02 
       3.890349143879e-01       5.720959861723e+02 
       4.025469216825e-01       5.337437800433e+02 
       4.166424456376e-01       4.955928087141e+02 
       4.313708035863e-01       4.604268273525e+02 
       4.467893782977e-01       4.287326540552e+02 
       4.629654199664e-01       3.987253291967e+02 
       4.799783501994e-01       3.691929994523e+02 
       4.979227319373e-01       3.411882189057e+02 
       5.169121270864e-01       3.154293356015e+02 
       5.370841404489e-01       2.907779595026e+02 
       5.586070464571e-01       2.670461580532e+02 
       5.816885094930e-01       2.447466503529e+02 
       6.065870144995e-01       2.235015063502e+02 
       6.336266468475e-01       2.031402039853e+02 
       6.632156059511e-01       1.838044211768e+02 
       6.958678639263e-01       1.652756562414e+02 
       7.322247985589e-01       1.476113120407e+02 
       7.730680195114e-01       1.307441964827e+02 
       8.193049553677e-01       1.147353004321e+02 
       8.718988016039e-01       9.965983760655e+01 
       9.317218031082e-01       8.566720772529e+01 
       9.993660908989e-01       7.293531561385e+01 
       1.075037110174e+00       6.160641028253e+01 
       1.158653485707e+00       5.173917493245e+01 
       1.250099157308e+00       4.328889325581e+01 
       1.349432401273e+00       3.612577757706e+01 
       1.456947457397e+00       3.009155351507e+01 
       1.573135111331e+00       2.502465336292e+01 
       1.698621895592e+00       2.077795558277e+01 
       1.834127512934e+00       1.722384993570e+01 
       1.980444934528e+00       1.425199540855e+01 
       2.138435191726e+00       1.176958592903e+01 
       2.309029199186e+00       9.697819829739e+00 
       2.493232377687e+00       7.970331290280e+00 
       2.692130395285e+00       6.530835721160e+00 
       2.906895534573e+00       5.332331349072e+00 
       3.138793597714e+00       4.335118273597e+00 
       3.389191366484e+00       3.506196494786e+00 
       3.659564657905e+00       2.817824484598e+00 
       3.951507022538e+00       2.246942261405e+00 
       4.266739136701e+00       1.774421209856e+00 
       4.607118943941e+00       1.384388956292e+00 
       4.974652605557e+00       1.063731648382e+00 
       5.371506324689e+00       8.016771325530e-01 
       5.800019113685e+00       5.893648728135e-01 
       6.262716579983e+00       4.194978384340e-01 
       6.762325811764e+00       2.860127501055e-01 
       7.301791451110e+00       1.838394244526e-01 
       7.884293049406e+00       1.085663020630e-01 
       8.513263807261e+00       5.624274749956e-02 
       9.192410809424e+00       2.315459403162e-02 
       9.925736873929e+00       5.650777683396e-03 
       1.071756414427e+01       4.928867010245e-05 
       1.157255956364e+01       2.630802534813e-03 
       1.249576238137e+01       9.740357508782e-03 
       1.349261385375e+01       1.800532477044e-02 
       1.456898931416e+01       2.463932947210e-02 
       1.573123280165e+01       2.777538861862e-02 
       1.698619445202e+01       2.671984494251e-02 
       1.834127087176e+01       2.201298822758e-02 
       1.980444873285e+01       1.519759996413e-02 
       2.138435184532e+01       8.288650986599e-03 
       2.309029198506e+01       3.061601340462e-03 
       2.493232377636e+01       4.133655713324e-04 
       2.692130395282e+01       9.529919384061e-05 
       2.906895534573e+01       9.858315127046e-04 
       3.138793597714e+01       1.796017020373e-03 
       3.389191366484e+01       1.799928473570e-03 
       3.659564657905e+01       1.115930035629e-03 
       3.951507022538e+01       3.625884225116e-04 
       4.266739136701e+01       1.614784141013e-05 
       4.607118943941e+01       5.375808518276e-05 
       4.974652605557e+01       1.535347249702e-04 
       5.371506324689e+01       1.230916723589e-04 
       5.800019113685e+01       3.348834399831e-05 
       6.262716579983e+01       4.171912243742e-11 
       6.762325811764e+01       1.137771818423e-05 
