# Matter power spectrum P(k) at redshift z=99
# for k=1.04775e-05 to 134.926 h/Mpc,
# number of wavenumbers equal to 255
#    1:k (h/Mpc)              2:P (Mpc/h)^3        
       1.047750691338e-05       7.261927095490e-03 
       1.131335172818e-05       7.820332150976e-03 
       1.221587619877e-05       8.421675382568e-03 
       1.319039970550e-05       9.069257738259e-03 
       1.424266598317e-05       9.766636451401e-03 
       1.537887697396e-05       1.051763973671e-02 
       1.660572938097e-05       1.132639250784e-02 
       1.793045413791e-05       1.219733201542e-02 
       1.936085902737e-05       1.313524187241e-02 
       2.090537469909e-05       1.414527085018e-02 
       2.257310435923e-05       1.523296544536e-02 
       2.437387742372e-05       1.640429654688e-02 
       2.631830745176e-05       1.766569603338e-02 
       2.841785470091e-05       1.902408711219e-02 
       3.068489367268e-05       2.048692967504e-02 
       3.313278604643e-05       2.206225467614e-02 
       3.577595943165e-05       2.375870883923e-02 
       3.862999240274e-05       2.558560669898e-02 
       4.171170631739e-05       2.755297672595e-02 
       4.503926445983e-05       2.967161933502e-02 
       4.863227909323e-05       3.195316455752e-02 
       5.251192705226e-05       3.441013466238e-02 
       5.670107455699e-05       3.705601741813e-02 
       6.122441198393e-05       3.990533412957e-02 
       6.610859938837e-05       4.297372242661e-02 
       7.138242363583e-05       4.627802055093e-02 
       7.707696806873e-05       4.983636160036e-02 
       8.322579570814e-05       5.366826787095e-02 
       8.986514707061e-05       5.779476319907e-02 
       9.703415376577e-05       6.223848222023e-02 
       1.047750691338e-04       6.702379825224e-02 
       1.131335172818e-04       7.217695031217e-02 
       1.221587619877e-04       7.772619030582e-02 
       1.319039970550e-04       8.370193380418e-02 
       1.424266598317e-04       9.013692506910e-02 
       1.537887697396e-04       9.706641130684e-02 
       1.660572938097e-04       1.045283343143e-01 
       1.793045413791e-04       1.125635329219e-01 
       1.936085902737e-04       1.212159591567e-01 
       2.090537469909e-04       1.305329107475e-01 
       2.257310435923e-04       1.405652819405e-01 
       2.437387742372e-04       1.513678275120e-01 
       2.631830745176e-04       1.629994475183e-01 
       2.841785470091e-04       1.755234890533e-01 
       3.068489367268e-04       1.890080645359e-01 
       3.313278604643e-04       2.035263977495e-01 
       3.577595943165e-04       2.191571778113e-01 
       3.862999240274e-04       2.359849423335e-01 
       4.171170631739e-04       2.541004713082e-01 
       4.503926445983e-04       2.736012061245e-01 
       4.863227909323e-04       2.945916774735e-01 
       5.251192705226e-04       3.171839507962e-01 
       5.670107455699e-04       3.414980769213e-01 
       6.122441198393e-04       3.676625416412e-01 
       6.610859938837e-04       3.958147272982e-01 
       7.138242363583e-04       4.261013332189e-01 
       7.707696806873e-04       4.586787880980e-01 
       8.322579570814e-04       4.937136112958e-01 
       8.986514707061e-04       5.313826962219e-01 
       9.703415376577e-04       5.718735176950e-01 
       1.047750691338e-03       6.153841926399e-01 
       1.131335172818e-03       6.621233623271e-01 
       1.221587619877e-03       7.123098743798e-01 
       1.319039970550e-03       7.661721263924e-01 
       1.424266598317e-03       8.239547181433e-01 
       1.537887697396e-03       8.859012282928e-01 
       1.660572938097e-03       9.522589495815e-01 
       1.793045413791e-03       1.023280284734e+00 
       1.936085902737e-03       1.099216542110e+00 
       2.090537469909e-03       1.180313285018e+00 
       2.257310435923e-03       1.266804486755e+00 
       2.437387742372e-03       1.358905328356e+00 
       2.631830745176e-03       1.456803285761e+00 
       2.841785470091e-03       1.560647662724e+00 
       3.068489367268e-03       1.670537010082e+00 
       3.313278604643e-03       1.786505038870e+00 
       3.577595943165e-03       1.908504408957e+00 
       3.862999240274e-03       2.036389470956e+00 
       4.171170631739e-03       2.169898467651e+00 
       4.503926445983e-03       2.308634566719e+00 
       4.863227909323e-03       2.452050710106e+00 
       5.251192705226e-03       2.599434738801e+00 
       5.670107455699e-03       2.749900971539e+00 
       6.122441198393e-03       2.902390195190e+00 
       6.610859938837e-03       3.055671935181e+00 
       7.138242363583e-03       3.208359658325e+00 
       7.707696806873e-03       3.358926505579e+00 
       8.322579570814e-03       3.505728034685e+00 
       8.986514707061e-03       3.647012603167e+00 
       9.703415376577e-03       3.780925847076e+00 
       1.047750691338e-02       3.905492568585e+00 
       1.131335172818e-02       4.018589507847e+00 
       1.221587619877e-02       4.117902465053e+00 
       1.319039970550e-02       4.200917078027e+00 
       1.424266598317e-02       4.264942830212e+00 
       1.537887697392e-02       4.307218421805e+00 
       1.660572938023e-02       4.325060701979e+00 
       1.793045412706e-02       4.316057960488e+00 
       1.936085890181e-02       4.278225611163e+00 
       2.090537352463e-02       4.210200112913e+00 
       2.257309535333e-02       4.111412822417e+00 
       2.437382002918e-02       3.982413092020e+00 
       2.631799944462e-02       3.825158325027e+00 
       2.841644545389e-02       3.643270940164e+00 
       3.067933355377e-02       3.442181304070e+00 
       3.311368470740e-02       3.229219474632e+00 
       3.571840443502e-02       3.013488567397e+00 
       3.847720348444e-02       2.805251029842e+00 
       4.135335538431e-02       2.614369083808e+00 
       4.429361667738e-02       2.448081883341e+00 
       4.724366439141e-02       2.309181924928e+00 
       5.016480835311e-02       2.196047090405e+00 
       5.303989620246e-02       2.104291761907e+00 
       5.586870669566e-02       2.028374116101e+00 
       5.866042680613e-02       1.963055897569e+00 
       6.142798932958e-02       1.903668753712e+00 
       6.418496440164e-02       1.846355925470e+00 
       6.694418833788e-02       1.788061620498e+00 
       6.971731106057e-02       1.726566160866e+00 
       7.251476155766e-02       1.660490896814e+00 
       7.534587671527e-02       1.589292038162e+00 
       7.821907666265e-02       1.513244231985e+00 
       8.114203772912e-02       1.433360004292e+00 
       8.412184535029e-02       1.351266815632e+00 
       8.716512279304e-02       1.269031724888e+00 
       9.027813695930e-02       1.188934178927e+00 
       9.346688431697e-02       1.113224729159e+00 
       9.673716028276e-02       1.043880453300e+00 
       1.000946150830e-01       9.823936628009e-01 
       1.035447986537e-01       9.296048114743e-01 
       1.070931966762e-01       8.856049600808e-01 
       1.107452594425e-01       8.496943862474e-01 
       1.145064249153e-01       8.204025255606e-01 
       1.183821370918e-01       7.955960798510e-01 
       1.223778605862e-01       7.726887694135e-01 
       1.264990921987e-01       7.489634544656e-01 
       1.307513701367e-01       7.220382469365e-01 
       1.351402814784e-01       6.903576727642e-01 
       1.396714684203e-01       6.535981738313e-01 
       1.443506338194e-01       6.128124012466e-01 
       1.491835465229e-01       5.702229997188e-01 
       1.541760469708e-01       5.286873172632e-01 
       1.593340535561e-01       4.910032240374e-01 
       1.646635702297e-01       4.591773614290e-01 
       1.701706958456e-01       4.339470227476e-01 
       1.758616357459e-01       4.145838716081e-01 
       1.817427160982e-01       3.990647595259e-01 
       1.878204015065e-01       3.847599964752e-01 
       1.941013164283e-01       3.688346248972e-01 
       2.005922709503e-01       3.495214716674e-01 
       2.073002914972e-01       3.269720912497e-01 
       2.142326570816e-01       3.030985449988e-01 
       2.213969417533e-01       2.804524123261e-01 
       2.288010639706e-01       2.610485713198e-01 
       2.364533437147e-01       2.456982039583e-01 
       2.443625682930e-01       2.336863695146e-01 
       2.525380679504e-01       2.230242605307e-01 
       2.609898026346e-01       2.116339683510e-01 
       2.697284615565e-01       1.985798802359e-01 
       2.787655775689e-01       1.844405221548e-01 
       2.881136588829e-01       1.708803443356e-01 
       2.977863412677e-01       1.593656428606e-01 
       3.077985646929e-01       1.499883703387e-01 
       3.181667794071e-01       1.417094349047e-01 
       3.289091877812e-01       1.332557888881e-01 
       3.400460299658e-01       1.241674290043e-01 
       3.515999236474e-01       1.151364653590e-01 
       3.635962711085e-01       1.070381130889e-01 
       3.760637506334e-01       1.000893878664e-01 
       3.890349143879e-01       9.363343104603e-02 
       4.025469216825e-01       8.712204390117e-02 
       4.166424456376e-01       8.064681293797e-02 
       4.313708035863e-01       7.466821580940e-02 
       4.467893782977e-01       6.926554238738e-02 
       4.629654199664e-01       6.414428348810e-02 
       4.799783501994e-01       5.910511190077e-02 
       4.979227319373e-01       5.432083974496e-02 
       5.169121270864e-01       4.990796751394e-02 
       5.370841404489e-01       4.568062844912e-02 
       5.586070464571e-01       4.160736572523e-02 
       5.816885094930e-01       3.777130451344e-02 
       6.065870144995e-01       3.411069797096e-02 
       6.336266468475e-01       3.059839826213e-02 
       6.632156059511e-01       2.725611157966e-02 
       6.958678639263e-01       2.404962170584e-02 
       7.322247985589e-01       2.098900805966e-02 
       7.730680195114e-01       1.806525819474e-02 
       8.193049553677e-01       1.529145031842e-02 
       8.718988016039e-01       1.268530776057e-02 
       9.317218031082e-01       1.027879987168e-02 
       9.993660908989e-01       8.110038915397e-03 
       1.075037110174e+00       6.212457981677e-03 
       1.158653485707e+00       4.603850888987e-03 
       1.250099157308e+00       3.283069986015e-03 
       1.349432401273e+00       2.231822873047e-03 
       1.456947457397e+00       1.424400248320e-03 
       1.573135111331e+00       8.316381988948e-04 
       1.698621895592e+00       4.236771063902e-04 
       1.834127512934e+00       1.698265876125e-04 
       1.980444934528e+00       3.918781711253e-05 
       2.138435191726e+00       1.195445699144e-07 
       2.309029199186e+00       2.138324687229e-05 
       2.493232377687e+00       7.343107666751e-05 
       2.692130395285e+00       1.305417372965e-04 
       2.906895534573e+00       1.729853365692e-04 
       3.138793597714e+00       1.892338022679e-04 
       3.389191366484e+00       1.766210232826e-04 
       3.659564657905e+00       1.411489295006e-04 
       3.951507022538e+00       9.446768820145e-05 
       4.266739136701e+00       4.982827529508e-05 
       4.607118943941e+00       1.769162791949e-05 
       4.974652605557e+00       2.225112553683e-06 
       5.371506324689e+00       6.072401340737e-07 
       5.800019113685e+00       5.603362683422e-06 
       6.262716579983e+00       9.821899041981e-06 
       6.762325811764e+00       9.628189450225e-06 
       7.301791451110e+00       5.863903399798e-06 
       7.884293049406e+00       1.936658767423e-06 
       8.513263807261e+00       1.036409655451e-07 
       9.192410809424e+00       2.203549699185e-07 
       9.925736873929e+00       6.927618823331e-07 
       1.071756414427e+01       5.901003066599e-07 
       1.157255956364e+01       1.673486094352e-07 
       1.249576238137e+01       1.000323778804e-09 
       1.349261385375e+01       4.485001780881e-08 
       1.456898931416e+01       4.995354466189e-08 
       1.573123280165e+01       6.065380253018e-09 
       1.698619445202e+01       4.680515339841e-10 
       1.834127087176e+01       4.186242386760e-09 
       1.980444873285e+01       3.115386236378e-09 
       2.138435184532e+01       4.558373390283e-13 
       2.309029198506e+01       4.784160969009e-13 
       2.493232377636e+01       3.067667960560e-10 
       2.692130395282e+01       1.215023828182e-10 
       2.906895534573e+01       3.561733676160e-09 
       3.138793597714e+01       3.418173597167e-10 
       3.389191366484e+01       2.357805989581e-10 
       3.659564657905e+01       2.370406397996e-11 
       3.951507022538e+01       1.836105849923e-09 
       4.266739136701e+01       1.098322693838e-08 
       4.607118943941e+01       6.744390642511e-08 
       4.974652605557e+01       1.805384440866e-08 
       5.371506324689e+01       1.429023394905e-10 
       5.800019113685e+01       8.487542863031e-09 
       6.262716579983e+01       9.171155642222e-09 
       6.762325811764e+01       7.961140848419e-09 
       7.301791451110e+01       7.469964525660e-09 
       7.884293049406e+01       4.535604224293e-08 
       8.513263807261e+01       1.188708161603e-08 
       9.192410809424e+01       4.668643009930e-08 
       9.925736873929e+01       1.133952791821e-07 
       1.071756414427e+02       1.519394232385e-08 
       1.157255956364e+02       3.815596001201e-08 
       1.249576238137e+02       7.442331592279e-09 
       1.349261385375e+02       2.415974909354e-09 
