# Matter power spectrum P(k) at redshift z=99
# for k=1.04775e-05 to 67.6233 h/Mpc,
# number of wavenumbers equal to 246
#    1:k (h/Mpc)              2:P (Mpc/h)^3        
       1.047750691338e-05       7.261927673119e-03 
       1.131335172818e-05       7.820331745737e-03 
       1.221587619877e-05       8.421675986489e-03 
       1.319039970550e-05       9.069258192194e-03 
       1.424266598317e-05       9.766638404421e-03 
       1.537887697396e-05       1.051764069682e-02 
       1.660572938097e-05       1.132639105520e-02 
       1.793045413791e-05       1.219733231416e-02 
       1.936085902737e-05       1.313524224381e-02 
       2.090537469909e-05       1.414527121893e-02 
       2.257310435923e-05       1.523296272192e-02 
       2.437387742372e-05       1.640429444530e-02 
       2.631830745176e-05       1.766569582177e-02 
       2.841785470091e-05       1.902408601793e-02 
       3.068489367268e-05       2.048692970592e-02 
       3.313278604643e-05       2.206225513594e-02 
       3.577595943165e-05       2.375870704909e-02 
       3.862999240274e-05       2.558560727479e-02 
       4.171170631739e-05       2.755297763344e-02 
       4.503926445983e-05       2.967161927315e-02 
       4.863227909323e-05       3.195316450832e-02 
       5.251192705226e-05       3.441013519284e-02 
       5.670107455699e-05       3.705601722528e-02 
       6.122441198393e-05       3.990533413561e-02 
       6.610859938837e-05       4.297372168203e-02 
       7.138242363583e-05       4.627802141688e-02 
       7.707696806873e-05       4.983636194159e-02 
       8.322579570814e-05       5.366826847231e-02 
       8.986514707061e-05       5.779476394569e-02 
       9.703415376577e-05       6.223848243885e-02 
       1.047750691338e-04       6.702379865640e-02 
       1.131335172818e-04       7.217695153381e-02 
       1.221587619877e-04       7.772619073573e-02 
       1.319039970550e-04       8.370193432376e-02 
       1.424266598317e-04       9.013692507549e-02 
       1.537887697396e-04       9.706641242570e-02 
       1.660572938097e-04       1.045283354271e-01 
       1.793045413791e-04       1.125635349068e-01 
       1.936085902737e-04       1.212159614968e-01 
       2.090537469909e-04       1.305329132714e-01 
       2.257310435923e-04       1.405652846215e-01 
       2.437387742372e-04       1.513678302540e-01 
       2.631830745176e-04       1.629994504871e-01 
       2.841785470091e-04       1.755234921224e-01 
       3.068489367268e-04       1.890080670413e-01 
       3.313278604643e-04       2.035264002435e-01 
       3.577595943165e-04       2.191571803681e-01 
       3.862999240274e-04       2.359849437592e-01 
       4.171170631739e-04       2.541004741539e-01 
       4.503926445983e-04       2.736012080278e-01 
       4.863227909323e-04       2.945916790965e-01 
       5.251192705226e-04       3.171839525182e-01 
       5.670107455699e-04       3.414980764002e-01 
       6.122441198393e-04       3.676625413100e-01 
       6.610859938837e-04       3.958147252304e-01 
       7.138242363583e-04       4.261013284920e-01 
       7.707696806873e-04       4.586787792354e-01 
       8.322579570814e-04       4.937136001372e-01 
       8.986514707061e-04       5.313826801402e-01 
       9.703415376577e-04       5.718734972157e-01 
       1.047750691338e-03       6.153841629505e-01 
       1.131335172818e-03       6.621233239466e-01 
       1.221587619877e-03       7.123098220431e-01 
       1.319039970550e-03       7.661720584380e-01 
       1.424266598317e-03       8.239546297730e-01 
       1.537887697396e-03       8.859011173466e-01 
       1.660572938097e-03       9.522588006420e-01 
       1.793045413791e-03       1.023280099819e+00 
       1.936085902737e-03       1.099216304579e+00 
       2.090537469909e-03       1.180312990453e+00 
       2.257310435923e-03       1.266804115849e+00 
       2.437387742372e-03       1.358904853405e+00 
       2.631830745176e-03       1.456802683156e+00 
       2.841785470091e-03       1.560646890521e+00 
       3.068489367268e-03       1.670536062498e+00 
       3.313278604643e-03       1.786503852166e+00 
       3.577595943165e-03       1.908502930786e+00 
       3.862999240274e-03       2.036387730709e+00 
       4.171170631739e-03       2.169896178840e+00 
       4.503926445983e-03       2.308631878993e+00 
       4.863227909323e-03       2.452047290961e+00 
       5.251192705226e-03       2.599430628087e+00 
       5.670107455699e-03       2.749896931818e+00 
       6.122441198393e-03       2.902386513384e+00 
       6.610859938837e-03       3.055668698033e+00 
       7.138242363583e-03       3.208356461541e+00 
       7.707696806873e-03       3.358923892652e+00 
       8.322579570814e-03       3.505725595371e+00 
       8.986514707061e-03       3.647009909940e+00 
       9.703415376577e-03       3.780923304272e+00 
       1.047750691338e-02       3.905491003480e+00 
       1.131335172818e-02       4.018587970222e+00 
       1.221587619877e-02       4.117901585790e+00 
       1.319039970550e-02       4.200915330726e+00 
       1.424266598317e-02       4.264943463550e+00 
       1.537887697392e-02       4.307218737031e+00 
       1.660572938023e-02       4.325063044819e+00 
       1.793045412706e-02       4.316058898109e+00 
       1.936085890181e-02       4.278227483952e+00 
       2.090537352463e-02       4.210200758790e+00 
       2.257309535333e-02       4.111423929443e+00 
       2.437382002918e-02       3.982417708271e+00 
       2.631799944462e-02       3.825171467271e+00 
       2.841644545389e-02       3.643280818417e+00 
       3.067933355377e-02       3.442205778363e+00 
       3.311368470740e-02       3.229235773234e+00 
       3.571840443502e-02       3.013524089415e+00 
       3.847720348444e-02       2.805268353695e+00 
       4.135335538431e-02       2.614410532258e+00 
       4.429361667738e-02       2.448135388461e+00 
       4.724366439141e-02       2.309241434385e+00 
       5.016480835311e-02       2.196111035737e+00 
       5.303989620246e-02       2.104366183820e+00 
       5.586870669566e-02       2.028466528341e+00 
       5.866042680613e-02       1.963156343590e+00 
       6.142798932958e-02       1.903781414656e+00 
       6.418496440164e-02       1.846475163416e+00 
       6.694418833788e-02       1.788198982742e+00 
       6.971731106057e-02       1.726719063459e+00 
       7.251476155766e-02       1.660649921425e+00 
       7.534587671527e-02       1.589473234287e+00 
       7.821907666265e-02       1.513439401500e+00 
       8.114203772912e-02       1.433570282424e+00 
       8.412184535029e-02       1.351492231858e+00 
       8.716512279304e-02       1.269273785515e+00 
       9.027813695930e-02       1.189194573879e+00 
       9.346688431697e-02       1.113498858731e+00 
       9.673716028276e-02       1.044176741080e+00 
       1.000946150830e-01       9.827083514801e-01 
       1.035447986537e-01       9.299387437771e-01 
       1.070931966762e-01       8.859585448283e-01 
       1.107452594425e-01       8.500697399429e-01 
       1.145064249153e-01       8.208029410316e-01 
       1.183821370918e-01       7.960246683019e-01 
       1.223778605862e-01       7.731445658542e-01 
       1.264990921987e-01       7.494518327201e-01 
       1.307513701367e-01       7.225573434661e-01 
       1.351402814784e-01       6.909097804450e-01 
       1.396714684203e-01       6.541807318551e-01 
       1.443506338194e-01       6.134286256405e-01 
       1.491835465229e-01       5.708666767455e-01 
       1.541760469708e-01       5.293646041699e-01 
       1.593340535561e-01       4.917108232735e-01 
       1.646635702297e-01       4.599203107627e-01 
       1.701706958456e-01       4.347284361953e-01 
       1.758616357459e-01       4.154073240915e-01 
       1.817427160982e-01       3.999372178466e-01 
       1.878204015065e-01       3.856827361975e-01 
       1.941013164283e-01       3.698097033405e-01 
       2.005922709503e-01       3.505464546992e-01 
       2.073002914972e-01       3.280433717182e-01 
       2.142326570816e-01       3.042128326214e-01 
       2.213969417533e-01       2.816108627456e-01 
       2.288010639706e-01       2.622567882614e-01 
       2.364533437147e-01       2.469618208485e-01 
       2.443625682930e-01       2.350134783123e-01 
       2.525380679504e-01       2.244169021855e-01 
       2.609898026346e-01       2.130934862741e-01 
       2.697284615565e-01       2.001020390741e-01 
       2.787655775689e-01       1.860196271459e-01 
       2.881136588829e-01       1.725177890623e-01 
       2.977863412677e-01       1.610661615750e-01 
       3.077985646929e-01       1.517610550430e-01 
       3.181667794071e-01       1.435597115759e-01 
       3.289091877812e-01       1.351813665736e-01 
       3.400460299658e-01       1.261643938718e-01 
       3.515999236474e-01       1.172019755033e-01 
       3.635962711085e-01       1.091768152159e-01 
       3.760637506334e-01       1.023094513061e-01 
       3.890349143879e-01       9.593800191271e-02 
       4.025469216825e-01       8.950807571010e-02 
       4.166424456376e-01       8.311180854805e-02 
       4.313708035863e-01       7.721564614206e-02 
       4.467893782977e-01       7.190055703868e-02 
       4.629654199664e-01       6.686919466194e-02 
       4.799783501994e-01       6.191759004636e-02 
       4.979227319373e-01       5.722215545578e-02 
       5.169121270864e-01       5.290278144004e-02 
       5.370841404489e-01       4.876965699346e-02 
       5.586070464571e-01       4.479089226759e-02 
       5.816885094930e-01       4.105188509205e-02 
       6.065870144995e-01       3.748998836954e-02 
       6.336266468475e-01       3.407624513198e-02 
       6.632156059511e-01       3.083460757785e-02 
       6.958678639263e-01       2.772829926136e-02 
       7.322247985589e-01       2.476715351071e-02 
       7.730680195114e-01       2.193957942318e-02 
       8.193049553677e-01       1.925614171524e-02 
       8.718988016039e-01       1.672923360885e-02 
       9.317218031082e-01       1.438423445930e-02 
       9.993660908989e-01       1.225064564700e-02 
       1.075037110174e+00       1.035260761848e-02 
       1.158653485707e+00       8.699731102291e-03 
       1.250099157308e+00       7.284597177073e-03 
       1.349432401273e+00       6.085458649414e-03 
       1.456947457397e+00       5.075722954764e-03 
       1.573135111331e+00       4.228285700625e-03 
       1.698621895592e+00       3.518539449418e-03 
       1.834127512934e+00       2.924985776271e-03 
       1.980444934528e+00       2.429159458274e-03 
       2.138435191726e+00       2.015503575444e-03 
       2.309029199186e+00       1.670769619544e-03 
       2.493232377687e+00       1.383786667477e-03 
       2.692130395285e+00       1.145127292113e-03 
       2.906895534573e+00       9.468551662286e-04 
       3.138793597714e+00       7.822873405291e-04 
       3.389191366484e+00       6.458199986562e-04 
       3.659564657905e+00       5.327667981160e-04 
       3.951507022538e+00       4.391859975778e-04 
       4.266739136701e+00       3.617870252443e-04 
       4.607118943941e+00       2.978264229940e-04 
       4.974652605557e+00       2.450113779145e-04 
       5.371506324689e+00       2.014354640629e-04 
       5.800019113685e+00       1.655052810303e-04 
       6.262716579983e+00       1.359025890044e-04 
       6.762325811764e+00       1.115282276045e-04 
       7.301791451110e+00       9.147406193810e-05 
       7.884293049406e+00       7.498494079668e-05 
       8.513263807261e+00       6.143456195830e-05 
       9.192410809424e+00       5.030684367757e-05 
       9.925736873929e+00       4.117364127322e-05 
       1.071756414427e+01       3.368179571047e-05 
       1.157255956364e+01       2.754006606791e-05 
       1.249576238137e+01       2.250757702156e-05 
       1.349261385375e+01       1.838611886958e-05 
       1.456898931416e+01       1.501282227214e-05 
       1.573123280165e+01       1.225295606565e-05 
       1.698619445202e+01       9.996334817567e-06 
       1.834127087176e+01       8.151805253778e-06 
       1.980444873285e+01       6.644955117115e-06 
       2.138435184532e+01       5.414528847100e-06 
       2.309029198506e+01       4.410194889800e-06 
       2.493232377636e+01       3.590745925117e-06 
       2.692130395282e+01       2.922462344669e-06 
       2.906895534573e+01       2.377678950675e-06 
       3.138793597714e+01       1.933716708506e-06 
       3.389191366484e+01       1.572108066268e-06 
       3.659564657905e+01       1.277631674413e-06 
       3.951507022538e+01       1.037953281049e-06 
       4.266739136701e+01       8.429275074668e-07 
       4.607118943941e+01       6.843039559714e-07 
       4.974652605557e+01       5.553200975858e-07 
       5.371506324689e+01       4.504763502374e-07 
       5.800019113685e+01       3.652893025528e-07 
       6.262716579983e+01       2.960926323915e-07 
       6.762325811764e+01       2.399032121966e-07 
