# Matter power spectrum P(k) at redshift z=0
# for k=1.04775e-05 to 67.6233 h/Mpc,
# number of wavenumbers equal to 246
#    1:k (h/Mpc)              2:P (Mpc/h)^3        
       1.047750691338e-05       5.020964806754e+01 
       1.131335172818e-05       5.407048206553e+01 
       1.221587619877e-05       5.822819063864e+01 
       1.319039970550e-05       6.270562589683e+01 
       1.424266598317e-05       6.752731788102e+01 
       1.537887697396e-05       7.271977200258e+01 
       1.660572938097e-05       7.831147241542e+01 
       1.793045413791e-05       8.433311815128e+01 
       1.936085902737e-05       9.081778242446e+01 
       2.090537469909e-05       9.780108061342e+01 
       2.257310435923e-05       1.053213197032e+02 
       2.437387742372e-05       1.134197377001e+02 
       2.631830745176e-05       1.221408202816e+02 
       2.841785470091e-05       1.315324720916e+02 
       3.068489367268e-05       1.416462093730e+02 
       3.313278604643e-05       1.525374500691e+02 
       3.577595943165e-05       1.642660687078e+02 
       3.862999240274e-05       1.768963504868e+02 
       4.171170631739e-05       1.904975992460e+02 
       4.503926445983e-05       2.051444490305e+02 
       4.863227909323e-05       2.209171463752e+02 
       5.251192705226e-05       2.379022222314e+02 
       5.670107455699e-05       2.561927925665e+02 
       6.122441198393e-05       2.758890441791e+02 
       6.610859938837e-05       2.970989225466e+02 
       7.138242363583e-05       3.199385558200e+02 
       7.707696806873e-05       3.445329780878e+02 
       8.322579570814e-05       3.710167315928e+02 
       8.986514707061e-05       3.995346440954e+02 
       9.703415376577e-05       4.302425403884e+02 
       1.047750691338e-04       4.633080762974e+02 
       1.131335172818e-04       4.989116267507e+02 
       1.221587619877e-04       5.372471946561e+02 
       1.319039970550e-04       5.785234124632e+02 
       1.424266598317e-04       6.229645930980e+02 
       1.537887697396e-04       6.708118484951e+02 
       1.660572938097e-04       7.223242660219e+02 
       1.793045413791e-04       7.777801552669e+02 
       1.936085902737e-04       8.374783607334e+02 
       2.090537469909e-04       9.017396264495e+02 
       2.257310435923e-04       9.709080260152e+02 
       2.437387742372e-04       1.045352448644e+03 
       2.631830745176e-04       1.125468122836e+03 
       2.841785470091e-04       1.211678179511e+03 
       3.068489367268e-04       1.304435249091e+03 
       3.313278604643e-04       1.404223052541e+03 
       3.577595943165e-04       1.511558013390e+03 
       3.862999240274e-04       1.626990836417e+03 
       4.171170631739e-04       1.751108027370e+03 
       4.503926445983e-04       1.884533381345e+03 
       4.863227909323e-04       2.027929376470e+03 
       5.251192705226e-04       2.181998446367e+03 
       5.670107455699e-04       2.347484100857e+03 
       6.122441198393e-04       2.525171869337e+03 
       6.610859938837e-04       2.715889981401e+03 
       7.138242363583e-04       2.920509686091e+03 
       7.707696806873e-04       3.139945097709e+03 
       8.322579570814e-04       3.375152334395e+03 
       8.986514707061e-04       3.627127828231e+03 
       9.703415376577e-04       3.896905450015e+03 
       1.047750691338e-03       4.185552170976e+03 
       1.131335172818e-03       4.494162426789e+03 
       1.221587619877e-03       4.823850702661e+03 
       1.319039970550e-03       5.175742738807e+03 
       1.424266598317e-03       5.551019592510e+03 
       1.537887697396e-03       5.950788335875e+03 
       1.660572938097e-03       6.376123046789e+03 
       1.793045413791e-03       6.828073896126e+03 
       1.936085902737e-03       7.307625375378e+03 
       2.090537469909e-03       7.815671855843e+03 
       2.257310435923e-03       8.352990369384e+03 
       2.437387742372e-03       8.920211057529e+03 
       2.631830745176e-03       9.517783061867e+03 
       2.841785470091e-03       1.014593703668e+04 
       3.068489367268e-03       1.080464505743e+04 
       3.313278604643e-03       1.149357459540e+04 
       3.577595943165e-03       1.221203620821e+04 
       3.862999240274e-03       1.295892538498e+04 
       4.171170631739e-03       1.373266002249e+04 
       4.503926445983e-03       1.453111834584e+04 
       4.863227909323e-03       1.535154983812e+04 
       5.251192705226e-03       1.619063610978e+04 
       5.670107455699e-03       1.704431256451e+04 
       6.122441198393e-03       1.790755939885e+04 
       6.610859938837e-03       1.877460417731e+04 
       7.138242363583e-03       1.963872433790e+04 
       7.707696806873e-03       2.049215713137e+04 
       8.322579570814e-03       2.132607249674e+04 
       8.986514707061e-03       2.213054615167e+04 
       9.703415376577e-03       2.289445489396e+04 
       1.047750691338e-02       2.360548843605e+04 
       1.131335172818e-02       2.425021945857e+04 
       1.221587619877e-02       2.481423929979e+04 
       1.319039970550e-02       2.528218823064e+04 
       1.424266598317e-02       2.563814541325e+04 
       1.537887697392e-02       2.586607364742e+04 
       1.660572938023e-02       2.595027303039e+04 
       1.793045412706e-02       2.587633553803e+04 
       1.936085890181e-02       2.563219116953e+04 
       2.090537352463e-02       2.520934937391e+04 
       2.257309535333e-02       2.460446836270e+04 
       2.437382002918e-02       2.382087281559e+04 
       2.631799944462e-02       2.287045739245e+04 
       2.841644545389e-02       2.177449706464e+04 
       3.067933355377e-02       2.056557701981e+04 
       3.311368470740e-02       1.928729979594e+04 
       3.571840443502e-02       1.799396965493e+04 
       3.847720348444e-02       1.674689183704e+04 
       4.135335538431e-02       1.560457303215e+04 
       4.429361667738e-02       1.461033171454e+04 
       4.724366439141e-02       1.378049374606e+04 
       5.016480835311e-02       1.310503714708e+04 
       5.303989620246e-02       1.255718701237e+04 
       5.586870669566e-02       1.210428338244e+04 
       5.866042680613e-02       1.171472503570e+04 
       6.142798932958e-02       1.136054568842e+04 
       6.418496440164e-02       1.101863408867e+04 
       6.694418833788e-02       1.067072361566e+04 
       6.971731106057e-02       1.030360312726e+04 
       7.251476155766e-02       9.909070436653e+03 
       7.534587671527e-02       9.483790768991e+03 
       7.821907666265e-02       9.029524121086e+03 
       8.114203772912e-02       8.552367788908e+03 
       8.412184535029e-02       8.061947014842e+03 
       8.716512279304e-02       7.570813438459e+03 
       9.027813695930e-02       7.092494771622e+03 
       9.346688431697e-02       6.640554443624e+03 
       9.673716028276e-02       6.226741982312e+03 
       1.000946150830e-01       5.859982080790e+03 
       1.035447986537e-01       5.545282439814e+03 
       1.070931966762e-01       5.283163205620e+03 
       1.107452594425e-01       5.069433875466e+03 
       1.145064249153e-01       4.895244453206e+03 
       1.183821370918e-01       4.747850159368e+03 
       1.223778605862e-01       4.611738998204e+03 
       1.264990921987e-01       4.470618981906e+03 
       1.307513701367e-01       4.310266385625e+03 
       1.351402814784e-01       4.121293823359e+03 
       1.396714684203e-01       3.901990565019e+03 
       1.443506338194e-01       3.658667694199e+03 
       1.491835465229e-01       3.404483998213e+03 
       1.541760469708e-01       3.156657329393e+03 
       1.593340535561e-01       2.931936835257e+03 
       1.646635702297e-01       2.742360971260e+03 
       1.701706958456e-01       2.592236959933e+03 
       1.758616357459e-01       2.477220291813e+03 
       1.817427160982e-01       2.385165624921e+03 
       1.878204015065e-01       2.300363365538e+03 
       1.941013164283e-01       2.205766423568e+03 
       2.005922709503e-01       2.090827195685e+03 
       2.073002914972e-01       1.956466074311e+03 
       2.142326570816e-01       1.814153589169e+03 
       2.213969417533e-01       1.679270431779e+03 
       2.288010639706e-01       1.563836690369e+03 
       2.364533437147e-01       1.472673310357e+03 
       2.443625682930e-01       1.401505918238e+03 
       2.525380679504e-01       1.338419193726e+03 
       2.609898026346e-01       1.270898163543e+03 
       2.697284615565e-01       1.193363768646e+03 
       2.787655775689e-01       1.109328729641e+03 
       2.881136588829e-01       1.028761630393e+03 
       2.977863412677e-01       9.604754600252e+02 
       3.077985646929e-01       9.050182393627e+02 
       3.181667794071e-01       8.561369814676e+02 
       3.289091877812e-01       8.061825834768e+02 
       3.400460299658e-01       7.523832751570e+02 
       3.515999236474e-01       6.989140278768e+02 
       3.635962711085e-01       6.510559753904e+02 
       3.760637506334e-01       6.101188246557e+02 
       3.890349143879e-01       5.721270364187e+02 
       4.025469216825e-01       5.337766200776e+02 
       4.166424456376e-01       4.956231072513e+02 
       4.313708035863e-01       4.604665780913e+02 
       4.467893782977e-01       4.287696088324e+02 
       4.629654199664e-01       3.987698856190e+02 
       4.799783501994e-01       3.692365284712e+02 
       4.979227319373e-01       3.412360364946e+02 
       5.169121270864e-01       3.154785097473e+02 
       5.370841404489e-01       2.908311864706e+02 
       5.586070464571e-01       2.671021131028e+02 
       5.816885094930e-01       2.448054693855e+02 
       6.065870144995e-01       2.235660361095e+02 
       6.336266468475e-01       2.032085732287e+02 
       6.632156059511e-01       1.838771811615e+02 
       6.958678639263e-01       1.653528810901e+02 
       7.322247985589e-01       1.476938642159e+02 
       7.730680195114e-01       1.308330946357e+02 
       8.193049553677e-01       1.148301985586e+02 
       8.718988016039e-01       9.976166423682e+01 
       9.317218031082e-01       8.577633741017e+01 
       9.993660908989e-01       7.305342843689e+01 
       1.075037110174e+00       6.173458544084e+01 
       1.158653485707e+00       5.187743128782e+01 
       1.250099157308e+00       4.343852346263e+01 
       1.349432401273e+00       3.628774723567e+01 
       1.456947457397e+00       3.026617954776e+01 
       1.573135111331e+00       2.521265366547e+01 
       1.698621895592e+00       2.097984641569e+01 
       1.834127512934e+00       1.744022335360e+01 
       1.980444934528e+00       1.448320167450e+01 
       2.138435191726e+00       1.201620009540e+01 
       2.309029199186e+00       9.960306692157e+00 
       2.493232377687e+00       8.248736261201e+00 
       2.692130395285e+00       6.825189704933e+00 
       2.906895534573e+00       5.642598751097e+00 
       3.138793597714e+00       4.660885375125e+00 
       3.389191366484e+00       3.846756084136e+00 
       3.659564657905e+00       3.172187055668e+00 
       3.951507022538e+00       2.613717463019e+00 
       4.266739136701e+00       2.151725009693e+00 
       4.607118943941e+00       1.769832563507e+00 
       4.974652605557e+00       1.454353256076e+00 
       5.371506324689e+00       1.193921652806e+00 
       5.800019113685e+00       9.790692869099e-01 
       6.262716579983e+00       8.018927983080e-01 
       6.762325811764e+00       6.558613598119e-01 
       7.301791451110e+00       5.355446458804e-01 
       7.884293049406e+00       4.364463630729e-01 
       8.513263807261e+00       3.548397526500e-01 
       9.192410809424e+00       2.876487269723e-01 
       9.925736873929e+00       2.323317552257e-01 
       1.071756414427e+01       1.867883149003e-01 
       1.157255956364e+01       1.492968446030e-01 
       1.249576238137e+01       1.184422587070e-01 
       1.349261385375e+01       9.306643948191e-02 
       1.456898931416e+01       7.222308519499e-02 
       1.573123280165e+01       5.514698527720e-02 
       1.698619445202e+01       4.122063210102e-02 
       1.834127087176e+01       2.994906595641e-02 
       1.980444873285e+01       2.093841947395e-02 
       2.138435184532e+01       1.387464399280e-02 
       2.309029198506e+01       8.505633770879e-03 
       2.493232377636e+01       4.620747308805e-03 
       2.692130395282e+01       2.033922236485e-03 
       2.906895534573e+01       5.637632356431e-04 
       3.138793597714e+01       1.729302794234e-05 
       3.389191366484e+01       1.771744796565e-04 
       3.659564657905e+01       7.972057180940e-04 
       3.951507022538e+01       1.610195060083e-03 
       4.266739136701e+01       2.351603551521e-03 
       4.607118943941e+01       2.798074259286e-03 
       4.974652605557e+01       2.814697799489e-03 
       5.371506324689e+01       2.394821609092e-03 
       5.800019113685e+01       1.671696327930e-03 
       6.262716579983e+01       8.818449320681e-04 
       6.762325811764e+01       2.768106146538e-04 
