# Matter power spectrum P(k) at redshift z=99
# for k=1.04775e-05 to 67.6233 h/Mpc,
# number of wavenumbers equal to 246
#    1:k (h/Mpc)              2:P (Mpc/h)^3        
       1.047750691338e-05       7.261927673119e-03 
       1.131335172818e-05       7.820331745737e-03 
       1.221587619877e-05       8.421675986488e-03 
       1.319039970550e-05       9.069258192194e-03 
       1.424266598317e-05       9.766638404421e-03 
       1.537887697396e-05       1.051764069682e-02 
       1.660572938097e-05       1.132639105520e-02 
       1.793045413791e-05       1.219733231416e-02 
       1.936085902737e-05       1.313524224380e-02 
       2.090537469909e-05       1.414527121893e-02 
       2.257310435923e-05       1.523296272192e-02 
       2.437387742372e-05       1.640429444530e-02 
       2.631830745176e-05       1.766569582177e-02 
       2.841785470091e-05       1.902408601793e-02 
       3.068489367268e-05       2.048692970591e-02 
       3.313278604643e-05       2.206225513594e-02 
       3.577595943165e-05       2.375870704909e-02 
       3.862999240274e-05       2.558560727479e-02 
       4.171170631739e-05       2.755297763344e-02 
       4.503926445983e-05       2.967161927316e-02 
       4.863227909323e-05       3.195316450832e-02 
       5.251192705226e-05       3.441013519284e-02 
       5.670107455699e-05       3.705601722526e-02 
       6.122441198393e-05       3.990533413560e-02 
       6.610859938837e-05       4.297372168203e-02 
       7.138242363583e-05       4.627802141688e-02 
       7.707696806873e-05       4.983636194159e-02 
       8.322579570814e-05       5.366826847231e-02 
       8.986514707061e-05       5.779476394569e-02 
       9.703415376577e-05       6.223848243885e-02 
       1.047750691338e-04       6.702379865640e-02 
       1.131335172818e-04       7.217695153381e-02 
       1.221587619877e-04       7.772619073572e-02 
       1.319039970550e-04       8.370193432376e-02 
       1.424266598317e-04       9.013692507549e-02 
       1.537887697396e-04       9.706641242570e-02 
       1.660572938097e-04       1.045283354271e-01 
       1.793045413791e-04       1.125635349068e-01 
       1.936085902737e-04       1.212159614968e-01 
       2.090537469909e-04       1.305329132714e-01 
       2.257310435923e-04       1.405652846215e-01 
       2.437387742372e-04       1.513678302540e-01 
       2.631830745176e-04       1.629994504871e-01 
       2.841785470091e-04       1.755234921224e-01 
       3.068489367268e-04       1.890080670413e-01 
       3.313278604643e-04       2.035264002435e-01 
       3.577595943165e-04       2.191571803681e-01 
       3.862999240274e-04       2.359849437594e-01 
       4.171170631739e-04       2.541004741539e-01 
       4.503926445983e-04       2.736012080277e-01 
       4.863227909323e-04       2.945916790965e-01 
       5.251192705226e-04       3.171839525183e-01 
       5.670107455699e-04       3.414980764002e-01 
       6.122441198393e-04       3.676625413100e-01 
       6.610859938837e-04       3.958147252304e-01 
       7.138242363583e-04       4.261013284915e-01 
       7.707696806873e-04       4.586787792354e-01 
       8.322579570814e-04       4.937136001344e-01 
       8.986514707061e-04       5.313826801402e-01 
       9.703415376577e-04       5.718734972157e-01 
       1.047750691338e-03       6.153841629505e-01 
       1.131335172818e-03       6.621233239466e-01 
       1.221587619877e-03       7.123098220431e-01 
       1.319039970550e-03       7.661720584343e-01 
       1.424266598317e-03       8.239546297730e-01 
       1.537887697396e-03       8.859011173466e-01 
       1.660572938097e-03       9.522588006423e-01 
       1.793045413791e-03       1.023280099819e+00 
       1.936085902737e-03       1.099216304579e+00 
       2.090537469909e-03       1.180312990453e+00 
       2.257310435923e-03       1.266804115852e+00 
       2.437387742372e-03       1.358904853404e+00 
       2.631830745176e-03       1.456802683156e+00 
       2.841785470091e-03       1.560646890522e+00 
       3.068489367268e-03       1.670536062499e+00 
       3.313278604643e-03       1.786503852160e+00 
       3.577595943165e-03       1.908502930789e+00 
       3.862999240274e-03       2.036387730709e+00 
       4.171170631739e-03       2.169896178473e+00 
       4.503926445983e-03       2.308631878994e+00 
       4.863227909323e-03       2.452047290962e+00 
       5.251192705226e-03       2.599430628088e+00 
       5.670107455699e-03       2.749896931857e+00 
       6.122441198393e-03       2.902386513384e+00 
       6.610859938837e-03       3.055668711173e+00 
       7.138242363583e-03       3.208356461546e+00 
       7.707696806873e-03       3.358923892853e+00 
       8.322579570814e-03       3.505725167082e+00 
       8.986514707061e-03       3.647009247978e+00 
       9.703415376577e-03       3.780923304279e+00 
       1.047750691338e-02       3.905491026579e+00 
       1.131335172818e-02       4.018587641363e+00 
       1.221587619877e-02       4.117901587436e+00 
       1.319039970550e-02       4.200915468223e+00 
       1.424266598317e-02       4.264942526741e+00 
       1.537887697392e-02       4.307218127213e+00 
       1.660572938023e-02       4.325061175638e+00 
       1.793045412706e-02       4.316057669681e+00 
       1.936085890181e-02       4.278230120909e+00 
       2.090537352463e-02       4.210204662726e+00 
       2.257309535333e-02       4.111412397959e+00 
       2.437382002918e-02       3.982421149718e+00 
       2.631799944462e-02       3.825172838666e+00 
       2.841644545389e-02       3.643283935187e+00 
       3.067933355377e-02       3.442196853566e+00 
       3.311368470740e-02       3.229242593554e+00 
       3.571840443502e-02       3.013514502154e+00 
       3.847720348444e-02       2.805288463249e+00 
       4.135335538431e-02       2.614401552358e+00 
       4.429361667738e-02       2.448127898699e+00 
       4.724366439141e-02       2.309233392596e+00 
       5.016480835311e-02       2.196115299794e+00 
       5.303989620246e-02       2.104365801609e+00 
       5.586870669566e-02       2.028462125671e+00 
       5.866042680613e-02       1.963153740827e+00 
       6.142798932958e-02       1.903776249991e+00 
       6.418496440164e-02       1.846482596321e+00 
       6.694418833788e-02       1.788200374411e+00 
       6.971731106057e-02       1.726713419305e+00 
       7.251476155766e-02       1.660654033232e+00 
       7.534587671527e-02       1.589469814909e+00 
       7.821907666265e-02       1.513438425194e+00 
       8.114203772912e-02       1.433570082749e+00 
       8.412184535029e-02       1.351490391744e+00 
       8.716512279304e-02       1.269272489568e+00 
       9.027813695930e-02       1.189194595801e+00 
       9.346688431697e-02       1.113500902471e+00 
       9.673716028276e-02       1.044176319103e+00 
       1.000946150830e-01       9.827069057640e-01 
       1.035447986537e-01       9.299405045665e-01 
       1.070931966762e-01       8.859603209619e-01 
       1.107452594425e-01       8.500716323271e-01 
       1.145064249153e-01       8.208045757602e-01 
       1.183821370918e-01       7.960255451038e-01 
       1.223778605862e-01       7.731456762497e-01 
       1.264990921987e-01       7.494526105808e-01 
       1.307513701367e-01       7.225581773173e-01 
       1.351402814784e-01       6.909097290864e-01 
       1.396714684203e-01       6.541809581542e-01 
       1.443506338194e-01       6.134265675103e-01 
       1.491835465229e-01       5.708679570190e-01 
       1.541760469708e-01       5.293634628708e-01 
       1.593340535561e-01       4.917099202593e-01 
       1.646635702297e-01       4.599200570633e-01 
       1.701706958456e-01       4.347289590567e-01 
       1.758616357459e-01       4.154084068172e-01 
       1.817427160982e-01       3.999364642511e-01 
       1.878204015065e-01       3.856833660021e-01 
       1.941013164283e-01       3.698093830149e-01 
       2.005922709503e-01       3.505465692672e-01 
       2.073002914972e-01       3.280436431801e-01 
       2.142326570816e-01       3.042137536682e-01 
       2.213969417533e-01       2.816125000520e-01 
       2.288010639706e-01       2.622574037629e-01 
       2.364533437147e-01       2.469622993067e-01 
       2.443625682930e-01       2.350129161877e-01 
       2.525380679504e-01       2.244180507670e-01 
       2.609898026346e-01       2.130935658279e-01 
       2.697284615565e-01       2.001017138981e-01 
       2.787655775689e-01       1.860201794926e-01 
       2.881136588829e-01       1.725170897277e-01 
       2.977863412677e-01       1.610663118942e-01 
       3.077985646929e-01       1.517613900149e-01 
       3.181667794071e-01       1.435595058982e-01 
       3.289091877812e-01       1.351818389529e-01 
       3.400460299658e-01       1.261645040176e-01 
       3.515999236474e-01       1.172022928179e-01 
       3.635962711085e-01       1.091769423591e-01 
       3.760637506334e-01       1.023096755695e-01 
       3.890349143879e-01       9.593789621697e-02 
       4.025469216825e-01       8.950773931353e-02 
       4.166424456376e-01       8.311173242208e-02 
       4.313708035863e-01       7.721533596727e-02 
       4.467893782977e-01       7.190056869513e-02 
       4.629654199664e-01       6.686908381400e-02 
       4.799783501994e-01       6.191748577399e-02 
       4.979227319373e-01       5.722216597515e-02 
       5.169121270864e-01       5.290297259422e-02 
       5.370841404489e-01       4.876984895648e-02 
       5.586070464571e-01       4.479097574387e-02 
       5.816885094930e-01       4.105185911354e-02 
       6.065870144995e-01       3.749003616520e-02 
       6.336266468475e-01       3.407631484535e-02 
       6.632156059511e-01       3.083456863362e-02 
       6.958678639263e-01       2.772835282644e-02 
       7.322247985589e-01       2.476715752613e-02 
       7.730680195114e-01       2.193955771769e-02 
       8.193049553677e-01       1.925621927405e-02 
       8.718988016039e-01       1.672939101775e-02 
       9.317218031082e-01       1.438421026960e-02 
       9.993660908989e-01       1.225068386345e-02 
       1.075037110174e+00       1.035263384139e-02 
       1.158653485707e+00       8.699692110891e-03 
       1.250099157308e+00       7.284613951480e-03 
       1.349432401273e+00       6.085482071128e-03 
       1.456947457397e+00       5.075725462730e-03 
       1.573135111331e+00       4.228300470060e-03 
       1.698621895592e+00       3.518541452848e-03 
       1.834127512934e+00       2.924983317986e-03 
       1.980444934528e+00       2.429173059848e-03 
       2.138435191726e+00       2.015519967509e-03 
       2.309029199186e+00       1.670777376970e-03 
       2.493232377687e+00       1.383796967885e-03 
       2.692130395285e+00       1.145128922561e-03 
       2.906895534573e+00       9.468645175251e-04 
       3.138793597714e+00       7.822958728880e-04 
       3.389191366484e+00       6.458210807746e-04 
       3.659564657905e+00       5.327712187535e-04 
       3.951507022538e+00       4.391866078416e-04 
       4.266739136701e+00       3.617870370860e-04 
       4.607118943941e+00       2.978297751517e-04 
       4.974652605557e+00       2.450116852192e-04 
       5.371506324689e+00       2.014359443196e-04 
       5.800019113685e+00       1.655051985253e-04 
       6.262716579983e+00       1.359043735984e-04 
       6.762325811764e+00       1.115302140143e-04 
       7.301791451110e+00       9.147637292423e-05 
       7.884293049406e+00       7.498627381464e-05 
       8.513263807261e+00       6.143652661520e-05 
       9.192410809424e+00       5.030803451071e-05 
       9.925736873929e+00       4.117514594602e-05 
       1.071756414427e+01       3.368343905927e-05 
       1.157255956364e+01       2.754135230245e-05 
       1.249576238137e+01       2.250902828955e-05 
       1.349261385375e+01       1.838741394826e-05 
       1.456898931416e+01       1.501413686008e-05 
       1.573123280165e+01       1.225431861877e-05 
       1.698619445202e+01       9.997496992555e-06 
       1.834127087176e+01       8.153017714879e-06 
       1.980444873285e+01       6.646171675568e-06 
       2.138435184532e+01       5.415623617555e-06 
       2.309029198506e+01       4.411306456494e-06 
       2.493232377636e+01       3.591839616085e-06 
       2.692130395282e+01       2.923525089810e-06 
       2.906895534573e+01       2.378702872649e-06 
       3.138793597714e+01       1.934723038381e-06 
       3.389191366484e+01       1.573069880593e-06 
       3.659564657905e+01       1.278568293119e-06 
       3.951507022538e+01       1.038865440444e-06 
       4.266739136701e+01       8.438162664191e-07 
       4.607118943941e+01       6.851525217420e-07 
       4.974652605557e+01       5.561469973149e-07 
       5.371506324689e+01       4.512870033674e-07 
       5.800019113685e+01       3.660727383209e-07 
       6.262716579983e+01       2.968500726297e-07 
       6.762325811764e+01       2.406380188059e-07 
