# Matter power spectrum P(k) at redshift z=0
# for k=1.04775e-05 to 67.6233 h/Mpc,
# number of wavenumbers equal to 246
#    1:k (h/Mpc)              2:P (Mpc/h)^3        
       1.047750691338e-05       5.020964806751e+01 
       1.131335172818e-05       5.407048206554e+01 
       1.221587619877e-05       5.822819063852e+01 
       1.319039970550e-05       6.270562589670e+01 
       1.424266598317e-05       6.752731788102e+01 
       1.537887697396e-05       7.271977200257e+01 
       1.660572938097e-05       7.831147241542e+01 
       1.793045413791e-05       8.433311815128e+01 
       1.936085902737e-05       9.081778242446e+01 
       2.090537469909e-05       9.780108061339e+01 
       2.257310435923e-05       1.053213197032e+02 
       2.437387742372e-05       1.134197377001e+02 
       2.631830745176e-05       1.221408202816e+02 
       2.841785470091e-05       1.315324720916e+02 
       3.068489367268e-05       1.416462093730e+02 
       3.313278604643e-05       1.525374500691e+02 
       3.577595943165e-05       1.642660687078e+02 
       3.862999240274e-05       1.768963504868e+02 
       4.171170631739e-05       1.904975992460e+02 
       4.503926445983e-05       2.051444490305e+02 
       4.863227909323e-05       2.209171463752e+02 
       5.251192705226e-05       2.379022222314e+02 
       5.670107455699e-05       2.561927925485e+02 
       6.122441198393e-05       2.758890441791e+02 
       6.610859938837e-05       2.970989225467e+02 
       7.138242363583e-05       3.199385558200e+02 
       7.707696806873e-05       3.445329780878e+02 
       8.322579570814e-05       3.710167315928e+02 
       8.986514707061e-05       3.995346440954e+02 
       9.703415376577e-05       4.302425403884e+02 
       1.047750691338e-04       4.633080762974e+02 
       1.131335172818e-04       4.989116267507e+02 
       1.221587619877e-04       5.372471946561e+02 
       1.319039970550e-04       5.785234124636e+02 
       1.424266598317e-04       6.229645930980e+02 
       1.537887697396e-04       6.708118484951e+02 
       1.660572938097e-04       7.223242660220e+02 
       1.793045413791e-04       7.777801557699e+02 
       1.936085902737e-04       8.374783607333e+02 
       2.090537469909e-04       9.017396264495e+02 
       2.257310435923e-04       9.709080260152e+02 
       2.437387742372e-04       1.045352448644e+03 
       2.631830745176e-04       1.125468122836e+03 
       2.841785470091e-04       1.211678179511e+03 
       3.068489367268e-04       1.304435249091e+03 
       3.313278604643e-04       1.404223052541e+03 
       3.577595943165e-04       1.511558013390e+03 
       3.862999240274e-04       1.626990836447e+03 
       4.171170631739e-04       1.751108027370e+03 
       4.503926445983e-04       1.884533381345e+03 
       4.863227909323e-04       2.027929376469e+03 
       5.251192705226e-04       2.181998446367e+03 
       5.670107455699e-04       2.347484100857e+03 
       6.122441198393e-04       2.525171869337e+03 
       6.610859938837e-04       2.715889981400e+03 
       7.138242363583e-04       2.920509686089e+03 
       7.707696806873e-04       3.139945097711e+03 
       8.322579570814e-04       3.375152334397e+03 
       8.986514707061e-04       3.627127828231e+03 
       9.703415376577e-04       3.896905450016e+03 
       1.047750691338e-03       4.185552170957e+03 
       1.131335172818e-03       4.494162426791e+03 
       1.221587619877e-03       4.823850702667e+03 
       1.319039970550e-03       5.175742739271e+03 
       1.424266598317e-03       5.551019592516e+03 
       1.537887697396e-03       5.950788335884e+03 
       1.660572938097e-03       6.376123046808e+03 
       1.793045413791e-03       6.828073896120e+03 
       1.936085902737e-03       7.307625375387e+03 
       2.090537469909e-03       7.815671908602e+03 
       2.257310435923e-03       8.352990369403e+03 
       2.437387742372e-03       8.920211057510e+03 
       2.631830745176e-03       9.517783061890e+03 
       2.841785470091e-03       1.014593703671e+04 
       3.068489367268e-03       1.080464505741e+04 
       3.313278604643e-03       1.149357459544e+04 
       3.577595943165e-03       1.221203620826e+04 
       3.862999240274e-03       1.295892538506e+04 
       4.171170631739e-03       1.373266002295e+04 
       4.503926445983e-03       1.453111834595e+04 
       4.863227909323e-03       1.535154984227e+04 
       5.251192705226e-03       1.619063613436e+04 
       5.670107455699e-03       1.704431256619e+04 
       6.122441198393e-03       1.790755938458e+04 
       6.610859938837e-03       1.877460398956e+04 
       7.138242363583e-03       1.963872429095e+04 
       7.707696806873e-03       2.049215713244e+04 
       8.322579570814e-03       2.132607143953e+04 
       8.986514707061e-03       2.213055076852e+04 
       9.703415376577e-03       2.289445470787e+04 
       1.047750691338e-02       2.360548148635e+04 
       1.131335172818e-02       2.425022856804e+04 
       1.221587619877e-02       2.481423924816e+04 
       1.319039970550e-02       2.528218770696e+04 
       1.424266598317e-02       2.563814194680e+04 
       1.537887697392e-02       2.586606883845e+04 
       1.660572938023e-02       2.595025309259e+04 
       1.793045412706e-02       2.587634005086e+04 
       1.936085890181e-02       2.563218542593e+04 
       2.090537352463e-02       2.520934196329e+04 
       2.257309535333e-02       2.460445198855e+04 
       2.437382002918e-02       2.382085793070e+04 
       2.631799944462e-02       2.287044874160e+04 
       2.841644545389e-02       2.177452739989e+04 
       3.067933355377e-02       2.056554130935e+04 
       3.311368470740e-02       1.928731209409e+04 
       3.571840443502e-02       1.799403733090e+04 
       3.847720348444e-02       1.674684502522e+04 
       4.135335538431e-02       1.560464408098e+04 
       4.429361667738e-02       1.461035606943e+04 
       4.724366439141e-02       1.378053912412e+04 
       5.016480835311e-02       1.310507305678e+04 
       5.303989620246e-02       1.255716235948e+04 
       5.586870669566e-02       1.210423146550e+04 
       5.866042680613e-02       1.171464178576e+04 
       6.142798932958e-02       1.136048358539e+04 
       6.418496440164e-02       1.101854235983e+04 
       6.694418833788e-02       1.067068386265e+04 
       6.971731106057e-02       1.030357056550e+04 
       7.251476155766e-02       9.908991966828e+03 
       7.534587671527e-02       9.483790819143e+03 
       7.821907666265e-02       9.029519026496e+03 
       8.114203772912e-02       8.552334511975e+03 
       8.412184535029e-02       8.061954889483e+03 
       8.716512279304e-02       7.570779682277e+03 
       9.027813695930e-02       7.092496614089e+03 
       9.346688431697e-02       6.640502825827e+03 
       9.673716028276e-02       6.226717981399e+03 
       1.000946150830e-01       5.859939345732e+03 
       1.035447986537e-01       5.545275512283e+03 
       1.070931966762e-01       5.283135265484e+03 
       1.107452594425e-01       5.069422900305e+03 
       1.145064249153e-01       4.895250834591e+03 
       1.183821370918e-01       4.747838332132e+03 
       1.223778605862e-01       4.611741911760e+03 
       1.264990921987e-01       4.470612959784e+03 
       1.307513701367e-01       4.310278081484e+03 
       1.351402814784e-01       4.121388116790e+03 
       1.396714684203e-01       3.902058890686e+03 
       1.443506338194e-01       3.658636177975e+03 
       1.491835465229e-01       3.404487234808e+03 
       1.541760469708e-01       3.156677327971e+03 
       1.593340535561e-01       2.931978714486e+03 
       1.646635702297e-01       2.742372585396e+03 
       1.701706958456e-01       2.592263004278e+03 
       1.758616357459e-01       2.477239742335e+03 
       1.817427160982e-01       2.385179722037e+03 
       1.878204015065e-01       2.300360930442e+03 
       1.941013164283e-01       2.205760718323e+03 
       2.005922709503e-01       2.090811835037e+03 
       2.073002914972e-01       1.956470401204e+03 
       2.142326570816e-01       1.814195228553e+03 
       2.213969417533e-01       1.679294520365e+03 
       2.288010639706e-01       1.563847588933e+03 
       2.364533437147e-01       1.472687224103e+03 
       2.443625682930e-01       1.401514858020e+03 
       2.525380679504e-01       1.338413890175e+03 
       2.609898026346e-01       1.270903444788e+03 
       2.697284615565e-01       1.193382592449e+03 
       2.787655775689e-01       1.109338481926e+03 
       2.881136588829e-01       1.028771333276e+03 
       2.977863412677e-01       9.604846057202e+02 
       3.077985646929e-01       9.050257662391e+02 
       3.181667794071e-01       8.561468861905e+02 
       3.289091877812e-01       8.061886734705e+02 
       3.400460299658e-01       7.523914455576e+02 
       3.515999236474e-01       6.989257096251e+02 
       3.635962711085e-01       6.510657762709e+02 
       3.760637506334e-01       6.101232534796e+02 
       3.890349143879e-01       5.721323147724e+02 
       4.025469216825e-01       5.337832559843e+02 
       4.166424456376e-01       4.956329631132e+02 
       4.313708035863e-01       4.604697414424e+02 
       4.467893782977e-01       4.287790892467e+02 
       4.629654199664e-01       3.987732940236e+02 
       4.799783501994e-01       3.692416476495e+02 
       4.979227319373e-01       3.412402980394e+02 
       5.169121270864e-01       3.154849625914e+02 
       5.370841404489e-01       2.908358607610e+02 
       5.586070464571e-01       2.671063221706e+02 
       5.816885094930e-01       2.448107123704e+02 
       6.065870144995e-01       2.235682072009e+02 
       6.336266468475e-01       2.032108278806e+02 
       6.632156059511e-01       1.838791995400e+02 
       6.958678639263e-01       1.653545076380e+02 
       7.322247985589e-01       1.476958906667e+02 
       7.730680195114e-01       1.308342019473e+02 
       8.193049553677e-01       1.148314482737e+02 
       8.718988016039e-01       9.976306736336e+01 
       9.317218031082e-01       8.577828893370e+01 
       9.993660908989e-01       7.305511778546e+01 
       1.075037110174e+00       6.173611890804e+01 
       1.158653485707e+00       5.187942178775e+01 
       1.250099157308e+00       4.344039233417e+01 
       1.349432401273e+00       3.628962727589e+01 
       1.456947457397e+00       3.026813776514e+01 
       1.573135111331e+00       2.521463298383e+01 
       1.698621895592e+00       2.098219994923e+01 
       1.834127512934e+00       1.744248013814e+01 
       1.980444934528e+00       1.448569990742e+01 
       2.138435191726e+00       1.201898992590e+01 
       2.309029199186e+00       9.963228180756e+00 
       2.493232377687e+00       8.251889608476e+00 
       2.692130395285e+00       6.828656524185e+00 
       2.906895534573e+00       5.646291733058e+00 
       3.138793597714e+00       4.664921130847e+00 
       3.389191366484e+00       3.851140260166e+00 
       3.659564657905e+00       3.176983744760e+00 
       3.951507022538e+00       2.618892302133e+00 
       4.266739136701e+00       2.157363864751e+00 
       4.607118943941e+00       1.775950061833e+00 
       4.974652605557e+00       1.461002112421e+00 
       5.371506324689e+00       1.201137679339e+00 
       5.800019113685e+00       9.868920644256e-01 
       6.262716579983e+00       8.103591620078e-01 
       6.762325811764e+00       6.650183305013e-01 
       7.301791451110e+00       5.454283844003e-01 
       7.884293049406e+00       4.471016703363e-01 
       8.513263807261e+00       3.662981078617e-01 
       9.192410809424e+00       2.999432825955e-01 
       9.925736873929e+00       2.454813847335e-01 
       1.071756414427e+01       2.008085843539e-01 
       1.157255956364e+01       1.641850878386e-01 
       1.249576238137e+01       1.341788507464e-01 
       1.349261385375e+01       1.096033245153e-01 
       1.456898931416e+01       8.948908643328e-02 
       1.573123280165e+01       7.303422953871e-02 
       1.698619445202e+01       5.957855579686e-02 
       1.834127087176e+01       4.858155399290e-02 
       1.980444873285e+01       3.959722386644e-02 
       2.138435184532e+01       3.226126538233e-02 
       2.309029198506e+01       2.627342397411e-02 
       2.493232377636e+01       2.138851464820e-02 
       2.692130395282e+01       1.740495200246e-02 
       2.906895534573e+01       1.415747115130e-02 
       3.138793597714e+01       1.151134197646e-02 
       3.389191366484e+01       9.356023727169e-03 
       3.659564657905e+01       7.601280547166e-03 
       3.951507022538e+01       6.173144763911e-03 
       4.266739136701e+01       5.011121213757e-03 
       4.607118943941e+01       4.066249524694e-03 
       4.974652605557e+01       3.298045952399e-03 
       5.371506324689e+01       2.673721229990e-03 
       5.800019113685e+01       2.166593167887e-03 
       6.262716579983e+01       1.754771925781e-03 
       6.762325811764e+01       1.420464482738e-03 
