# Matter power spectrum P(k) at redshift z=0
# for k=1.04775e-05 to 67.6233 h/Mpc,
# number of wavenumbers equal to 246
#    1:k (h/Mpc)              2:P (Mpc/h)^3        
       1.047750691338e-05       5.020964806750e+01 
       1.131335172818e-05       5.407048206553e+01 
       1.221587619877e-05       5.822819063841e+01 
       1.319039970550e-05       6.270562589672e+01 
       1.424266598317e-05       6.752731788102e+01 
       1.537887697396e-05       7.271977200258e+01 
       1.660572938097e-05       7.831147241542e+01 
       1.793045413791e-05       8.433311815128e+01 
       1.936085902737e-05       9.081778242446e+01 
       2.090537469909e-05       9.780108061341e+01 
       2.257310435923e-05       1.053213197032e+02 
       2.437387742372e-05       1.134197377001e+02 
       2.631830745176e-05       1.221408202816e+02 
       2.841785470091e-05       1.315324720916e+02 
       3.068489367268e-05       1.416462093730e+02 
       3.313278604643e-05       1.525374500691e+02 
       3.577595943165e-05       1.642660687078e+02 
       3.862999240274e-05       1.768963504868e+02 
       4.171170631739e-05       1.904975992460e+02 
       4.503926445983e-05       2.051444490305e+02 
       4.863227909323e-05       2.209171463752e+02 
       5.251192705226e-05       2.379022222314e+02 
       5.670107455699e-05       2.561927925420e+02 
       6.122441198393e-05       2.758890441791e+02 
       6.610859938837e-05       2.970989225466e+02 
       7.138242363583e-05       3.199385558200e+02 
       7.707696806873e-05       3.445329780878e+02 
       8.322579570814e-05       3.710167315928e+02 
       8.986514707061e-05       3.995346440954e+02 
       9.703415376577e-05       4.302425403884e+02 
       1.047750691338e-04       4.633080762974e+02 
       1.131335172818e-04       4.989116267507e+02 
       1.221587619877e-04       5.372471946561e+02 
       1.319039970550e-04       5.785234124636e+02 
       1.424266598317e-04       6.229645930980e+02 
       1.537887697396e-04       6.708118484951e+02 
       1.660572938097e-04       7.223242660220e+02 
       1.793045413791e-04       7.777801557339e+02 
       1.936085902737e-04       8.374783607333e+02 
       2.090537469909e-04       9.017396264495e+02 
       2.257310435923e-04       9.709080260151e+02 
       2.437387742372e-04       1.045352448644e+03 
       2.631830745176e-04       1.125468122836e+03 
       2.841785470091e-04       1.211678179510e+03 
       3.068489367268e-04       1.304435249091e+03 
       3.313278604643e-04       1.404223052541e+03 
       3.577595943165e-04       1.511558013390e+03 
       3.862999240274e-04       1.626990836444e+03 
       4.171170631739e-04       1.751108027370e+03 
       4.503926445983e-04       1.884533381345e+03 
       4.863227909323e-04       2.027929376470e+03 
       5.251192705226e-04       2.181998446367e+03 
       5.670107455699e-04       2.347484100856e+03 
       6.122441198393e-04       2.525171869336e+03 
       6.610859938837e-04       2.715889981400e+03 
       7.138242363583e-04       2.920509686096e+03 
       7.707696806873e-04       3.139945097708e+03 
       8.322579570814e-04       3.375152334394e+03 
       8.986514707061e-04       3.627127828229e+03 
       9.703415376577e-04       3.896905450013e+03 
       1.047750691338e-03       4.185552170947e+03 
       1.131335172818e-03       4.494162426786e+03 
       1.221587619877e-03       4.823850702664e+03 
       1.319039970550e-03       5.175742735014e+03 
       1.424266598317e-03       5.551019592505e+03 
       1.537887697396e-03       5.950788335863e+03 
       1.660572938097e-03       6.376123046745e+03 
       1.793045413791e-03       6.828073896098e+03 
       1.936085902737e-03       7.307625375361e+03 
       2.090537469909e-03       7.815671851963e+03 
       2.257310435923e-03       8.352990369356e+03 
       2.437387742372e-03       8.920211057510e+03 
       2.631830745176e-03       9.517783061823e+03 
       2.841785470091e-03       1.014593703663e+04 
       3.068489367268e-03       1.080464505726e+04 
       3.313278604643e-03       1.149357459431e+04 
       3.577595943165e-03       1.221203620809e+04 
       3.862999240274e-03       1.295892538484e+04 
       4.171170631739e-03       1.373266001051e+04 
       4.503926445983e-03       1.453111834561e+04 
       4.863227909323e-03       1.535154982999e+04 
       5.251192705226e-03       1.619063606170e+04 
       5.670107455699e-03       1.704431256202e+04 
       6.122441198393e-03       1.790755942663e+04 
       6.610859938837e-03       1.877460425611e+04 
       7.138242363583e-03       1.963872442870e+04 
       7.707696806873e-03       2.049215712655e+04 
       8.322579570814e-03       2.132611395740e+04 
       8.986514707061e-03       2.213055039060e+04 
       9.703415376577e-03       2.289445523426e+04 
       1.047750691338e-02       2.360548624234e+04 
       1.131335172818e-02       2.425022745608e+04 
       1.221587619877e-02       2.481423937684e+04 
       1.319039970550e-02       2.528218854831e+04 
       1.424266598317e-02       2.563815994528e+04 
       1.537887697392e-02       2.586607016447e+04 
       1.660572938023e-02       2.595027477435e+04 
       1.793045412706e-02       2.587634760916e+04 
       1.936085890181e-02       2.563220342787e+04 
       2.090537352463e-02       2.520936824403e+04 
       2.257309535333e-02       2.460446615842e+04 
       2.437382002918e-02       2.382091919941e+04 
       2.631799944462e-02       2.287052579347e+04 
       2.841644545389e-02       2.177459589574e+04 
       3.067933355377e-02       2.056553307548e+04 
       3.311368470740e-02       1.928727345640e+04 
       3.571840443502e-02       1.799399378806e+04 
       3.847720348444e-02       1.674681986140e+04 
       4.135335538431e-02       1.560455234141e+04 
       4.429361667738e-02       1.461035876052e+04 
       4.724366439141e-02       1.378054386781e+04 
       5.016480835311e-02       1.310505845340e+04 
       5.303989620246e-02       1.255712470567e+04 
       5.586870669566e-02       1.210425028781e+04 
       5.866042680613e-02       1.171470652674e+04 
       6.142798932958e-02       1.136051414039e+04 
       6.418496440164e-02       1.101863014275e+04 
       6.694418833788e-02       1.067069576612e+04 
       6.971731106057e-02       1.030363135975e+04 
       7.251476155766e-02       9.909072400723e+03 
       7.534587671527e-02       9.483727436644e+03 
       7.821907666265e-02       9.029418615128e+03 
       8.114203772912e-02       8.552319628747e+03 
       8.412184535029e-02       8.061958240496e+03 
       8.716512279304e-02       7.570815225461e+03 
       9.027813695930e-02       7.092498918465e+03 
       9.346688431697e-02       6.640509142221e+03 
       9.673716028276e-02       6.226741820160e+03 
       1.000946150830e-01       5.859956586357e+03 
       1.035447986537e-01       5.545269214913e+03 
       1.070931966762e-01       5.283154282455e+03 
       1.107452594425e-01       5.069430912255e+03 
       1.145064249153e-01       4.895256452346e+03 
       1.183821370918e-01       4.747847389752e+03 
       1.223778605862e-01       4.611733383427e+03 
       1.264990921987e-01       4.470624035538e+03 
       1.307513701367e-01       4.310253032821e+03 
       1.351402814784e-01       4.121387949723e+03 
       1.396714684203e-01       3.902054515835e+03 
       1.443506338194e-01       3.658651163048e+03 
       1.491835465229e-01       3.404471854934e+03 
       1.541760469708e-01       3.156644429058e+03 
       1.593340535561e-01       2.931947745737e+03 
       1.646635702297e-01       2.742352681177e+03 
       1.701706958456e-01       2.592237908735e+03 
       1.758616357459e-01       2.477215691638e+03 
       1.817427160982e-01       2.385166011414e+03 
       1.878204015065e-01       2.300343965493e+03 
       1.941013164283e-01       2.205778177193e+03 
       2.005922709503e-01       2.090838948507e+03 
       2.073002914972e-01       1.956465412178e+03 
       2.142326570816e-01       1.814176066407e+03 
       2.213969417533e-01       1.679270663563e+03 
       2.288010639706e-01       1.563833337586e+03 
       2.364533437147e-01       1.472668706380e+03 
       2.443625682930e-01       1.401510481567e+03 
       2.525380679504e-01       1.338418429463e+03 
       2.609898026346e-01       1.270900568202e+03 
       2.697284615565e-01       1.193358715195e+03 
       2.787655775689e-01       1.109330070199e+03 
       2.881136588829e-01       1.028760620197e+03 
       2.977863412677e-01       9.604743875331e+02 
       3.077985646929e-01       9.050153273694e+02 
       3.181667794071e-01       8.561366718629e+02 
       3.289091877812e-01       8.061829989395e+02 
       3.400460299658e-01       7.523809547749e+02 
       3.515999236474e-01       6.989140749991e+02 
       3.635962711085e-01       6.510585114992e+02 
       3.760637506334e-01       6.101181549986e+02 
       3.890349143879e-01       5.721282193577e+02 
       4.025469216825e-01       5.337743139538e+02 
       4.166424456376e-01       4.956228633207e+02 
       4.313708035863e-01       4.604662791880e+02 
       4.467893782977e-01       4.287710453735e+02 
       4.629654199664e-01       3.987685728444e+02 
       4.799783501994e-01       3.692355093607e+02 
       4.979227319373e-01       3.412367232387e+02 
       5.169121270864e-01       3.154778938895e+02 
       5.370841404489e-01       2.908314384844e+02 
       5.586070464571e-01       2.671018907066e+02 
       5.816885094930e-01       2.448049566273e+02 
       6.065870144995e-01       2.235652514653e+02 
       6.336266468475e-01       2.032084656870e+02 
       6.632156059511e-01       1.838770165408e+02 
       6.958678639263e-01       1.653530814373e+02 
       7.322247985589e-01       1.476940498395e+02 
       7.730680195114e-01       1.308326189652e+02 
       8.193049553677e-01       1.148307269277e+02 
       8.718988016039e-01       9.976153141234e+01 
       9.317218031082e-01       8.577672043649e+01 
       9.993660908989e-01       7.305328535698e+01 
       1.075037110174e+00       6.173479480022e+01 
       1.158653485707e+00       5.187784992714e+01 
       1.250099157308e+00       4.343912931977e+01 
       1.349432401273e+00       3.628791620569e+01 
       1.456947457397e+00       3.026680721488e+01 
       1.573135111331e+00       2.521359754900e+01 
       1.698621895592e+00       2.098108380862e+01 
       1.834127512934e+00       1.744135382607e+01 
       1.980444934528e+00       1.448468700420e+01 
       2.138435191726e+00       1.201799579961e+01 
       2.309029199186e+00       9.962247774174e+00 
       2.493232377687e+00       8.250891876213e+00 
       2.692130395285e+00       6.827617428610e+00 
       2.906895534573e+00       5.645352472835e+00 
       3.138793597714e+00       4.663939298140e+00 
       3.389191366484e+00       3.850222839537e+00 
       3.659564657905e+00       3.176079910812e+00 
       3.951507022538e+00       2.618022532612e+00 
       4.266739136701e+00       2.156512913914e+00 
       4.607118943941e+00       1.775096348974e+00 
       4.974652605557e+00       1.460180136298e+00 
       5.371506324689e+00       1.200330047645e+00 
       5.800019113685e+00       9.860936372753e-01 
       6.262716579983e+00       8.095824175155e-01 
       6.762325811764e+00       6.642507847404e-01 
       7.301791451110e+00       5.446839822038e-01 
       7.884293049406e+00       4.463703282607e-01 
       8.513263807261e+00       3.655870284730e-01 
       9.192410809424e+00       2.992478359764e-01 
       9.925736873929e+00       2.448027133815e-01 
       1.071756414427e+01       2.001453200339e-01 
       1.157255956364e+01       1.635394731224e-01 
       1.249576238137e+01       1.335482772515e-01 
       1.349261385375e+01       1.089886562696e-01 
       1.456898931416e+01       8.889152497868e-02 
       1.573123280165e+01       7.245316867578e-02 
       1.698619445202e+01       5.901400968870e-02 
       1.834127087176e+01       4.803314599258e-02 
       1.980444873285e+01       3.906539281929e-02 
       2.138435184532e+01       3.174527108369e-02 
       2.309029198506e+01       2.577388841011e-02 
       2.493232377636e+01       2.090474314015e-02 
       2.692130395282e+01       1.693655984517e-02 
       2.906895534573e+01       1.370491077456e-02 
       3.138793597714e+01       1.107438556489e-02 
       3.389191366484e+01       8.934687621101e-03 
       3.659564657905e+01       7.195165227802e-03 
       3.951507022538e+01       5.782312386941e-03 
       4.266739136701e+01       4.635590256182e-03 
       4.607118943941e+01       3.705795723270e-03 
       4.974652605557e+01       2.952742478788e-03 
       5.371506324689e+01       2.343587433186e-03 
       5.800019113685e+01       1.851623976337e-03 
       6.262716579983e+01       1.454992257635e-03 
       6.762325811764e+01       1.136004730628e-03 
