# Matter power spectrum P(k) at redshift z=0
# for k=1.04775e-05 to 134.926 h/Mpc,
# number of wavenumbers equal to 255
#    1:k (h/Mpc)              2:P (Mpc/h)^3        
       1.047750691338e-05       5.020963906807e+01 
       1.131335172818e-05       5.407048937072e+01 
       1.221587619877e-05       5.822820724053e+01 
       1.319039970550e-05       6.270562046629e+01 
       1.424266598317e-05       6.752731476028e+01 
       1.537887697396e-05       7.271975715440e+01 
       1.660572938097e-05       7.831147100772e+01 
       1.793045413791e-05       8.433312564157e+01 
       1.936085902737e-05       9.081780130679e+01 
       2.090537469909e-05       9.780108044159e+01 
       2.257310435923e-05       1.053212938602e+02 
       2.437387742372e-05       1.134197268469e+02 
       2.631830745176e-05       1.221408285652e+02 
       2.841785470091e-05       1.315324605663e+02 
       3.068489367268e-05       1.416461664342e+02 
       3.313278604643e-05       1.525374480473e+02 
       3.577595943165e-05       1.642660515540e+02 
       3.862999240274e-05       1.768963429593e+02 
       4.171170631739e-05       1.904975997807e+02 
       4.503926445983e-05       2.051444243236e+02 
       4.863227909323e-05       2.209171412039e+02 
       5.251192705226e-05       2.379022265967e+02 
       5.670107455699e-05       2.561927841211e+02 
       6.122441198393e-05       2.758890478480e+02 
       6.610859938837e-05       2.970989214146e+02 
       7.138242363583e-05       3.199385578084e+02 
       7.707696806873e-05       3.445329726997e+02 
       8.322579570814e-05       3.710167323916e+02 
       8.986514707061e-05       3.995346444148e+02 
       9.703415376577e-05       4.302425394729e+02 
       1.047750691338e-04       4.633080773558e+02 
       1.131335172818e-04       4.989116276890e+02 
       1.221587619877e-04       5.372471938778e+02 
       1.319039970550e-04       5.785234120996e+02 
       1.424266598317e-04       6.229645931876e+02 
       1.537887697396e-04       6.708118487660e+02 
       1.660572938097e-04       7.223242662990e+02 
       1.793045413791e-04       7.777801580052e+02 
       1.936085902737e-04       8.374783637165e+02 
       2.090537469909e-04       9.017396286886e+02 
       2.257310435923e-04       9.709080297848e+02 
       2.437387742372e-04       1.045352452951e+03 
       2.631830745176e-04       1.125468127240e+03 
       2.841785470091e-04       1.211678185557e+03 
       3.068489367268e-04       1.304435254390e+03 
       3.313278604643e-04       1.404223062494e+03 
       3.577595943165e-04       1.511558029579e+03 
       3.862999240274e-04       1.626990852551e+03 
       4.171170631739e-04       1.751108045585e+03 
       4.503926445983e-04       1.884533404720e+03 
       4.863227909323e-04       2.027929406943e+03 
       5.251192705226e-04       2.181998483876e+03 
       5.670107455699e-04       2.347484146032e+03 
       6.122441198393e-04       2.525171925122e+03 
       6.610859938837e-04       2.715890054871e+03 
       7.138242363583e-04       2.920509779183e+03 
       7.707696806873e-04       3.139945207830e+03 
       8.322579570814e-04       3.375152476694e+03 
       8.986514707061e-04       3.627128020004e+03 
       9.703415376577e-04       3.896905668907e+03 
       1.047750691338e-03       4.185552451691e+03 
       1.131335172818e-03       4.494162774226e+03 
       1.221587619877e-03       4.823851148656e+03 
       1.319039970550e-03       5.175743275947e+03 
       1.424266598317e-03       5.551020294331e+03 
       1.537887697396e-03       5.950789178338e+03 
       1.660572938097e-03       6.376124138523e+03 
       1.793045413791e-03       6.828075218075e+03 
       1.936085902737e-03       7.307627021622e+03 
       2.090537469909e-03       7.815673930120e+03 
       2.257310435923e-03       8.352992850053e+03 
       2.437387742372e-03       8.920214186943e+03 
       2.631830745176e-03       9.517787023759e+03 
       2.841785470091e-03       1.014594099605e+04 
       3.068489367268e-03       1.080465100119e+04 
       3.313278604643e-03       1.149358166646e+04 
       3.577595943165e-03       1.221204491218e+04 
       3.862999240274e-03       1.295893610874e+04 
       4.171170631739e-03       1.373267264928e+04 
       4.503926445983e-03       1.453113290493e+04 
       4.863227909323e-03       1.535156649536e+04 
       5.251192705226e-03       1.619065546460e+04 
       5.670107455699e-03       1.704432751255e+04 
       6.122441198393e-03       1.790756599063e+04 
       6.610859938837e-03       1.877460189466e+04 
       7.138242363583e-03       1.963871205026e+04 
       7.707696806873e-03       2.049212645333e+04 
       8.322579570814e-03       2.132602141998e+04 
       8.986514707061e-03       2.213047546646e+04 
       9.703415376577e-03       2.289434064511e+04 
       1.047750691338e-02       2.360531117409e+04 
       1.131335172818e-02       2.424998690991e+04 
       1.221587619877e-02       2.481389681623e+04 
       1.319039970550e-02       2.528172118440e+04 
       1.424266598317e-02       2.563750261839e+04 
       1.537887697392e-02       2.586520258577e+04 
       1.660572938023e-02       2.594910308567e+04 
       1.793045412706e-02       2.587480136261e+04 
       1.936085890181e-02       2.563013803434e+04 
       2.090537352463e-02       2.520667073987e+04 
       2.257309535333e-02       2.460095190371e+04 
       2.437382002918e-02       2.381636540494e+04 
       2.631799944462e-02       2.286465652955e+04 
       2.841644545389e-02       2.176714311630e+04 
       3.067933355377e-02       2.055630027627e+04 
       3.311368470740e-02       1.927582489832e+04 
       3.571840443502e-02       1.797990718901e+04 
       3.847720348444e-02       1.672969880868e+04 
       4.135335538431e-02       1.558406720860e+04 
       4.429361667738e-02       1.458609471712e+04 
       4.724366439141e-02       1.375237462988e+04 
       5.016480835311e-02       1.307274323056e+04 
       5.303989620246e-02       1.252054380854e+04 
       5.586870669566e-02       1.206313824295e+04 
       5.866042680613e-02       1.166890142383e+04 
       6.142798932958e-02       1.130989360973e+04 
       6.418496440164e-02       1.096298004025e+04 
       6.694418833788e-02       1.060991477519e+04 
       6.971731106057e-02       1.023741575858e+04 
       7.251476155766e-02       9.837289401187e+03 
       7.534587671527e-02       9.406343010879e+03 
       7.821907666265e-02       8.946178550642e+03 
       8.114203772912e-02       8.463001414366e+03 
       8.412184535029e-02       7.966504491075e+03 
       8.716512279304e-02       7.469088547470e+03 
       9.027813695930e-02       6.984428260480e+03 
       9.346688431697e-02       6.525934945351e+03 
       9.673716028276e-02       6.105402366375e+03 
       1.000946150830e-01       5.731598148125e+03 
       1.035447986537e-01       5.409492604260e+03 
       1.070931966762e-01       5.139482266203e+03 
       1.107452594425e-01       4.917316046892e+03 
       1.145064249153e-01       4.734133531125e+03 
       1.183821370918e-01       4.577230303291e+03 
       1.223778605862e-01       4.431256910583e+03 
       1.264990921987e-01       4.280107886777e+03 
       1.307513701367e-01       4.109763207154e+03 
       1.351402814784e-01       3.911190804720e+03 
       1.396714684203e-01       3.682607773660e+03 
       1.443506338194e-01       3.430398990807e+03 
       1.491835465229e-01       3.167844079823e+03 
       1.541760469708e-01       2.911729492797e+03 
       1.593340535561e-01       2.678391927953e+03 
       1.646635702297e-01       2.479317816023e+03 
       1.701706958456e-01       2.318560842692e+03 
       1.758616357459e-01       2.191703288131e+03 
       1.817427160982e-01       2.086897163865e+03 
       1.878204015065e-01       1.989216974392e+03 
       1.941013164283e-01       1.882631011669e+03 
       2.005922709503e-01       1.757387936029e+03 
       2.073002914972e-01       1.614656631832e+03 
       2.142326570816e-01       1.465376394463e+03 
       2.213969417533e-01       1.323809604231e+03 
       2.288010639706e-01       1.200878570846e+03 
       2.364533437147e-01       1.100679878702e+03 
       2.443625682930e-01       1.019140365713e+03 
       2.525380679504e-01       9.456769277257e+02 
       2.609898026346e-01       8.695904944110e+02 
       2.697284615565e-01       7.863448136700e+02 
       2.787655775689e-01       6.991823514485e+02 
       2.881136588829e-01       6.165128762548e+02 
       2.977863412677e-01       5.453568771680e+02 
       3.077985646929e-01       4.859024594625e+02 
       3.181667794071e-01       4.332157723555e+02 
       3.289091877812e-01       3.816452697056e+02 
       3.400460299658e-01       3.294232621779e+02 
       3.515999236474e-01       2.796282536657e+02 
       3.635962711085e-01       2.357799824685e+02 
       3.760637506334e-01       1.985423227011e+02 
       3.890349143879e-01       1.653927595743e+02 
       4.025469216825e-01       1.344620566192e+02 
       4.166424456376e-01       1.061450110358e+02 
       4.313708035863e-01       8.183181862578e+01 
       4.467893782977e-01       6.158245746323e+01 
       4.629654199664e-01       4.453115306845e+01 
       4.799783501994e-01       3.018693285916e+01 
       4.979227319373e-01       1.883091703978e+01 
       5.169121270864e-01       1.048033685293e+01 
       5.370841404489e-01       4.689548334817e+00 
       5.586070464571e-01       1.262277769147e+00 
       5.816885094930e-01       1.844022122705e-02 
       6.065870144995e-01       6.349008563555e-01 
       6.336266468475e-01       2.780462694425e+00 
       6.632156059511e-01       6.025179376838e+00 
       6.958678639263e-01       9.900062384359e+00 
       7.322247985589e-01       1.380155764001e+01 
       7.730680195114e-01       1.708148222657e+01 
       8.193049553677e-01       1.903262445896e+01 
       8.718988016039e-01       1.906459071175e+01 
       9.317218031082e-01       1.692280746850e+01 
       9.993660908989e-01       1.293311747216e+01 
       1.075037110174e+00       8.124887236166e+00 
       1.158653485707e+00       3.809446404543e+00 
       1.250099157308e+00       1.023845936425e+00 
       1.349432401273e+00       2.313786432960e-02 
       1.456947457397e+00       2.707042218768e-01 
       1.573135111331e+00       8.667914693158e-01 
       1.698621895592e+00       1.114364557742e+00 
       1.834127512934e+00       8.523960650640e-01 
       1.980444934528e+00       3.788815754514e-01 
       2.138435191726e+00       6.026702836814e-02 
       2.309029199186e+00       4.604539999352e-03 
       2.493232377687e+00       6.325450475677e-02 
       2.692130395285e+00       7.642618438417e-02 
       2.906895534573e+00       3.353121863822e-02 
       3.138793597714e+00       1.952123609480e-03 
       3.389191366484e+00       3.534609289610e-03 
       3.659564657905e+00       6.506961770910e-03 
       3.951507022538e+00       2.340836171206e-03 
       4.266739136701e+00       5.463435271220e-07 
       4.607118943941e+00       5.871038680155e-04 
       4.974652605557e+00       3.403510432988e-04 
       5.371506324689e+00       2.223276453581e-05 
       5.800019113685e+00       5.638359116801e-06 
       6.262716579983e+00       9.935207640666e-06 
       6.762325811764e+00       2.317047729051e-08 
       7.301791451110e+00       3.468733420268e-05 
       7.884293049406e+00       6.036548412437e-05 
       8.513263807261e+00       6.519489331886e-05 
       9.192410809424e+00       2.476726983954e-04 
       9.925736873929e+00       4.682154279585e-05 
       1.071756414427e+01       1.992990931570e-03 
       1.157255956364e+01       2.091925130493e-05 
       1.249576238137e+01       1.848949452888e-06 
       1.349261385375e+01       2.305717600196e-05 
       1.456898931416e+01       6.800300402316e-05 
       1.573123280165e+01       7.625801991969e-07 
       1.698619445202e+01       3.358795211705e-06 
       1.834127087176e+01       1.996300689578e-05 
       1.980444873285e+01       1.341763741781e-05 
       2.138435184532e+01       1.030872184427e-05 
       2.309029198506e+01       6.055726843773e-05 
       2.493232377636e+01       9.264846875293e-05 
       2.692130395282e+01       1.881059916606e-06 
       2.906895534573e+01       2.565966775662e-05 
       3.138793597714e+01       7.893800485759e-06 
       3.389191366484e+01       2.900126499676e-05 
       3.659564657905e+01       1.303503995614e-04 
       3.951507022538e+01       1.400839268431e-04 
       4.266739136701e+01       1.576624955083e-04 
       4.607118943941e+01       5.994613194287e-05 
       4.974652605557e+01       1.089748376524e-04 
       5.371506324689e+01       3.048525533941e-04 
       5.800019113685e+01       3.627753145254e-05 
       6.262716579983e+01       4.647611727819e-05 
       6.762325811764e+01       6.967278704321e-05 
       7.301791451110e+01       2.882093196769e-05 
       7.884293049406e+01       6.329774571400e-06 
       8.513263807261e+01       6.318756090414e-05 
       9.192410809424e+01       1.639127962355e-06 
       9.925736873929e+01       6.835373001042e-06 
       1.071756414427e+02       2.777061606709e-06 
       1.157255956364e+02       5.540291034948e-05 
       1.249576238137e+02       1.581336811225e-05 
       1.349261385375e+02       3.846146379567e-05 
