# Matter power spectrum P(k) at redshift z=0
# for k=1.04775e-05 to 134.926 h/Mpc,
# number of wavenumbers equal to 255
#    1:k (h/Mpc)              2:P (Mpc/h)^3        
       1.047750691338e-05       5.020963906808e+01 
       1.131335172818e-05       5.407048937150e+01 
       1.221587619877e-05       5.822820724034e+01 
       1.319039970550e-05       6.270562047270e+01 
       1.424266598317e-05       6.752731476102e+01 
       1.537887697396e-05       7.271975715399e+01 
       1.660572938097e-05       7.831147101252e+01 
       1.793045413791e-05       8.433312302140e+01 
       1.936085902737e-05       9.081780130650e+01 
       2.090537469909e-05       9.780107448257e+01 
       2.257310435923e-05       1.053212938596e+02 
       2.437387742372e-05       1.134197268469e+02 
       2.631830745176e-05       1.221408285622e+02 
       2.841785470091e-05       1.315324590474e+02 
       3.068489367268e-05       1.416461671360e+02 
       3.313278604643e-05       1.525374478891e+02 
       3.577595943165e-05       1.642660517244e+02 
       3.862999240274e-05       1.768963429368e+02 
       4.171170631739e-05       1.904975997818e+02 
       4.503926445983e-05       2.051444243230e+02 
       4.863227909323e-05       2.209171412042e+02 
       5.251192705226e-05       2.379022266162e+02 
       5.670107455699e-05       2.561927841264e+02 
       6.122441198393e-05       2.758890480858e+02 
       6.610859938837e-05       2.970989214099e+02 
       7.138242363583e-05       3.199385559911e+02 
       7.707696806873e-05       3.445329726981e+02 
       8.322579570814e-05       3.710167323952e+02 
       8.986514707061e-05       3.995346444092e+02 
       9.703415376577e-05       4.302425389300e+02 
       1.047750691338e-04       4.633080773394e+02 
       1.131335172818e-04       4.989116271048e+02 
       1.221587619877e-04       5.372471938693e+02 
       1.319039970550e-04       5.785234116767e+02 
       1.424266598317e-04       6.229645932959e+02 
       1.537887697396e-04       6.708118487311e+02 
       1.660572938097e-04       7.223242657501e+02 
       1.793045413791e-04       7.777801570961e+02 
       1.936085902737e-04       8.374783637954e+02 
       2.090537469909e-04       9.017396276606e+02 
       2.257310435923e-04       9.709080297000e+02 
       2.437387742372e-04       1.045352453295e+03 
       2.631830745176e-04       1.125468127618e+03 
       2.841785470091e-04       1.211678185799e+03 
       3.068489367268e-04       1.304435255902e+03 
       3.313278604643e-04       1.404223062716e+03 
       3.577595943165e-04       1.511558029320e+03 
       3.862999240274e-04       1.626990852232e+03 
       4.171170631739e-04       1.751108045197e+03 
       4.503926445983e-04       1.884533404245e+03 
       4.863227909323e-04       2.027929406316e+03 
       5.251192705226e-04       2.181998483109e+03 
       5.670107455699e-04       2.347484145056e+03 
       6.122441198393e-04       2.525171923928e+03 
       6.610859938837e-04       2.715890053386e+03 
       7.138242363583e-04       2.920509777321e+03 
       7.707696806873e-04       3.139945205541e+03 
       8.322579570814e-04       3.375152473868e+03 
       8.986514707061e-04       3.627128016507e+03 
       9.703415376577e-04       3.896905664540e+03 
       1.047750691338e-03       4.185552446384e+03 
       1.131335172818e-03       4.494162767755e+03 
       1.221587619877e-03       4.823851140787e+03 
       1.319039970550e-03       5.175743266409e+03 
       1.424266598317e-03       5.551020282881e+03 
       1.537887697396e-03       5.950789164982e+03 
       1.660572938097e-03       6.376124123665e+03 
       1.793045413791e-03       6.828075202632e+03 
       1.936085902737e-03       7.307627007470e+03 
       2.090537469909e-03       7.815673903254e+03 
       2.257310435923e-03       8.352992851708e+03 
       2.437387742372e-03       8.920214215516e+03 
       2.631830745176e-03       9.517787051171e+03 
       2.841785470091e-03       1.014594116009e+04 
       3.068489367268e-03       1.080465117906e+04 
       3.313278604643e-03       1.149358216029e+04 
       3.577595943165e-03       1.221204557225e+04 
       3.862999240274e-03       1.295893629168e+04 
       4.171170631739e-03       1.373267291690e+04 
       4.503926445983e-03       1.453113441140e+04 
       4.863227909323e-03       1.535155866291e+04 
       5.251192705226e-03       1.619059559158e+04 
       5.670107455699e-03       1.704432731394e+04 
       6.122441198393e-03       1.790762076426e+04 
       6.610859938837e-03       1.877448843868e+04 
       7.138242363583e-03       1.963831386840e+04 
       7.707696806873e-03       2.049167083454e+04 
       8.322579570814e-03       2.132606747066e+04 
       8.986514707061e-03       2.213057850802e+04 
       9.703415376577e-03       2.289443548896e+04 
       1.047750691338e-02       2.360542923521e+04 
       1.131335172818e-02       2.425016919101e+04 
       1.221587619877e-02       2.481337228234e+04 
       1.319039970550e-02       2.528217383779e+04 
       1.424266598317e-02       2.563806560448e+04 
       1.537887697392e-02       2.586498850373e+04 
       1.660572938023e-02       2.595008511140e+04 
       1.793045412706e-02       2.587582334608e+04 
       1.936085890181e-02       2.563208346662e+04 
       2.090537352463e-02       2.520920207835e+04 
       2.257309535333e-02       2.460416818266e+04 
       2.437382002918e-02       2.382059906660e+04 
       2.631799944462e-02       2.287012881047e+04 
       2.841644545389e-02       2.177427358042e+04 
       3.067933355377e-02       2.056529610660e+04 
       3.311368470740e-02       1.928697554306e+04 
       3.571840443502e-02       1.799377037868e+04 
       3.847720348444e-02       1.674668838776e+04 
       4.135335538431e-02       1.560434861808e+04 
       4.429361667738e-02       1.461009064562e+04 
       4.724366439141e-02       1.378026176266e+04 
       5.016480835311e-02       1.310473500977e+04 
       5.303989620246e-02       1.255688346119e+04 
       5.586870669566e-02       1.210391625160e+04 
       5.866042680613e-02       1.171400387176e+04 
       6.142798932958e-02       1.135974013403e+04 
       6.418496440164e-02       1.101818454552e+04 
       6.694418833788e-02       1.067020679481e+04 
       6.971731106057e-02       1.030313463546e+04 
       7.251476155766e-02       9.908523320617e+03 
       7.534587671527e-02       9.483022955263e+03 
       7.821907666265e-02       9.028678263258e+03 
       8.114203772912e-02       8.551457956634e+03 
       8.412184535029e-02       8.061224288410e+03 
       8.716512279304e-02       7.569997307214e+03 
       9.027813695930e-02       7.091669318882e+03 
       9.346688431697e-02       6.639679232218e+03 
       9.673716028276e-02       6.225823548277e+03 
       1.000946150830e-01       5.859000981586e+03 
       1.035447986537e-01       5.544254977617e+03 
       1.070931966762e-01       5.282117499076e+03 
       1.107452594425e-01       5.068347585347e+03 
       1.145064249153e-01       4.894104575220e+03 
       1.183821370918e-01       4.746599744265e+03 
       1.223778605862e-01       4.610406820709e+03 
       1.264990921987e-01       4.469205709589e+03 
       1.307513701367e-01       4.308785357485e+03 
       1.351402814784e-01       4.119810557183e+03 
       1.396714684203e-01       3.900378276066e+03 
       1.443506338194e-01       3.656898829445e+03 
       1.491835465229e-01       3.402637461323e+03 
       1.541760469708e-01       3.154742607693e+03 
       1.593340535561e-01       2.929941095577e+03 
       1.646635702297e-01       2.740269473931e+03 
       1.701706958456e-01       2.590046471213e+03 
       1.758616357459e-01       2.474910245091e+03 
       1.817427160982e-01       2.382726678209e+03 
       1.878204015065e-01       2.297774221261e+03 
       1.941013164283e-01       2.203046948343e+03 
       2.005922709503e-01       2.087959561528e+03 
       2.073002914972e-01       1.953452793630e+03 
       2.142326570816e-01       1.811040964351e+03 
       2.213969417533e-01       1.676007286250e+03 
       2.288010639706e-01       1.560434962920e+03 
       2.364533437147e-01       1.469114824092e+03 
       2.443625682930e-01       1.397761835458e+03 
       2.525380679504e-01       1.334472408496e+03 
       2.609898026346e-01       1.266748322267e+03 
       2.697284615565e-01       1.189016835408e+03 
       2.787655775689e-01       1.104797598747e+03 
       2.881136588829e-01       1.024051633015e+03 
       2.977863412677e-01       9.555497964989e+02 
       3.077985646929e-01       8.998600280899e+02 
       3.181667794071e-01       8.507293651566e+02 
       3.289091877812e-01       8.005146180624e+02 
       3.400460299658e-01       7.464707059786e+02 
       3.515999236474e-01       6.927602229882e+02 
       3.635962711085e-01       6.446357414166e+02 
       3.760637506334e-01       6.034053392336e+02 
       3.890349143879e-01       5.651045363950e+02 
       4.025469216825e-01       5.264422229626e+02 
       4.166424456376e-01       4.879777002379e+02 
       4.313708035863e-01       4.524868547401e+02 
       4.467893782977e-01       4.204348955749e+02 
       4.629654199664e-01       3.900526442579e+02 
       4.799783501994e-01       3.601415563732e+02 
       4.979227319373e-01       3.317427701052e+02 
       5.169121270864e-01       3.055554542957e+02 
       5.370841404489e-01       2.804575033927e+02 
       5.586070464571e-01       2.562599749048e+02 
       5.816885094930e-01       2.334576566884e+02 
       6.065870144995e-01       2.116847655360e+02 
       6.336266468475e-01       1.907633602835e+02 
       6.632156059511e-01       1.708264960150e+02 
       6.958678639263e-01       1.516530332450e+02 
       7.322247985589e-01       1.332998769645e+02 
       7.730680195114e-01       1.156986568192e+02 
       8.193049553677e-01       9.890455225009e+01 
       8.718988016039e-01       8.300869033897e+01 
       9.317218031082e-01       6.818890451985e+01 
       9.993660908989e-01       5.464774708365e+01 
       1.075037110174e+00       4.260002428838e+01 
       1.158653485707e+00       3.216628722155e+01 
       1.250099157308e+00       2.337478085821e+01 
       1.349432401273e+00       1.616952116572e+01 
       1.456947457397e+00       1.045469992789e+01 
       1.573135111331e+00       6.120580249037e+00 
       1.698621895592e+00       3.053194183711e+00 
       1.834127512934e+00       1.123248724880e+00 
       1.980444934528e+00       1.779914236246e-01 
       2.138435191726e+00       2.402195582770e-02 
       2.309029199186e+00       4.280930919119e-01 
       2.493232377687e+00       1.122073819063e+00 
       2.692130395285e+00       1.829200962614e+00 
       2.906895534573e+00       2.307693095753e+00 
       3.138793597714e+00       2.402306186093e+00 
       3.389191366484e+00       2.082509502786e+00 
       3.659564657905e+00       1.470346716817e+00 
       3.951507022538e+00       7.833513130987e-01 
       4.266739136701e+00       2.512706982635e-01 
       4.607118943941e+00       1.438315395859e-02 
       4.974652605557e+00       4.001443562591e-02 
       5.371506324689e+00       1.667093158025e-01 
       5.800019113685e+00       2.276270843453e-01 
       6.262716579983e+00       1.667428229837e-01 
       6.762325811764e+00       6.032836947319e-02 
       7.301791451110e+00       3.631473672758e-03 
       7.884293049406e+00       6.082003013083e-03 
       8.513263807261e+00       1.721162643158e-02 
       9.192410809424e+00       9.575695343889e-03 
       9.925736873929e+00       7.995504060050e-04 
       1.071756414427e+01       4.572078826364e-04 
       1.157255956364e+01       6.728136606965e-04 
       1.249576238137e+01       3.672098048166e-05 
       1.349261385375e+01       5.047409668800e-05 
       1.456898931416e+01       3.939342368640e-06 
       1.573123280165e+01       1.986325970885e-05 
       1.698619445202e+01       1.145382793879e-06 
       1.834127087176e+01       7.057794232079e-06 
       1.980444873285e+01       6.388768935845e-09 
       2.138435184532e+01       4.526796202122e-07 
       2.309029198506e+01       1.086296606709e-06 
       2.493232377636e+01       6.464529067744e-07 
       2.692130395282e+01       5.384559607450e-07 
       2.906895534573e+01       2.970368726387e-07 
       3.138793597714e+01       1.299967434538e-08 
       3.389191366484e+01       6.887848379337e-10 
       3.659564657905e+01       7.816352212782e-09 
       3.951507022538e+01       1.596376944860e-08 
       4.266739136701e+01       1.951143280452e-10 
       4.607118943941e+01       9.729245824840e-08 
       4.974652605557e+01       4.559422563057e-09 
       5.371506324689e+01       1.016222455534e-10 
       5.800019113685e+01       1.437934230436e-10 
       6.262716579983e+01       1.846605306012e-10 
       6.762325811764e+01       4.514772897978e-09 
       7.301791451110e+01       2.221947890393e-10 
       7.884293049406e+01       6.673068213419e-10 
       8.513263807261e+01       6.099079560043e-09 
       9.192410809424e+01       1.646286442265e-09 
       9.925736873929e+01       9.916362774742e-10 
       1.071756414427e+02       2.978257124109e-09 
       1.157255956364e+02       2.651037899713e-09 
       1.249576238137e+02       9.571135917370e-11 
       1.349261385375e+02       1.344745143402e-10 
