# Matter power spectrum P(k) at redshift z=0
# for k=1.04775e-05 to 67.6233 h/Mpc,
# number of wavenumbers equal to 246
#    1:k (h/Mpc)              2:P (Mpc/h)^3        
       1.047750691338e-05       5.020964806749e+01 
       1.131335172818e-05       5.407048206553e+01 
       1.221587619877e-05       5.822819063843e+01 
       1.319039970550e-05       6.270562589685e+01 
       1.424266598317e-05       6.752731788102e+01 
       1.537887697396e-05       7.271977200258e+01 
       1.660572938097e-05       7.831147241542e+01 
       1.793045413791e-05       8.433311815128e+01 
       1.936085902737e-05       9.081778242446e+01 
       2.090537469909e-05       9.780108061340e+01 
       2.257310435923e-05       1.053213197032e+02 
       2.437387742372e-05       1.134197377001e+02 
       2.631830745176e-05       1.221408202816e+02 
       2.841785470091e-05       1.315324720916e+02 
       3.068489367268e-05       1.416462093730e+02 
       3.313278604643e-05       1.525374500691e+02 
       3.577595943165e-05       1.642660687078e+02 
       3.862999240274e-05       1.768963504868e+02 
       4.171170631739e-05       1.904975992460e+02 
       4.503926445983e-05       2.051444490305e+02 
       4.863227909323e-05       2.209171463752e+02 
       5.251192705226e-05       2.379022222314e+02 
       5.670107455699e-05       2.561927926250e+02 
       6.122441198393e-05       2.758890441791e+02 
       6.610859938837e-05       2.970989225465e+02 
       7.138242363583e-05       3.199385558200e+02 
       7.707696806873e-05       3.445329780878e+02 
       8.322579570814e-05       3.710167315928e+02 
       8.986514707061e-05       3.995346440954e+02 
       9.703415376577e-05       4.302425403884e+02 
       1.047750691338e-04       4.633080762974e+02 
       1.131335172818e-04       4.989116267507e+02 
       1.221587619877e-04       5.372471946561e+02 
       1.319039970550e-04       5.785234124633e+02 
       1.424266598317e-04       6.229645930980e+02 
       1.537887697396e-04       6.708118484951e+02 
       1.660572938097e-04       7.223242660220e+02 
       1.793045413791e-04       7.777801552830e+02 
       1.936085902737e-04       8.374783607333e+02 
       2.090537469909e-04       9.017396264495e+02 
       2.257310435923e-04       9.709080260152e+02 
       2.437387742372e-04       1.045352448644e+03 
       2.631830745176e-04       1.125468122836e+03 
       2.841785470091e-04       1.211678179511e+03 
       3.068489367268e-04       1.304435249091e+03 
       3.313278604643e-04       1.404223052541e+03 
       3.577595943165e-04       1.511558013390e+03 
       3.862999240274e-04       1.626990836462e+03 
       4.171170631739e-04       1.751108027370e+03 
       4.503926445983e-04       1.884533381345e+03 
       4.863227909323e-04       2.027929376470e+03 
       5.251192705226e-04       2.181998446367e+03 
       5.670107455699e-04       2.347484100857e+03 
       6.122441198393e-04       2.525171869337e+03 
       6.610859938837e-04       2.715889981400e+03 
       7.138242363583e-04       2.920509686090e+03 
       7.707696806873e-04       3.139945097711e+03 
       8.322579570814e-04       3.375152334396e+03 
       8.986514707061e-04       3.627127828231e+03 
       9.703415376577e-04       3.896905450016e+03 
       1.047750691338e-03       4.185552170956e+03 
       1.131335172818e-03       4.494162426791e+03 
       1.221587619877e-03       4.823850702673e+03 
       1.319039970550e-03       5.175742738899e+03 
       1.424266598317e-03       5.551019592524e+03 
       1.537887697396e-03       5.950788335881e+03 
       1.660572938097e-03       6.376123046810e+03 
       1.793045413791e-03       6.828073896123e+03 
       1.936085902737e-03       7.307625375386e+03 
       2.090537469909e-03       7.815671856180e+03 
       2.257310435923e-03       8.352990369402e+03 
       2.437387742372e-03       8.920211057537e+03 
       2.631830745176e-03       9.517783061890e+03 
       2.841785470091e-03       1.014593703671e+04 
       3.068489367268e-03       1.080464505734e+04 
       3.313278604643e-03       1.149357459479e+04 
       3.577595943165e-03       1.221203620827e+04 
       3.862999240274e-03       1.295892538505e+04 
       4.171170631739e-03       1.373266002374e+04 
       4.503926445983e-03       1.453111834595e+04 
       4.863227909323e-03       1.535154984227e+04 
       5.251192705226e-03       1.619063613436e+04 
       5.670107455699e-03       1.704431256598e+04 
       6.122441198393e-03       1.790755938451e+04 
       6.610859938837e-03       1.877460424582e+04 
       7.138242363583e-03       1.963872429096e+04 
       7.707696806873e-03       2.049215713093e+04 
       8.322579570814e-03       2.132607230488e+04 
       8.986514707061e-03       2.213054760060e+04 
       9.703415376577e-03       2.289445470794e+04 
       1.047750691338e-02       2.360548997593e+04 
       1.131335172818e-02       2.425022977445e+04 
       1.221587619877e-02       2.481423923893e+04 
       1.319039970550e-02       2.528218644205e+04 
       1.424266598317e-02       2.563814205608e+04 
       1.537887697392e-02       2.586605882004e+04 
       1.660572938023e-02       2.595029661380e+04 
       1.793045412706e-02       2.587633196275e+04 
       1.936085890181e-02       2.563221770738e+04 
       2.090537352463e-02       2.520935353329e+04 
       2.257309535333e-02       2.460446783038e+04 
       2.437382002918e-02       2.382086632321e+04 
       2.631799944462e-02       2.287045389962e+04 
       2.841644545389e-02       2.177449058309e+04 
       3.067933355377e-02       2.056553258212e+04 
       3.311368470740e-02       1.928730585265e+04 
       3.571840443502e-02       1.799404146849e+04 
       3.847720348444e-02       1.674687857128e+04 
       4.135335538431e-02       1.560466682704e+04 
       4.429361667738e-02       1.461041951592e+04 
       4.724366439141e-02       1.378052505837e+04 
       5.016480835311e-02       1.310510653705e+04 
       5.303989620246e-02       1.255716116495e+04 
       5.586870669566e-02       1.210425968702e+04 
       5.866042680613e-02       1.171464642605e+04 
       6.142798932958e-02       1.136047326662e+04 
       6.418496440164e-02       1.101856683021e+04 
       6.694418833788e-02       1.067068506628e+04 
       6.971731106057e-02       1.030358634962e+04 
       7.251476155766e-02       9.908998444441e+03 
       7.534587671527e-02       9.483771086783e+03 
       7.821907666265e-02       9.029491481196e+03 
       8.114203772912e-02       8.552334226531e+03 
       8.412184535029e-02       8.061975690234e+03 
       8.716512279304e-02       7.570782496960e+03 
       9.027813695930e-02       7.092517185758e+03 
       9.346688431697e-02       6.640515796921e+03 
       9.673716028276e-02       6.226704761084e+03 
       1.000946150830e-01       5.859931724919e+03 
       1.035447986537e-01       5.545243230368e+03 
       1.070931966762e-01       5.283135394095e+03 
       1.107452594425e-01       5.069430765501e+03 
       1.145064249153e-01       4.895243463757e+03 
       1.183821370918e-01       4.747844400702e+03 
       1.223778605862e-01       4.611741934658e+03 
       1.264990921987e-01       4.470611523893e+03 
       1.307513701367e-01       4.310271709765e+03 
       1.351402814784e-01       4.121388882703e+03 
       1.396714684203e-01       3.902074627099e+03 
       1.443506338194e-01       3.658636845619e+03 
       1.491835465229e-01       3.404486081218e+03 
       1.541760469708e-01       3.156670172329e+03 
       1.593340535561e-01       2.931979133479e+03 
       1.646635702297e-01       2.742370386997e+03 
       1.701706958456e-01       2.592263413685e+03 
       1.758616357459e-01       2.477237511465e+03 
       1.817427160982e-01       2.385184183790e+03 
       1.878204015065e-01       2.300358281931e+03 
       1.941013164283e-01       2.205762115601e+03 
       2.005922709503e-01       2.090815436937e+03 
       2.073002914972e-01       1.956465841703e+03 
       2.142326570816e-01       1.814196693973e+03 
       2.213969417533e-01       1.679295244951e+03 
       2.288010639706e-01       1.563848209919e+03 
       2.364533437147e-01       1.472686521455e+03 
       2.443625682930e-01       1.401513317632e+03 
       2.525380679504e-01       1.338418510261e+03 
       2.609898026346e-01       1.270902498630e+03 
       2.697284615565e-01       1.193381639368e+03 
       2.787655775689e-01       1.109339194621e+03 
       2.881136588829e-01       1.028769899470e+03 
       2.977863412677e-01       9.604840250254e+02 
       3.077985646929e-01       9.050254455677e+02 
       3.181667794071e-01       8.561449808112e+02 
       3.289091877812e-01       8.061876191078e+02 
       3.400460299658e-01       7.523927894407e+02 
       3.515999236474e-01       6.989270299590e+02 
       3.635962711085e-01       6.510644758180e+02 
       3.760637506334e-01       6.101250911917e+02 
       3.890349143879e-01       5.721345768984e+02 
       4.025469216825e-01       5.337815729447e+02 
       4.166424456376e-01       4.956320776504e+02 
       4.313708035863e-01       4.604695109028e+02 
       4.467893782977e-01       4.287776176397e+02 
       4.629654199664e-01       3.987717733072e+02 
       4.799783501994e-01       3.692421327654e+02 
       4.979227319373e-01       3.412404857434e+02 
       5.169121270864e-01       3.154843643837e+02 
       5.370841404489e-01       2.908360590508e+02 
       5.586070464571e-01       2.671061177987e+02 
       5.816885094930e-01       2.448102587286e+02 
       6.065870144995e-01       2.235679546505e+02 
       6.336266468475e-01       2.032110672639e+02 
       6.632156059511e-01       1.838791860653e+02 
       6.958678639263e-01       1.653549222151e+02 
       7.322247985589e-01       1.476958950069e+02 
       7.730680195114e-01       1.308343943485e+02 
       8.193049553677e-01       1.148316343885e+02 
       8.718988016039e-01       9.976254455050e+01 
       9.317218031082e-01       8.577824451900e+01 
       9.993660908989e-01       7.305497797399e+01 
       1.075037110174e+00       6.173597101101e+01 
       1.158653485707e+00       5.187943132927e+01 
       1.250099157308e+00       4.344047394849e+01 
       1.349432401273e+00       3.628958847775e+01 
       1.456947457397e+00       3.026803612855e+01 
       1.573135111331e+00       2.521462562449e+01 
       1.698621895592e+00       2.098206027945e+01 
       1.834127512934e+00       1.744240943726e+01 
       1.980444934528e+00       1.448571101663e+01 
       2.138435191726e+00       1.201892636114e+01 
       2.309029199186e+00       9.963168819291e+00 
       2.493232377687e+00       8.251835101142e+00 
       2.692130395285e+00       6.828627225857e+00 
       2.906895534573e+00       5.646274693691e+00 
       3.138793597714e+00       4.664880365824e+00 
       3.389191366484e+00       3.851142603306e+00 
       3.659564657905e+00       3.176942865932e+00 
       3.951507022538e+00       2.618878154829e+00 
       4.266739136701e+00       2.157347906949e+00 
       4.607118943941e+00       1.775934299034e+00 
       4.974652605557e+00       1.460987192723e+00 
       5.371506324689e+00       1.201130619032e+00 
       5.800019113685e+00       9.868755996814e-01 
       6.262716579983e+00       8.103559769058e-01 
       6.762325811764e+00       6.650170275875e-01 
       7.301791451110e+00       5.454249488933e-01 
       7.884293049406e+00       4.471010008459e-01 
       8.513263807261e+00       3.662978579533e-01 
       9.192410809424e+00       2.999423079617e-01 
       9.925736873929e+00       2.454799962071e-01 
       1.071756414427e+01       2.008085388075e-01 
       1.157255956364e+01       1.641851325795e-01 
       1.249576238137e+01       1.341769167473e-01 
       1.349261385375e+01       1.096025978027e-01 
       1.456898931416e+01       8.948877075214e-02 
       1.573123280165e+01       7.303374336383e-02 
       1.698619445202e+01       5.957837068732e-02 
       1.834127087176e+01       4.858123418834e-02 
       1.980444873285e+01       3.959681081435e-02 
       2.138435184532e+01       3.226109841740e-02 
       2.309029198506e+01       2.627342757482e-02 
       2.493232377636e+01       2.138866203401e-02 
       2.692130395282e+01       1.740466473430e-02 
       2.906895534573e+01       1.415746579036e-02 
       3.138793597714e+01       1.151139086061e-02 
       3.389191366484e+01       9.356077485874e-03 
       3.659564657905e+01       7.601263597599e-03 
       3.951507022538e+01       6.173090149381e-03 
       4.266739136701e+01       5.011152647725e-03 
       4.607118943941e+01       4.066175193871e-03 
       4.974652605557e+01       3.297976664673e-03 
       5.371506324689e+01       2.673676676039e-03 
       5.800019113685e+01       2.166568595252e-03 
       6.262716579983e+01       1.754733175275e-03 
       6.762325811764e+01       1.420446608149e-03 
