# Matter power spectrum P(k) at redshift z=0
# for k=1.04775e-05 to 67.6233 h/Mpc,
# number of wavenumbers equal to 246
#    1:k (h/Mpc)              2:P (Mpc/h)^3        
       1.047750691338e-05       5.020964806750e+01 
       1.131335172818e-05       5.407048206553e+01 
       1.221587619877e-05       5.822819063752e+01 
       1.319039970550e-05       6.270562589684e+01 
       1.424266598317e-05       6.752731788102e+01 
       1.537887697396e-05       7.271977200258e+01 
       1.660572938097e-05       7.831147241541e+01 
       1.793045413791e-05       8.433311815128e+01 
       1.936085902737e-05       9.081778242446e+01 
       2.090537469909e-05       9.780108061340e+01 
       2.257310435923e-05       1.053213197032e+02 
       2.437387742372e-05       1.134197377001e+02 
       2.631830745176e-05       1.221408202815e+02 
       2.841785470091e-05       1.315324720916e+02 
       3.068489367268e-05       1.416462093730e+02 
       3.313278604643e-05       1.525374500691e+02 
       3.577595943165e-05       1.642660687078e+02 
       3.862999240274e-05       1.768963504868e+02 
       4.171170631739e-05       1.904975992460e+02 
       4.503926445983e-05       2.051444490305e+02 
       4.863227909323e-05       2.209171463752e+02 
       5.251192705226e-05       2.379022222314e+02 
       5.670107455699e-05       2.561927925814e+02 
       6.122441198393e-05       2.758890441791e+02 
       6.610859938837e-05       2.970989225465e+02 
       7.138242363583e-05       3.199385558200e+02 
       7.707696806873e-05       3.445329780878e+02 
       8.322579570814e-05       3.710167315928e+02 
       8.986514707061e-05       3.995346440954e+02 
       9.703415376577e-05       4.302425403884e+02 
       1.047750691338e-04       4.633080762974e+02 
       1.131335172818e-04       4.989116267507e+02 
       1.221587619877e-04       5.372471946561e+02 
       1.319039970550e-04       5.785234124634e+02 
       1.424266598317e-04       6.229645930980e+02 
       1.537887697396e-04       6.708118484951e+02 
       1.660572938097e-04       7.223242660220e+02 
       1.793045413791e-04       7.777801554349e+02 
       1.936085902737e-04       8.374783607333e+02 
       2.090537469909e-04       9.017396264495e+02 
       2.257310435923e-04       9.709080260152e+02 
       2.437387742372e-04       1.045352448644e+03 
       2.631830745176e-04       1.125468122836e+03 
       2.841785470091e-04       1.211678179511e+03 
       3.068489367268e-04       1.304435249091e+03 
       3.313278604643e-04       1.404223052541e+03 
       3.577595943165e-04       1.511558013390e+03 
       3.862999240274e-04       1.626990836433e+03 
       4.171170631739e-04       1.751108027370e+03 
       4.503926445983e-04       1.884533381345e+03 
       4.863227909323e-04       2.027929376470e+03 
       5.251192705226e-04       2.181998446368e+03 
       5.670107455699e-04       2.347484100857e+03 
       6.122441198393e-04       2.525171869337e+03 
       6.610859938837e-04       2.715889981402e+03 
       7.138242363583e-04       2.920509686081e+03 
       7.707696806873e-04       3.139945097710e+03 
       8.322579570814e-04       3.375152334396e+03 
       8.986514707061e-04       3.627127828231e+03 
       9.703415376577e-04       3.896905450016e+03 
       1.047750691338e-03       4.185552170961e+03 
       1.131335172818e-03       4.494162426791e+03 
       1.221587619877e-03       4.823850702673e+03 
       1.319039970550e-03       5.175742734667e+03 
       1.424266598317e-03       5.551019592524e+03 
       1.537887697396e-03       5.950788335884e+03 
       1.660572938097e-03       6.376123046807e+03 
       1.793045413791e-03       6.828073896110e+03 
       1.936085902737e-03       7.307625375387e+03 
       2.090537469909e-03       7.815671845256e+03 
       2.257310435923e-03       8.352990369403e+03 
       2.437387742372e-03       8.920211057536e+03 
       2.631830745176e-03       9.517783061889e+03 
       2.841785470091e-03       1.014593703671e+04 
       3.068489367268e-03       1.080464505744e+04 
       3.313278604643e-03       1.149357459459e+04 
       3.577595943165e-03       1.221203620826e+04 
       3.862999240274e-03       1.295892538505e+04 
       4.171170631739e-03       1.373266002256e+04 
       4.503926445983e-03       1.453111834595e+04 
       4.863227909323e-03       1.535154984213e+04 
       5.251192705226e-03       1.619063613356e+04 
       5.670107455699e-03       1.704431256570e+04 
       6.122441198393e-03       1.790755938503e+04 
       6.610859938837e-03       1.877460415759e+04 
       7.138242363583e-03       1.963872429245e+04 
       7.707696806873e-03       2.049215713342e+04 
       8.322579570814e-03       2.132606844054e+04 
       8.986514707061e-03       2.213055079419e+04 
       9.703415376577e-03       2.289445471392e+04 
       1.047750691338e-02       2.360548527684e+04 
       1.131335172818e-02       2.425023687017e+04 
       1.221587619877e-02       2.481423923371e+04 
       1.319039970550e-02       2.528218658617e+04 
       1.424266598317e-02       2.563814184179e+04 
       1.537887697392e-02       2.586607373070e+04 
       1.660572938023e-02       2.595028595126e+04 
       1.793045412706e-02       2.587634505212e+04 
       1.936085890181e-02       2.563220885209e+04 
       2.090537352463e-02       2.520936973020e+04 
       2.257309535333e-02       2.460446412901e+04 
       2.437382002918e-02       2.382089386758e+04 
       2.631799944462e-02       2.287047081848e+04 
       2.841644545389e-02       2.177449082215e+04 
       3.067933355377e-02       2.056554938721e+04 
       3.311368470740e-02       1.928728907310e+04 
       3.571840443502e-02       1.799401999007e+04 
       3.847720348444e-02       1.674680266441e+04 
       4.135335538431e-02       1.560461782479e+04 
       4.429361667738e-02       1.461040725226e+04 
       4.724366439141e-02       1.378052622186e+04 
       5.016480835311e-02       1.310509294978e+04 
       5.303989620246e-02       1.255715372756e+04 
       5.586870669566e-02       1.210426784965e+04 
       5.866042680613e-02       1.171465811267e+04 
       6.142798932958e-02       1.136046690186e+04 
       6.418496440164e-02       1.101858140205e+04 
       6.694418833788e-02       1.067068833846e+04 
       6.971731106057e-02       1.030357604610e+04 
       7.251476155766e-02       9.909021790345e+03 
       7.534587671527e-02       9.483741216237e+03 
       7.821907666265e-02       9.029484580630e+03 
       8.114203772912e-02       8.552290309704e+03 
       8.412184535029e-02       8.061936821487e+03 
       8.716512279304e-02       7.570793509875e+03 
       9.027813695930e-02       7.092464185137e+03 
       9.346688431697e-02       6.640486436065e+03 
       9.673716028276e-02       6.226695554840e+03 
       1.000946150830e-01       5.859941993557e+03 
       1.035447986537e-01       5.545243667817e+03 
       1.070931966762e-01       5.283165336813e+03 
       1.107452594425e-01       5.069439180565e+03 
       1.145064249153e-01       4.895247383625e+03 
       1.183821370918e-01       4.747832411322e+03 
       1.223778605862e-01       4.611729799808e+03 
       1.264990921987e-01       4.470623928409e+03 
       1.307513701367e-01       4.310263841900e+03 
       1.351402814784e-01       4.121383870442e+03 
       1.396714684203e-01       3.902072242711e+03 
       1.443506338194e-01       3.658642043392e+03 
       1.491835465229e-01       3.404486074060e+03 
       1.541760469708e-01       3.156681779739e+03 
       1.593340535561e-01       2.931973057098e+03 
       1.646635702297e-01       2.742376293175e+03 
       1.701706958456e-01       2.592262955874e+03 
       1.758616357459e-01       2.477235877044e+03 
       1.817427160982e-01       2.385183801582e+03 
       1.878204015065e-01       2.300351824022e+03 
       1.941013164283e-01       2.205756756910e+03 
       2.005922709503e-01       2.090819252767e+03 
       2.073002914972e-01       1.956464497216e+03 
       2.142326570816e-01       1.814193601247e+03 
       2.213969417533e-01       1.679295725896e+03 
       2.288010639706e-01       1.563845198954e+03 
       2.364533437147e-01       1.472683271897e+03 
       2.443625682930e-01       1.401515743613e+03 
       2.525380679504e-01       1.338416004730e+03 
       2.609898026346e-01       1.270897031875e+03 
       2.697284615565e-01       1.193379823306e+03 
       2.787655775689e-01       1.109335279373e+03 
       2.881136588829e-01       1.028766721798e+03 
       2.977863412677e-01       9.604779483610e+02 
       3.077985646929e-01       9.050197592113e+02 
       3.181667794071e-01       8.561415330806e+02 
       3.289091877812e-01       8.061866307899e+02 
       3.400460299658e-01       7.523910427371e+02 
       3.515999236474e-01       6.989207016178e+02 
       3.635962711085e-01       6.510618520129e+02 
       3.760637506334e-01       6.101196101699e+02 
       3.890349143879e-01       5.721290916827e+02 
       4.025469216825e-01       5.337801305319e+02 
       4.166424456376e-01       4.956275692597e+02 
       4.313708035863e-01       4.604655434699e+02 
       4.467893782977e-01       4.287742963353e+02 
       4.629654199664e-01       3.987679496132e+02 
       4.799783501994e-01       3.692381994645e+02 
       4.979227319373e-01       3.412350738296e+02 
       5.169121270864e-01       3.154786960625e+02 
       5.370841404489e-01       2.908303027324e+02 
       5.586070464571e-01       2.671007122117e+02 
       5.816885094930e-01       2.448036103369e+02 
       6.065870144995e-01       2.235609555254e+02 
       6.336266468475e-01       2.032037986810e+02 
       6.632156059511e-01       1.838720410913e+02 
       6.958678639263e-01       1.653478631843e+02 
       7.322247985589e-01       1.476883566427e+02 
       7.730680195114e-01       1.308257410011e+02 
       8.193049553677e-01       1.148223027584e+02 
       8.718988016039e-01       9.975282844821e+01 
       9.317218031082e-01       8.576772353792e+01 
       9.993660908989e-01       7.304368970913e+01 
       1.075037110174e+00       6.172372979563e+01 
       1.158653485707e+00       5.186593281003e+01 
       1.250099157308e+00       4.342579897736e+01 
       1.349432401273e+00       3.627356805176e+01 
       1.456947457397e+00       3.025087563582e+01 
       1.573135111331e+00       2.519589077416e+01 
       1.698621895592e+00       2.096190655835e+01 
       1.834127512934e+00       1.742060092461e+01 
       1.980444934528e+00       1.446205869008e+01 
       2.138435191726e+00       1.199350468264e+01 
       2.309029199186e+00       9.935845634797e+00 
       2.493232377687e+00       8.222493262156e+00 
       2.692130395285e+00       6.797124926814e+00 
       2.906895534573e+00       5.612531356275e+00 
       3.138793597714e+00       4.628832795500e+00 
       3.389191366484e+00       3.812674540369e+00 
       3.659564657905e+00       3.135975588576e+00 
       3.951507022538e+00       2.575359975414e+00 
       4.266739136701e+00       2.111212298598e+00 
       4.607118943941e+00       1.727131256379e+00 
       4.974652605557e+00       1.409506518499e+00 
       5.371506324689e+00       1.146975745292e+00 
       5.800019113685e+00       9.301021759613e-01 
       6.262716579983e+00       7.510462803518e-01 
       6.762325811764e+00       6.033087433253e-01 
       7.301791451110e+00       4.815291709282e-01 
       7.884293049406e+00       3.812704356048e-01 
       8.513263807261e+00       2.988884618386e-01 
       9.192410809424e+00       2.313872796583e-01 
       9.925736873929e+00       1.763069400422e-01 
       1.071756414427e+01       1.316448004548e-01 
       1.157255956364e+01       9.575887194840e-02 
       1.249576238137e+01       6.731004354942e-02 
       1.349261385375e+01       4.518694540018e-02 
       1.456898931416e+01       2.846153261856e-02 
       1.573123280165e+01       1.633443133370e-02 
       1.698619445202e+01       8.088294593260e-03 
       1.834127087176e+01       3.053660141581e-03 
       1.980444873285e+01       5.781042463867e-04 
       2.138435184532e+01       1.135432153310e-05 
       2.309029198506e+01       7.062905649863e-04 
       2.493232377636e+01       2.039012367259e-03 
       2.692130395282e+01       3.448174348942e-03 
       2.906895534573e+01       4.486916034655e-03 
       3.138793597714e+01       4.877061306715e-03 
       3.389191366484e+01       4.546445218323e-03 
       3.659564657905e+01       3.628463980698e-03 
       3.951507022538e+01       2.413208457985e-03 
       4.266739136701e+01       1.248249713652e-03 
       4.607118943941e+01       4.168923938551e-04 
       4.974652605557e+01       3.749853945162e-05 
       5.371506324689e+01       3.423653681490e-05 
       5.800019113685e+01       1.994795382697e-04 
       6.262716579983e+01       3.208010056667e-04 
       6.762325811764e+01       2.974432482397e-04 
