# Matter power spectrum P(k) at redshift z=0
# for k=1.04775e-05 to 67.6233 h/Mpc,
# number of wavenumbers equal to 246
#    1:k (h/Mpc)              2:P (Mpc/h)^3        
       1.047750691338e-05       5.020964806755e+01 
       1.131335172818e-05       5.407048206553e+01 
       1.221587619877e-05       5.822819064018e+01 
       1.319039970550e-05       6.270562589681e+01 
       1.424266598317e-05       6.752731788102e+01 
       1.537887697396e-05       7.271977200258e+01 
       1.660572938097e-05       7.831147241541e+01 
       1.793045413791e-05       8.433311815128e+01 
       1.936085902737e-05       9.081778242446e+01 
       2.090537469909e-05       9.780108061340e+01 
       2.257310435923e-05       1.053213197032e+02 
       2.437387742372e-05       1.134197377001e+02 
       2.631830745176e-05       1.221408202815e+02 
       2.841785470091e-05       1.315324720916e+02 
       3.068489367268e-05       1.416462093730e+02 
       3.313278604643e-05       1.525374500691e+02 
       3.577595943165e-05       1.642660687078e+02 
       3.862999240274e-05       1.768963504868e+02 
       4.171170631739e-05       1.904975992461e+02 
       4.503926445983e-05       2.051444490305e+02 
       4.863227909323e-05       2.209171463752e+02 
       5.251192705226e-05       2.379022222314e+02 
       5.670107455699e-05       2.561927925961e+02 
       6.122441198393e-05       2.758890441791e+02 
       6.610859938837e-05       2.970989225467e+02 
       7.138242363583e-05       3.199385558200e+02 
       7.707696806873e-05       3.445329780878e+02 
       8.322579570814e-05       3.710167315928e+02 
       8.986514707061e-05       3.995346440954e+02 
       9.703415376577e-05       4.302425403884e+02 
       1.047750691338e-04       4.633080762974e+02 
       1.131335172818e-04       4.989116267507e+02 
       1.221587619877e-04       5.372471946561e+02 
       1.319039970550e-04       5.785234124637e+02 
       1.424266598317e-04       6.229645930980e+02 
       1.537887697396e-04       6.708118484951e+02 
       1.660572938097e-04       7.223242660220e+02 
       1.793045413791e-04       7.777801552650e+02 
       1.936085902737e-04       8.374783607333e+02 
       2.090537469909e-04       9.017396264495e+02 
       2.257310435923e-04       9.709080260152e+02 
       2.437387742372e-04       1.045352448644e+03 
       2.631830745176e-04       1.125468122836e+03 
       2.841785470091e-04       1.211678179511e+03 
       3.068489367268e-04       1.304435249091e+03 
       3.313278604643e-04       1.404223052541e+03 
       3.577595943165e-04       1.511558013390e+03 
       3.862999240274e-04       1.626990836534e+03 
       4.171170631739e-04       1.751108027370e+03 
       4.503926445983e-04       1.884533381345e+03 
       4.863227909323e-04       2.027929376470e+03 
       5.251192705226e-04       2.181998446367e+03 
       5.670107455699e-04       2.347484100857e+03 
       6.122441198393e-04       2.525171869338e+03 
       6.610859938837e-04       2.715889981400e+03 
       7.138242363583e-04       2.920509686081e+03 
       7.707696806873e-04       3.139945097710e+03 
       8.322579570814e-04       3.375152334396e+03 
       8.986514707061e-04       3.627127828231e+03 
       9.703415376577e-04       3.896905450016e+03 
       1.047750691338e-03       4.185552170958e+03 
       1.131335172818e-03       4.494162426791e+03 
       1.221587619877e-03       4.823850702659e+03 
       1.319039970550e-03       5.175742739283e+03 
       1.424266598317e-03       5.551019592520e+03 
       1.537887697396e-03       5.950788335884e+03 
       1.660572938097e-03       6.376123046804e+03 
       1.793045413791e-03       6.828073896126e+03 
       1.936085902737e-03       7.307625375386e+03 
       2.090537469909e-03       7.815671858323e+03 
       2.257310435923e-03       8.352990369404e+03 
       2.437387742372e-03       8.920211057535e+03 
       2.631830745176e-03       9.517783061890e+03 
       2.841785470091e-03       1.014593703671e+04 
       3.068489367268e-03       1.080464505728e+04 
       3.313278604643e-03       1.149357459544e+04 
       3.577595943165e-03       1.221203620826e+04 
       3.862999240274e-03       1.295892538505e+04 
       4.171170631739e-03       1.373266002195e+04 
       4.503926445983e-03       1.453111834595e+04 
       4.863227909323e-03       1.535154984221e+04 
       5.251192705226e-03       1.619063613402e+04 
       5.670107455699e-03       1.704431256558e+04 
       6.122441198393e-03       1.790755938472e+04 
       6.610859938837e-03       1.877460414912e+04 
       7.138242363583e-03       1.963872429161e+04 
       7.707696806873e-03       2.049215713374e+04 
       8.322579570814e-03       2.132607230751e+04 
       8.986514707061e-03       2.213054641859e+04 
       9.703415376577e-03       2.289445471041e+04 
       1.047750691338e-02       2.360548504188e+04 
       1.131335172818e-02       2.425022856297e+04 
       1.221587619877e-02       2.481423922701e+04 
       1.319039970550e-02       2.528218656489e+04 
       1.424266598317e-02       2.563814423564e+04 
       1.537887697392e-02       2.586606663933e+04 
       1.660572938023e-02       2.595029154555e+04 
       1.793045412706e-02       2.587633193346e+04 
       1.936085890181e-02       2.563218748782e+04 
       2.090537352463e-02       2.520934260954e+04 
       2.257309535333e-02       2.460446853928e+04 
       2.437382002918e-02       2.382083768594e+04 
       2.631799944462e-02       2.287042869369e+04 
       2.841644545389e-02       2.177448748477e+04 
       3.067933355377e-02       2.056557403592e+04 
       3.311368470740e-02       1.928729068432e+04 
       3.571840443502e-02       1.799401609159e+04 
       3.847720348444e-02       1.674682235860e+04 
       4.135335538431e-02       1.560458215490e+04 
       4.429361667738e-02       1.461039884581e+04 
       4.724366439141e-02       1.378051593586e+04 
       5.016480835311e-02       1.310506851633e+04 
       5.303989620246e-02       1.255715436353e+04 
       5.586870669566e-02       1.210428345196e+04 
       5.866042680613e-02       1.171464755603e+04 
       6.142798932958e-02       1.136046854887e+04 
       6.418496440164e-02       1.101856299076e+04 
       6.694418833788e-02       1.067068967848e+04 
       6.971731106057e-02       1.030356824664e+04 
       7.251476155766e-02       9.909008868263e+03 
       7.534587671527e-02       9.483750153790e+03 
       7.821907666265e-02       9.029488651670e+03 
       8.114203772912e-02       8.552317487900e+03 
       8.412184535029e-02       8.061885769475e+03 
       8.716512279304e-02       7.570760903949e+03 
       9.027813695930e-02       7.092483546340e+03 
       9.346688431697e-02       6.640501069925e+03 
       9.673716028276e-02       6.226721126114e+03 
       1.000946150830e-01       5.859954065244e+03 
       1.035447986537e-01       5.545230936779e+03 
       1.070931966762e-01       5.283138551222e+03 
       1.107452594425e-01       5.069420946750e+03 
       1.145064249153e-01       4.895241187399e+03 
       1.183821370918e-01       4.747839347870e+03 
       1.223778605862e-01       4.611740275896e+03 
       1.264990921987e-01       4.470636250692e+03 
       1.307513701367e-01       4.310266683847e+03 
       1.351402814784e-01       4.121378866242e+03 
       1.396714684203e-01       3.902078671606e+03 
       1.443506338194e-01       3.658592150912e+03 
       1.491835465229e-01       3.404485974505e+03 
       1.541760469708e-01       3.156668721963e+03 
       1.593340535561e-01       2.931976640930e+03 
       1.646635702297e-01       2.742375741565e+03 
       1.701706958456e-01       2.592265949869e+03 
       1.758616357459e-01       2.477239290888e+03 
       1.817427160982e-01       2.385184040370e+03 
       1.878204015065e-01       2.300359958149e+03 
       1.941013164283e-01       2.205758016777e+03 
       2.005922709503e-01       2.090822659166e+03 
       2.073002914972e-01       1.956465604991e+03 
       2.142326570816e-01       1.814194449512e+03 
       2.213969417533e-01       1.679284907995e+03 
       2.288010639706e-01       1.563847680648e+03 
       2.364533437147e-01       1.472683431572e+03 
       2.443625682930e-01       1.401510513523e+03 
       2.525380679504e-01       1.338411415590e+03 
       2.609898026346e-01       1.270902498305e+03 
       2.697284615565e-01       1.193387664506e+03 
       2.787655775689e-01       1.109338970428e+03 
       2.881136588829e-01       1.028767879716e+03 
       2.977863412677e-01       9.604803362518e+02 
       3.077985646929e-01       9.050239335297e+02 
       3.181667794071e-01       8.561440342321e+02 
       3.289091877812e-01       8.061880387544e+02 
       3.400460299658e-01       7.523893587223e+02 
       3.515999236474e-01       6.989211435015e+02 
       3.635962711085e-01       6.510621549028e+02 
       3.760637506334e-01       6.101208582404e+02 
       3.890349143879e-01       5.721313772839e+02 
       4.025469216825e-01       5.337808995876e+02 
       4.166424456376e-01       4.956306777999e+02 
       4.313708035863e-01       4.604687708394e+02 
       4.467893782977e-01       4.287784888289e+02 
       4.629654199664e-01       3.987711034674e+02 
       4.799783501994e-01       3.692415426743e+02 
       4.979227319373e-01       3.412397762203e+02 
       5.169121270864e-01       3.154823890244e+02 
       5.370841404489e-01       2.908349544737e+02 
       5.586070464571e-01       2.671053723585e+02 
       5.816885094930e-01       2.448091872409e+02 
       6.065870144995e-01       2.235671758441e+02 
       6.336266468475e-01       2.032103527245e+02 
       6.632156059511e-01       1.838786145129e+02 
       6.958678639263e-01       1.653545235834e+02 
       7.322247985589e-01       1.476957049445e+02 
       7.730680195114e-01       1.308335385665e+02 
       8.193049553677e-01       1.148308473416e+02 
       8.718988016039e-01       9.976228069328e+01 
       9.317218031082e-01       8.577784655909e+01 
       9.993660908989e-01       7.305470930818e+01 
       1.075037110174e+00       6.173569161672e+01 
       1.158653485707e+00       5.187910504070e+01 
       1.250099157308e+00       4.343991912609e+01 
       1.349432401273e+00       3.628910490228e+01 
       1.456947457397e+00       3.026765598235e+01 
       1.573135111331e+00       2.521419247715e+01 
       1.698621895592e+00       2.098155109973e+01 
       1.834127512934e+00       1.744197963251e+01 
       1.980444934528e+00       1.448510806954e+01 
       2.138435191726e+00       1.201836086782e+01 
       2.309029199186e+00       9.962515205037e+00 
       2.493232377687e+00       8.251074183905e+00 
       2.692130395285e+00       6.827737449905e+00 
       2.906895534573e+00       5.645355361080e+00 
       3.138793597714e+00       4.663839083485e+00 
       3.389191366484e+00       3.849978076736e+00 
       3.659564657905e+00       3.175696869672e+00 
       3.951507022538e+00       2.617499680999e+00 
       4.266739136701e+00       2.155853971783e+00 
       4.607118943941e+00       1.774284616803e+00 
       4.974652605557e+00       1.459194538055e+00 
       5.371506324689e+00       1.199159282244e+00 
       5.800019113685e+00       9.847234742906e-01 
       6.262716579983e+00       8.080143242434e-01 
       6.762325811764e+00       6.624614262406e-01 
       7.301791451110e+00       5.426557369050e-01 
       7.884293049406e+00       4.440924371851e-01 
       8.513263807261e+00       3.630463172574e-01 
       9.192410809424e+00       2.964249051248e-01 
       9.925736873929e+00       2.416875429924e-01 
       1.071756414427e+01       1.967226886071e-01 
       1.157255956364e+01       1.597959488417e-01 
       1.249576238137e+01       1.294757621061e-01 
       1.349261385375e+01       1.045790052767e-01 
       1.456898931416e+01       8.413836720613e-02 
       1.573123280165e+01       6.735795123992e-02 
       1.698619445202e+01       5.358430282551e-02 
       1.834127087176e+01       4.228251622029e-02 
       1.980444873285e+01       3.301901444934e-02 
       2.138435184532e+01       2.543951399234e-02 
       2.309029198506e+01       1.925835782489e-02 
       2.493232377636e+01       1.424584923198e-02 
       2.692130395282e+01       1.021741851136e-02 
       2.906895534573e+01       7.027065258616e-03 
       3.138793597714e+01       4.556140975161e-03 
       3.389191366484e+01       2.708978413240e-03 
       3.659564657905e+01       1.404003834149e-03 
       3.951507022538e+01       5.670533554692e-04 
       4.266739136701e+01       1.249959948033e-04 
       4.607118943941e+01       7.252114387478e-08 
       4.974652605557e+01       1.065784182891e-04 
       5.371506324689e+01       3.508734051229e-04 
       5.800019113685e+01       6.359805838633e-04 
       6.262716579983e+01       8.716144415321e-04 
       6.762325811764e+01       9.882806736635e-04 
