# Matter power spectrum P(k) at redshift z=99
# for k=1.04775e-05 to 134.926 h/Mpc,
# number of wavenumbers equal to 255
#    1:k (h/Mpc)              2:P (Mpc/h)^3        
       1.047750691338e-05       7.261927095216e-03 
       1.131335172818e-05       7.820332150681e-03 
       1.221587619877e-05       8.421675382250e-03 
       1.319039970550e-05       9.069257737917e-03 
       1.424266598317e-05       9.766636451033e-03 
       1.537887697396e-05       1.051763973631e-02 
       1.660572938097e-05       1.132639250741e-02 
       1.793045413791e-05       1.219733201497e-02 
       1.936085902737e-05       1.313524187191e-02 
       2.090537469909e-05       1.414527084965e-02 
       2.257310435923e-05       1.523296544479e-02 
       2.437387742372e-05       1.640429654626e-02 
       2.631830745176e-05       1.766569603271e-02 
       2.841785470091e-05       1.902408711147e-02 
       3.068489367268e-05       2.048692967427e-02 
       3.313278604643e-05       2.206225467531e-02 
       3.577595943165e-05       2.375870883834e-02 
       3.862999240274e-05       2.558560669802e-02 
       4.171170631739e-05       2.755297672486e-02 
       4.503926445983e-05       2.967161933390e-02 
       4.863227909323e-05       3.195316455632e-02 
       5.251192705226e-05       3.441013466109e-02 
       5.670107455699e-05       3.705601741674e-02 
       6.122441198393e-05       3.990533412806e-02 
       6.610859938837e-05       4.297372242498e-02 
       7.138242363583e-05       4.627802054815e-02 
       7.707696806873e-05       4.983636159849e-02 
       8.322579570814e-05       5.366826786892e-02 
       8.986514707061e-05       5.779476319689e-02 
       9.703415376577e-05       6.223848221789e-02 
       1.047750691338e-04       6.702379824971e-02 
       1.131335172818e-04       7.217695031026e-02 
       1.221587619877e-04       7.772619030304e-02 
       1.319039970550e-04       8.370193379979e-02 
       1.424266598317e-04       9.013692506602e-02 
       1.537887697396e-04       9.706641130329e-02 
       1.660572938097e-04       1.045283343104e-01 
       1.793045413791e-04       1.125635329178e-01 
       1.936085902737e-04       1.212159592301e-01 
       2.090537469909e-04       1.305329107427e-01 
       2.257310435923e-04       1.405652819352e-01 
       2.437387742372e-04       1.513678275067e-01 
       2.631830745176e-04       1.629994475124e-01 
       2.841785470091e-04       1.755234890469e-01 
       3.068489367268e-04       1.890080645289e-01 
       3.313278604643e-04       2.035263977421e-01 
       3.577595943165e-04       2.191571778034e-01 
       3.862999240274e-04       2.359849423249e-01 
       4.171170631739e-04       2.541004712991e-01 
       4.503926445983e-04       2.736012061147e-01 
       4.863227909323e-04       2.945916774631e-01 
       5.251192705226e-04       3.171839507851e-01 
       5.670107455699e-04       3.414980769095e-01 
       6.122441198393e-04       3.676625416287e-01 
       6.610859938837e-04       3.958147272851e-01 
       7.138242363583e-04       4.261013332051e-01 
       7.707696806873e-04       4.586787880836e-01 
       8.322579570814e-04       4.937136112808e-01 
       8.986514707061e-04       5.313826962063e-01 
       9.703415376577e-04       5.718735176792e-01 
       1.047750691338e-03       6.153841926239e-01 
       1.131335172818e-03       6.621233623113e-01 
       1.221587619877e-03       7.123098743646e-01 
       1.319039970550e-03       7.661721263781e-01 
       1.424266598317e-03       8.239547181300e-01 
       1.537887697396e-03       8.859012282819e-01 
       1.660572938097e-03       9.522589495760e-01 
       1.793045413791e-03       1.023280284738e+00 
       1.936085902737e-03       1.099216542130e+00 
       2.090537469909e-03       1.180313285064e+00 
       2.257310435923e-03       1.266804486840e+00 
       2.437387742372e-03       1.358905328500e+00 
       2.631830745176e-03       1.456803285994e+00 
       2.841785470091e-03       1.560647663088e+00 
       3.068489367268e-03       1.670537010637e+00 
       3.313278604643e-03       1.786505039710e+00 
       3.577595943165e-03       1.908504410202e+00 
       3.862999240274e-03       2.036389468858e+00 
       4.171170631739e-03       2.169898252919e+00 
       4.503926445983e-03       2.308634492108e+00 
       4.863227909323e-03       2.452050674939e+00 
       5.251192705226e-03       2.599434681326e+00 
       5.670107455699e-03       2.749901126694e+00 
       6.122441198393e-03       2.902390058605e+00 
       6.610859938837e-03       3.055671270164e+00 
       7.138242363583e-03       3.208360123262e+00 
       7.707696806873e-03       3.358926651882e+00 
       8.322579570814e-03       3.505726890530e+00 
       8.986514707061e-03       3.647012438716e+00 
       9.703415376577e-03       3.780926180483e+00 
       1.047750691338e-02       3.905492882192e+00 
       1.131335172818e-02       4.018589828032e+00 
       1.221587619877e-02       4.117902891406e+00 
       1.319039970550e-02       4.200917703805e+00 
       1.424266598317e-02       4.264943743428e+00 
       1.537887697392e-02       4.307219675505e+00 
       1.660572938023e-02       4.325062465349e+00 
       1.793045412706e-02       4.316060401629e+00 
       1.936085890181e-02       4.278228943850e+00 
       2.090537352463e-02       4.210204487186e+00 
       2.257309535333e-02       4.111418764679e+00 
       2.437382002918e-02       3.982420955070e+00 
       2.631799944462e-02       3.825168705861e+00 
       2.841644545389e-02       3.643282268169e+00 
       3.067933355377e-02       3.442198730040e+00 
       3.311368470740e-02       3.229241626319e+00 
       3.571840443502e-02       3.013516365845e+00 
       3.847720348444e-02       2.805283981032e+00 
       4.135335538431e-02       2.614410712136e+00 
       4.429361667738e-02       2.448132239054e+00 
       4.724366439141e-02       2.309240714319e+00 
       5.016480835311e-02       2.196115274052e+00 
       5.303989620246e-02       2.104369953172e+00 
       5.586870669566e-02       2.028462703938e+00 
       5.866042680613e-02       1.963155440518e+00 
       6.142798932958e-02       1.903779857865e+00 
       6.418496440164e-02       1.846479377316e+00 
       6.694418833788e-02       1.788197658826e+00 
       6.971731106057e-02       1.726715869167e+00 
       7.251476155766e-02       1.660654588562e+00 
       7.534587671527e-02       1.589470069357e+00 
       7.821907666265e-02       1.513436819352e+00 
       8.114203772912e-02       1.433569034114e+00 
       8.412184535029e-02       1.351492547065e+00 
       8.716512279304e-02       1.269274037930e+00 
       9.027813695930e-02       1.189193489244e+00 
       9.346688431697e-02       1.113501442668e+00 
       9.673716028276e-02       1.044174796857e+00 
       1.000946150830e-01       9.827063398211e-01 
       1.035447986537e-01       9.299362755025e-01 
       1.070931966762e-01       8.859588684667e-01 
       1.107452594425e-01       8.500714538274e-01 
       1.145064249153e-01       8.208037022685e-01 
       1.183821370918e-01       7.960246200514e-01 
       1.223778605862e-01       7.731457525989e-01 
       1.264990921987e-01       7.494518173086e-01 
       1.307513701367e-01       7.225568514058e-01 
       1.351402814784e-01       6.909081497613e-01 
       1.396714684203e-01       6.541804067272e-01 
       1.443506338194e-01       6.134259717593e-01 
       1.491835465229e-01       5.708671173778e-01 
       1.541760469708e-01       5.293642885372e-01 
       1.593340535561e-01       4.917108333863e-01 
       1.646635702297e-01       4.599199323935e-01 
       1.701706958456e-01       4.347278703688e-01 
       1.758616357459e-01       4.154077612510e-01 
       1.817427160982e-01       3.999370016037e-01 
       1.878204015065e-01       3.856828139829e-01 
       1.941013164283e-01       3.698092550658e-01 
       2.005922709503e-01       3.505464003895e-01 
       2.073002914972e-01       3.280426704423e-01 
       2.142326570816e-01       3.042144624985e-01 
       2.213969417533e-01       2.816112555249e-01 
       2.288010639706e-01       2.622565745277e-01 
       2.364533437147e-01       2.469612498754e-01 
       2.443625682930e-01       2.350124150354e-01 
       2.525380679504e-01       2.244172707549e-01 
       2.609898026346e-01       2.130933241438e-01 
       2.697284615565e-01       2.001014194387e-01 
       2.787655775689e-01       1.860197072589e-01 
       2.881136588829e-01       1.725166537394e-01 
       2.977863412677e-01       1.610654059779e-01 
       3.077985646929e-01       1.517602993216e-01 
       3.181667794071e-01       1.435588894556e-01 
       3.289091877812e-01       1.351810600774e-01 
       3.400460299658e-01       1.261637608357e-01 
       3.515999236474e-01       1.172012218334e-01 
       3.635962711085e-01       1.091760696213e-01 
       3.760637506334e-01       1.023087559921e-01 
       3.890349143879e-01       9.593704296334e-02 
       4.025469216825e-01       8.950686073567e-02 
       4.166424456376e-01       8.311089634346e-02 
       4.313708035863e-01       7.721447675683e-02 
       4.467893782977e-01       7.189959590443e-02 
       4.629654199664e-01       6.686796701024e-02 
       4.799783501994e-01       6.191631407968e-02 
       4.979227319373e-01       5.722107682347e-02 
       5.169121270864e-01       5.290164029242e-02 
       5.370841404489e-01       4.876840876830e-02 
       5.586070464571e-01       4.478942057579e-02 
       5.816885094930e-01       4.105035700074e-02 
       6.065870144995e-01       3.748827466183e-02 
       6.336266468475e-01       3.407460519669e-02 
       6.632156059511e-01       3.083276419472e-02 
       6.958678639263e-01       2.772643841470e-02 
       7.322247985589e-01       2.476502462369e-02 
       7.730680195114e-01       2.193735456153e-02 
       8.193049553677e-01       1.925369979433e-02 
       8.718988016039e-01       1.672664754485e-02 
       9.317218031082e-01       1.438129176355e-02 
       9.993660908989e-01       1.224747621070e-02 
       1.075037110174e+00       1.034906831139e-02 
       1.158653485707e+00       8.695826242750e-03 
       1.250099157308e+00       7.280269417345e-03 
       1.349432401273e+00       6.080685433721e-03 
       1.456947457397e+00       5.070454591595e-03 
       1.573135111331e+00       4.222477454610e-03 
       1.698621895592e+00       3.512131115754e-03 
       1.834127512934e+00       2.917917004247e-03 
       1.980444934528e+00       2.421394838490e-03 
       2.138435191726e+00       2.006962564365e-03 
       2.309029199186e+00       1.661390634431e-03 
       2.493232377687e+00       1.373507757866e-03 
       2.692130395285e+00       1.133871876465e-03 
       2.906895534573e+00       9.345451257551e-04 
       3.138793597714e+00       7.688497479268e-04 
       3.389191366484e+00       6.311796818240e-04 
       3.659564657905e+00       5.165364791265e-04 
       3.951507022538e+00       4.219292702001e-04 
       4.266739136701e+00       3.431212445836e-04 
       4.607118943941e+00       2.777102698238e-04 
       4.974652605557e+00       2.234355876361e-04 
       5.371506324689e+00       1.783328231839e-04 
       5.800019113685e+00       1.408471826955e-04 
       6.262716579983e+00       1.099901680047e-04 
       6.762325811764e+00       8.434937609121e-05 
       7.301791451110e+00       6.329119818867e-05 
       7.884293049406e+00       4.602589816953e-05 
       8.513263807261e+00       3.210781090626e-05 
       9.192410809424e+00       2.112798072084e-05 
       9.925736873929e+00       1.272001785191e-05 
       1.071756414427e+01       6.650704465923e-06 
       1.157255956364e+01       2.673460729563e-06 
       1.249576238137e+01       5.583256520838e-07 
       1.349261385375e+01       6.069817604692e-09 
       1.456898931416e+01       6.672797103374e-07 
       1.573123280165e+01       2.103176114099e-06 
       1.698619445202e+01       3.817945540753e-06 
       1.834127087176e+01       5.258945385139e-06 
       1.980444873285e+01       5.993697831434e-06 
       2.138435184532e+01       5.757092027862e-06 
       2.309029198506e+01       4.572467594542e-06 
       2.493232377636e+01       2.878597477110e-06 
       2.692130395282e+01       1.207787451424e-06 
       2.906895534573e+01       1.842815734927e-07 
       3.138793597714e+01       4.690194459175e-08 
       3.389191366484e+01       5.390266362235e-07 
       3.659564657905e+01       1.033877274056e-06 
       3.951507022538e+01       1.019764846087e-06 
       4.266739136701e+01       6.042284956392e-07 
       4.607118943941e+01       1.242253656420e-07 
       4.974652605557e+01       1.543881095230e-08 
       5.371506324689e+01       1.798165275780e-07 
       5.800019113685e+01       2.272163451612e-07 
       6.262716579983e+01       7.901718657758e-08 
       6.762325811764e+01       1.157646378293e-10 
       7.301791451110e+01       4.410291635686e-08 
       7.884293049406e+01       4.004039822579e-08 
       8.513263807261e+01       2.032732105625e-09 
       9.192410809424e+01       7.996678559202e-09 
       9.925736873929e+01       1.531129379560e-08 
       1.071756414427e+02       2.773253626205e-11 
       1.157255956364e+02       2.901199443450e-09 
       1.249576238137e+02       4.312107873117e-11 
       1.349261385375e+02       1.138500636662e-09 
