# Matter power spectrum P(k) at redshift z=99
# for k=1.04775e-05 to 67.6233 h/Mpc,
# number of wavenumbers equal to 246
#    1:k (h/Mpc)              2:P (Mpc/h)^3        
       1.047750691338e-05       7.261927673119e-03 
       1.131335172818e-05       7.820331745737e-03 
       1.221587619877e-05       8.421675986489e-03 
       1.319039970550e-05       9.069258192194e-03 
       1.424266598317e-05       9.766638404421e-03 
       1.537887697396e-05       1.051764069682e-02 
       1.660572938097e-05       1.132639105520e-02 
       1.793045413791e-05       1.219733231416e-02 
       1.936085902737e-05       1.313524224380e-02 
       2.090537469909e-05       1.414527121893e-02 
       2.257310435923e-05       1.523296272192e-02 
       2.437387742372e-05       1.640429444530e-02 
       2.631830745176e-05       1.766569582178e-02 
       2.841785470091e-05       1.902408601793e-02 
       3.068489367268e-05       2.048692970591e-02 
       3.313278604643e-05       2.206225513594e-02 
       3.577595943165e-05       2.375870704909e-02 
       3.862999240274e-05       2.558560727479e-02 
       4.171170631739e-05       2.755297763344e-02 
       4.503926445983e-05       2.967161927316e-02 
       4.863227909323e-05       3.195316450832e-02 
       5.251192705226e-05       3.441013519284e-02 
       5.670107455699e-05       3.705601722530e-02 
       6.122441198393e-05       3.990533413563e-02 
       6.610859938837e-05       4.297372168203e-02 
       7.138242363583e-05       4.627802141688e-02 
       7.707696806873e-05       4.983636194159e-02 
       8.322579570814e-05       5.366826847231e-02 
       8.986514707061e-05       5.779476394569e-02 
       9.703415376577e-05       6.223848243885e-02 
       1.047750691338e-04       6.702379865640e-02 
       1.131335172818e-04       7.217695153381e-02 
       1.221587619877e-04       7.772619073571e-02 
       1.319039970550e-04       8.370193432376e-02 
       1.424266598317e-04       9.013692507548e-02 
       1.537887697396e-04       9.706641242570e-02 
       1.660572938097e-04       1.045283354271e-01 
       1.793045413791e-04       1.125635349068e-01 
       1.936085902737e-04       1.212159614968e-01 
       2.090537469909e-04       1.305329132714e-01 
       2.257310435923e-04       1.405652846215e-01 
       2.437387742372e-04       1.513678302540e-01 
       2.631830745176e-04       1.629994504871e-01 
       2.841785470091e-04       1.755234921224e-01 
       3.068489367268e-04       1.890080670413e-01 
       3.313278604643e-04       2.035264002435e-01 
       3.577595943165e-04       2.191571803681e-01 
       3.862999240274e-04       2.359849437593e-01 
       4.171170631739e-04       2.541004741539e-01 
       4.503926445983e-04       2.736012080277e-01 
       4.863227909323e-04       2.945916790965e-01 
       5.251192705226e-04       3.171839525183e-01 
       5.670107455699e-04       3.414980764002e-01 
       6.122441198393e-04       3.676625413100e-01 
       6.610859938837e-04       3.958147252304e-01 
       7.138242363583e-04       4.261013284917e-01 
       7.707696806873e-04       4.586787792351e-01 
       8.322579570814e-04       4.937136001361e-01 
       8.986514707061e-04       5.313826801402e-01 
       9.703415376577e-04       5.718734972158e-01 
       1.047750691338e-03       6.153841629505e-01 
       1.131335172818e-03       6.621233239465e-01 
       1.221587619877e-03       7.123098220427e-01 
       1.319039970550e-03       7.661720584451e-01 
       1.424266598317e-03       8.239546297730e-01 
       1.537887697396e-03       8.859011173466e-01 
       1.660572938097e-03       9.522588006418e-01 
       1.793045413791e-03       1.023280099819e+00 
       1.936085902737e-03       1.099216304579e+00 
       2.090537469909e-03       1.180312990453e+00 
       2.257310435923e-03       1.266804115851e+00 
       2.437387742372e-03       1.358904853405e+00 
       2.631830745176e-03       1.456802683156e+00 
       2.841785470091e-03       1.560646890522e+00 
       3.068489367268e-03       1.670536062499e+00 
       3.313278604643e-03       1.786503852157e+00 
       3.577595943165e-03       1.908502930788e+00 
       3.862999240274e-03       2.036387730709e+00 
       4.171170631739e-03       2.169896178725e+00 
       4.503926445983e-03       2.308631878994e+00 
       4.863227909323e-03       2.452047290962e+00 
       5.251192705226e-03       2.599430628087e+00 
       5.670107455699e-03       2.749896931845e+00 
       6.122441198393e-03       2.902386513384e+00 
       6.610859938837e-03       3.055668703342e+00 
       7.138242363583e-03       3.208356461544e+00 
       7.707696806873e-03       3.358923892391e+00 
       8.322579570814e-03       3.505725111703e+00 
       8.986514707061e-03       3.647009708629e+00 
       9.703415376577e-03       3.780923304361e+00 
       1.047750691338e-02       3.905491520803e+00 
       1.131335172818e-02       4.018587641267e+00 
       1.221587619877e-02       4.117901585908e+00 
       1.319039970550e-02       4.200915395249e+00 
       1.424266598317e-02       4.264942633466e+00 
       1.537887697392e-02       4.307216364827e+00 
       1.660572938023e-02       4.325061515906e+00 
       1.793045412706e-02       4.316057882802e+00 
       1.936085890181e-02       4.278229638179e+00 
       2.090537352463e-02       4.210199643617e+00 
       2.257309535333e-02       4.111418428641e+00 
       2.437382002918e-02       3.982419879486e+00 
       2.631799944462e-02       3.825166733887e+00 
       2.841644545389e-02       3.643276842578e+00 
       3.067933355377e-02       3.442193964987e+00 
       3.311368470740e-02       3.229239903367e+00 
       3.571840443502e-02       3.013525210438e+00 
       3.847720348444e-02       2.805282785735e+00 
       4.135335538431e-02       2.614402040334e+00 
       4.429361667738e-02       2.448136899796e+00 
       4.724366439141e-02       2.309231893858e+00 
       5.016480835311e-02       2.196111311249e+00 
       5.303989620246e-02       2.104367052145e+00 
       5.586870669566e-02       2.028464185215e+00 
       5.866042680613e-02       1.963150329619e+00 
       6.142798932958e-02       1.903783230389e+00 
       6.418496440164e-02       1.846479672957e+00 
       6.694418833788e-02       1.788199672572e+00 
       6.971731106057e-02       1.726716341521e+00 
       7.251476155766e-02       1.660654588471e+00 
       7.534587671527e-02       1.589472360449e+00 
       7.821907666265e-02       1.513437293348e+00 
       8.114203772912e-02       1.433570120239e+00 
       8.412184535029e-02       1.351490412829e+00 
       8.716512279304e-02       1.269272975256e+00 
       9.027813695930e-02       1.189191995820e+00 
       9.346688431697e-02       1.113507354776e+00 
       9.673716028276e-02       1.044174796865e+00 
       1.000946150830e-01       9.827057672275e-01 
       1.035447986537e-01       9.299361072740e-01 
       1.070931966762e-01       8.859592677573e-01 
       1.107452594425e-01       8.500713377902e-01 
       1.145064249153e-01       8.208037014794e-01 
       1.183821370918e-01       7.960247018220e-01 
       1.223778605862e-01       7.731456380201e-01 
       1.264990921987e-01       7.494509874745e-01 
       1.307513701367e-01       7.225576376530e-01 
       1.351402814784e-01       6.909084148253e-01 
       1.396714684203e-01       6.541814129719e-01 
       1.443506338194e-01       6.134259831254e-01 
       1.491835465229e-01       5.708682104999e-01 
       1.541760469708e-01       5.293635869631e-01 
       1.593340535561e-01       4.917101660279e-01 
       1.646635702297e-01       4.599202877049e-01 
       1.701706958456e-01       4.347283985347e-01 
       1.758616357459e-01       4.154085768084e-01 
       1.817427160982e-01       3.999375873011e-01 
       1.878204015065e-01       3.856825415129e-01 
       1.941013164283e-01       3.698090583954e-01 
       2.005922709503e-01       3.505466227320e-01 
       2.073002914972e-01       3.280428907037e-01 
       2.142326570816e-01       3.042134281272e-01 
       2.213969417533e-01       2.816120727460e-01 
       2.288010639706e-01       2.622570682039e-01 
       2.364533437147e-01       2.469614669180e-01 
       2.443625682930e-01       2.350133902072e-01 
       2.525380679504e-01       2.244181503148e-01 
       2.609898026346e-01       2.130939214386e-01 
       2.697284615565e-01       2.001012620979e-01 
       2.787655775689e-01       1.860198060095e-01 
       2.881136588829e-01       1.725169164891e-01 
       2.977863412677e-01       1.610664397654e-01 
       3.077985646929e-01       1.517611327348e-01 
       3.181667794071e-01       1.435594864109e-01 
       3.289091877812e-01       1.351816888977e-01 
       3.400460299658e-01       1.261641920462e-01 
       3.515999236474e-01       1.172020153677e-01 
       3.635962711085e-01       1.091767347475e-01 
       3.760637506334e-01       1.023097477633e-01 
       3.890349143879e-01       9.593774671147e-02 
       4.025469216825e-01       8.950773967258e-02 
       4.166424456376e-01       8.311173389038e-02 
       4.313708035863e-01       7.721559472288e-02 
       4.467893782977e-01       7.190048377069e-02 
       4.629654199664e-01       6.686901136120e-02 
       4.799783501994e-01       6.191768250528e-02 
       4.979227319373e-01       5.722235375653e-02 
       5.169121270864e-01       5.290281559672e-02 
       5.370841404489e-01       4.876960855723e-02 
       5.586070464571e-01       4.479088753527e-02 
       5.816885094930e-01       4.105181848525e-02 
       6.065870144995e-01       3.748995500394e-02 
       6.336266468475e-01       3.407620850007e-02 
       6.632156059511e-01       3.083447562651e-02 
       6.958678639263e-01       2.772823836951e-02 
       7.322247985589e-01       2.476693219254e-02 
       7.730680195114e-01       2.193946958941e-02 
       8.193049553677e-01       1.925602249421e-02 
       8.718988016039e-01       1.672909391297e-02 
       9.317218031082e-01       1.438408896599e-02 
       9.993660908989e-01       1.225045807825e-02 
       1.075037110174e+00       1.035238119078e-02 
       1.158653485707e+00       8.699452181173e-03 
       1.250099157308e+00       7.284341702837e-03 
       1.349432401273e+00       6.085157659323e-03 
       1.456947457397e+00       5.075376586696e-03 
       1.573135111331e+00       4.227945858007e-03 
       1.698621895592e+00       3.518136412833e-03 
       1.834127512934e+00       2.924523796430e-03 
       1.980444934528e+00       2.428659535918e-03 
       2.138435191726e+00       2.014950869725e-03 
       2.309029199186e+00       1.670157699637e-03 
       2.493232377687e+00       1.383121847502e-03 
       2.692130395285e+00       1.144394653860e-03 
       2.906895534573e+00       9.460531704486e-04 
       3.138793597714e+00       7.814036524883e-04 
       3.389191366484e+00       6.448552702891e-04 
       3.659564657905e+00       5.317101144489e-04 
       3.951507022538e+00       4.380263479886e-04 
       4.266739136701e+00       3.605283436786e-04 
       4.607118943941e+00       2.964555763242e-04 
       4.974652605557e+00       2.435214571800e-04 
       5.371506324689e+00       1.998165074186e-04 
       5.800019113685e+00       1.637518490323e-04 
       6.262716579983e+00       1.340050725552e-04 
       6.762325811764e+00       1.094806850330e-04 
       7.301791451110e+00       8.926836724688e-05 
       7.884293049406e+00       7.261408309072e-05 
       8.513263807261e+00       5.889354194299e-05 
       9.192410809424e+00       4.759243097009e-05 
       9.925736873929e+00       3.828424420083e-05 
       1.071756414427e+01       3.061923169558e-05 
       1.157255956364e+01       2.430956348784e-05 
       1.249576238137e+01       1.911921021911e-05 
       1.349261385375e+01       1.485589237743e-05 
       1.456898931416e+01       1.136318848512e-05 
       1.573123280165e+01       8.514808204478e-06 
       1.698619445202e+01       6.208966475477e-06 
       1.834127087176e+01       4.364614808412e-06 
       1.980444873285e+01       2.916605263216e-06 
       2.138435184532e+01       1.812412025374e-06 
       2.309029198506e+01       1.008087196438e-06 
       2.493232377636e+01       4.648607214309e-07 
       2.692130395282e+01       1.455152024376e-07 
       2.906895534573e+01       1.127049948393e-08 
       3.138793597714e+01       1.949790675768e-08 
       3.389191366484e+01       1.227885366938e-07 
       3.659564657905e+01       2.703368579785e-07 
       3.951507022538e+01       4.119850868337e-07 
       4.266739136701e+01       5.049754509343e-07 
       4.607118943941e+01       5.220431911032e-07 
       4.974652605557e+01       4.585233970013e-07 
       5.371506324689e+01       3.347639925668e-07 
       5.800019113685e+01       1.906320769519e-07 
       6.262716579983e+01       7.128253344477e-08 
       6.762325811764e+01       8.237286602687e-09 
