# Matter power spectrum P(k) at redshift z=99
# for k=1.04775e-05 to 134.926 h/Mpc,
# number of wavenumbers equal to 255
#    1:k (h/Mpc)              2:P (Mpc/h)^3        
       1.047750691338e-05       7.261927095375e-03 
       1.131335172818e-05       7.820332150851e-03 
       1.221587619877e-05       8.421675382434e-03 
       1.319039970550e-05       9.069257738115e-03 
       1.424266598317e-05       9.766636451246e-03 
       1.537887697396e-05       1.051763973654e-02 
       1.660572938097e-05       1.132639250766e-02 
       1.793045413791e-05       1.219733201524e-02 
       1.936085902737e-05       1.313524187219e-02 
       2.090537469909e-05       1.414527084996e-02 
       2.257310435923e-05       1.523296544512e-02 
       2.437387742372e-05       1.640429654662e-02 
       2.631830745176e-05       1.766569603310e-02 
       2.841785470091e-05       1.902408711188e-02 
       3.068489367268e-05       2.048692967472e-02 
       3.313278604643e-05       2.206225467579e-02 
       3.577595943165e-05       2.375870883885e-02 
       3.862999240274e-05       2.558560669858e-02 
       4.171170631739e-05       2.755297672547e-02 
       4.503926445983e-05       2.967161933455e-02 
       4.863227909323e-05       3.195316455701e-02 
       5.251192705226e-05       3.441013466184e-02 
       5.670107455699e-05       3.705601741755e-02 
       6.122441198393e-05       3.990533412893e-02 
       6.610859938837e-05       4.297372242592e-02 
       7.138242363583e-05       4.627802054916e-02 
       7.707696806873e-05       4.983636159958e-02 
       8.322579570814e-05       5.366826787009e-02 
       8.986514707061e-05       5.779476319815e-02 
       9.703415376577e-05       6.223848221924e-02 
       1.047750691338e-04       6.702379825117e-02 
       1.131335172818e-04       7.217695031182e-02 
       1.221587619877e-04       7.772619030473e-02 
       1.319039970550e-04       8.370193380160e-02 
       1.424266598317e-04       9.013692506797e-02 
       1.537887697396e-04       9.706641130539e-02 
       1.660572938097e-04       1.045283343126e-01 
       1.793045413791e-04       1.125635329202e-01 
       1.936085902737e-04       1.212159592327e-01 
       2.090537469909e-04       1.305329107455e-01 
       2.257310435923e-04       1.405652819382e-01 
       2.437387742372e-04       1.513678275099e-01 
       2.631830745176e-04       1.629994475158e-01 
       2.841785470091e-04       1.755234890506e-01 
       3.068489367268e-04       1.890080645329e-01 
       3.313278604643e-04       2.035263977464e-01 
       3.577595943165e-04       2.191571778079e-01 
       3.862999240274e-04       2.359849423297e-01 
       4.171170631739e-04       2.541004713042e-01 
       4.503926445983e-04       2.736012061202e-01 
       4.863227909323e-04       2.945916774689e-01 
       5.251192705226e-04       3.171839507912e-01 
       5.670107455699e-04       3.414980769160e-01 
       6.122441198393e-04       3.676625416355e-01 
       6.610859938837e-04       3.958147272922e-01 
       7.138242363583e-04       4.261013332124e-01 
       7.707696806873e-04       4.586787880911e-01 
       8.322579570814e-04       4.937136112884e-01 
       8.986514707061e-04       5.313826962140e-01 
       9.703415376577e-04       5.718735176867e-01 
       1.047750691338e-03       6.153841926311e-01 
       1.131335172818e-03       6.621233623180e-01 
       1.221587619877e-03       7.123098743703e-01 
       1.319039970550e-03       7.661721263826e-01 
       1.424266598317e-03       8.239547181323e-01 
       1.537887697396e-03       8.859012282809e-01 
       1.660572938097e-03       9.522589495704e-01 
       1.793045413791e-03       1.023280284727e+00 
       1.936085902737e-03       1.099216542110e+00 
       2.090537469909e-03       1.180313285033e+00 
       2.257310435923e-03       1.266804486796e+00 
       2.437387742372e-03       1.358905328438e+00 
       2.631830745176e-03       1.456803285907e+00 
       2.841785470091e-03       1.560647662972e+00 
       3.068489367268e-03       1.670537010482e+00 
       3.313278604643e-03       1.786505039507e+00 
       3.577595943165e-03       1.908504409937e+00 
       3.862999240274e-03       2.036389468515e+00 
       4.171170631739e-03       2.169898252478e+00 
       4.503926445983e-03       2.308634491543e+00 
       4.863227909323e-03       2.452050674218e+00 
       5.251192705226e-03       2.599434680412e+00 
       5.670107455699e-03       2.749901125539e+00 
       6.122441198393e-03       2.902390057148e+00 
       6.610859938837e-03       3.055671268335e+00 
       7.138242363583e-03       3.208360120972e+00 
       7.707696806873e-03       3.358926649024e+00 
       8.322579570814e-03       3.505726886974e+00 
       8.986514707061e-03       3.647012434305e+00 
       9.703415376577e-03       3.780926175029e+00 
       1.047750691338e-02       3.905492875472e+00 
       1.131335172818e-02       4.018589819772e+00 
       1.221587619877e-02       4.117902881287e+00 
       1.319039970550e-02       4.200917691461e+00 
       1.424266598317e-02       4.264943728425e+00 
       1.537887697392e-02       4.307219657337e+00 
       1.660572938023e-02       4.325062443447e+00 
       1.793045412706e-02       4.316060375347e+00 
       1.936085890181e-02       4.278228912465e+00 
       2.090537352463e-02       4.210204449909e+00 
       2.257309535333e-02       4.111418720650e+00 
       2.437382002918e-02       3.982420903353e+00 
       2.631799944462e-02       3.825168645524e+00 
       2.841644545389e-02       3.643282198868e+00 
       3.067933355377e-02       3.442198649397e+00 
       3.311368470740e-02       3.229241533563e+00 
       3.571840443502e-02       3.013516260637e+00 
       3.847720348444e-02       2.805283862058e+00 
       4.135335538431e-02       2.614410578595e+00 
       4.429361667738e-02       2.448132089763e+00 
       4.724366439141e-02       2.309240548522e+00 
       5.016480835311e-02       2.196115091177e+00 
       5.303989620246e-02       2.104369752632e+00 
       5.586870669566e-02       2.028462485216e+00 
       5.866042680613e-02       1.963155203164e+00 
       6.142798932958e-02       1.903779601534e+00 
       6.418496440164e-02       1.846479102692e+00 
       6.694418833788e-02       1.788197370567e+00 
       6.971731106057e-02       1.726715572019e+00 
       7.251476155766e-02       1.660654280321e+00 
       7.534587671527e-02       1.589469741563e+00 
       7.821907666265e-02       1.513436462123e+00 
       8.114203772912e-02       1.433568650499e+00 
       8.412184535029e-02       1.351492148161e+00 
       8.716512279304e-02       1.269273624511e+00 
       9.027813695930e-02       1.189193061950e+00 
       9.346688431697e-02       1.113501001803e+00 
       9.673716028276e-02       1.044174342005e+00 
       1.000946150830e-01       9.827058702915e-01 
       1.035447986537e-01       9.299381586926e-01 
       1.070931966762e-01       8.859583650320e-01 
       1.107452594425e-01       8.500709311021e-01 
       1.145064249153e-01       8.208031565887e-01 
       1.183821370918e-01       7.960240505876e-01 
       1.223778605862e-01       7.731454406754e-01 
       1.264990921987e-01       7.494518349279e-01 
       1.307513701367e-01       7.225573026971e-01 
       1.351402814784e-01       6.909093401925e-01 
       1.396714684203e-01       6.541821427279e-01 
       1.443506338194e-01       6.134276022827e-01 
       1.491835465229e-01       5.708682602208e-01 
       1.541760469708e-01       5.293635687952e-01 
       1.593340535561e-01       4.917101038162e-01 
       1.646635702297e-01       4.599191914131e-01 
       1.701706958456e-01       4.347271146925e-01 
       1.758616357459e-01       4.154069854611e-01 
       1.817427160982e-01       3.999353664698e-01 
       1.878204015065e-01       3.856849094466e-01 
       1.941013164283e-01       3.698131864041e-01 
       2.005922709503e-01       3.505505638290e-01 
       2.073002914972e-01       3.280454925654e-01 
       2.142326570816e-01       3.042124153362e-01 
       2.213969417533e-01       2.816105618008e-01 
       2.288010639706e-01       2.622557616689e-01 
       2.364533437147e-01       2.469607200327e-01 
       2.443625682930e-01       2.350118225268e-01 
       2.525380679504e-01       2.244192170508e-01 
       2.609898026346e-01       2.130949264279e-01 
       2.697284615565e-01       2.001013954796e-01 
       2.787655775689e-01       1.860186155781e-01 
       2.881136588829e-01       1.725157753197e-01 
       2.977863412677e-01       1.610647018423e-01 
       3.077985646929e-01       1.517594106162e-01 
       3.181667794071e-01       1.435580295911e-01 
       3.289091877812e-01       1.351802239785e-01 
       3.400460299658e-01       1.261627735228e-01 
       3.515999236474e-01       1.172004670437e-01 
       3.635962711085e-01       1.091755540559e-01 
       3.760637506334e-01       1.023079453814e-01 
       3.890349143879e-01       9.593613574025e-02 
       4.025469216825e-01       8.950615942505e-02 
       4.166424456376e-01       8.311013350587e-02 
       4.313708035863e-01       7.721387488748e-02 
       4.467893782977e-01       7.189899086114e-02 
       4.629654199664e-01       6.686738670687e-02 
       4.799783501994e-01       6.191590419297e-02 
       4.979227319373e-01       5.722056737018e-02 
       5.169121270864e-01       5.290121725267e-02 
       5.370841404489e-01       4.876810530998e-02 
       5.586070464571e-01       4.478903476571e-02 
       5.816885094930e-01       4.105019917847e-02 
       6.065870144995e-01       3.748820283346e-02 
       6.336266468475e-01       3.407448294587e-02 
       6.632156059511e-01       3.083279311596e-02 
       6.958678639263e-01       2.772660737649e-02 
       7.322247985589e-01       2.476538048352e-02 
       7.730680195114e-01       2.193783643693e-02 
       8.193049553677e-01       1.925436345032e-02 
       8.718988016039e-01       1.672751923574e-02 
       9.317218031082e-01       1.438237113780e-02 
       9.993660908989e-01       1.224884420158e-02 
       1.075037110174e+00       1.035076708570e-02 
       1.158653485707e+00       8.697834132032e-03 
       1.250099157308e+00       7.282736106303e-03 
       1.349432401273e+00       6.083601953945e-03 
       1.456947457397e+00       5.073876027170e-03 
       1.573135111331e+00       4.226446079967e-03 
       1.698621895592e+00       3.516687326443e-03 
       1.834127512934e+00       2.923126808962e-03 
       1.980444934528e+00       2.427315006432e-03 
       2.138435191726e+00       2.013671265304e-03 
       2.309029199186e+00       1.668947899105e-03 
       2.493232377687e+00       1.381978324512e-03 
       2.692130395285e+00       1.143331614561e-03 
       2.906895534573e+00       9.450771985186e-04 
       3.138793597714e+00       7.805250438591e-04 
       3.389191366484e+00       6.440769229090e-04 
       3.659564657905e+00       5.310456138133e-04 
       3.951507022538e+00       4.374833007471e-04 
       4.266739136701e+00       3.601154119331e-04 
       4.607118943941e+00       2.961781002515e-04 
       4.974652605557e+00       2.433903751734e-04 
       5.371506324689e+00       1.998420367665e-04 
       5.800019113685e+00       1.639397274285e-04 
       6.262716579983e+00       1.343669833469e-04 
       6.762325811764e+00       1.100231337574e-04 
       7.301791451110e+00       9.000120828679e-05 
       7.884293049406e+00       7.354384097481e-05 
       8.513263807261e+00       6.002668716554e-05 
       9.192410809424e+00       4.893239592515e-05 
       9.925736873929e+00       3.983395590649e-05 
       1.071756414427e+01       3.237700629193e-05 
       1.157255956364e+01       2.627107762031e-05 
       1.249576238137e+01       2.127486374952e-05 
       1.349261385375e+01       1.719040961425e-05 
       1.456898931416e+01       1.385472747096e-05 
       1.573123280165e+01       1.113331937742e-05 
       1.698619445202e+01       8.915510267236e-06 
       1.834127087176e+01       7.110907904983e-06 
       1.980444873285e+01       5.644729540780e-06 
       2.138435184532e+01       4.455822015576e-06 
       2.309029198506e+01       3.494124424333e-06 
       2.493232377636e+01       2.718387787604e-06 
       2.692130395282e+01       2.094956627667e-06 
       2.906895534573e+01       1.596279014592e-06 
       3.138793597714e+01       1.199671768172e-06 
       3.389191366484e+01       8.866521720625e-07 
       3.659564657905e+01       6.420076605160e-07 
       3.951507022538e+01       4.532127562750e-07 
       4.266739136701e+01       3.099173946916e-07 
       4.607118943941e+01       2.035160342823e-07 
       4.974652605557e+01       1.267790344080e-07 
       5.371506324689e+01       7.359145799610e-08 
       5.800019113685e+01       3.865481205140e-08 
       6.262716579983e+01       1.745797760519e-08 
       6.762325811764e+01       6.068771309069e-09 
       7.301791451110e+01       1.179140395592e-09 
       7.884293049406e+01       1.331502348495e-12 
       8.513263807261e+01       4.729378905319e-10 
       9.192410809424e+01       1.209059009960e-09 
       9.925736873929e+01       1.501572700470e-09 
       1.071756414427e+02       1.240694799654e-09 
       1.157255956364e+02       7.023127648196e-10 
       1.249576238137e+02       2.329265115962e-10 
       1.349261385375e+02       1.931826231421e-11 
