# Matter power spectrum P(k) at redshift z=99
# for k=1.04775e-05 to 67.6233 h/Mpc,
# number of wavenumbers equal to 246
#    1:k (h/Mpc)              2:P (Mpc/h)^3        
       1.047750691338e-05       7.261927673119e-03 
       1.131335172818e-05       7.820331745737e-03 
       1.221587619877e-05       8.421675986489e-03 
       1.319039970550e-05       9.069258192194e-03 
       1.424266598317e-05       9.766638404421e-03 
       1.537887697396e-05       1.051764069682e-02 
       1.660572938097e-05       1.132639105520e-02 
       1.793045413791e-05       1.219733231416e-02 
       1.936085902737e-05       1.313524224380e-02 
       2.090537469909e-05       1.414527121893e-02 
       2.257310435923e-05       1.523296272192e-02 
       2.437387742372e-05       1.640429444530e-02 
       2.631830745176e-05       1.766569582178e-02 
       2.841785470091e-05       1.902408601793e-02 
       3.068489367268e-05       2.048692970592e-02 
       3.313278604643e-05       2.206225513594e-02 
       3.577595943165e-05       2.375870704909e-02 
       3.862999240274e-05       2.558560727479e-02 
       4.171170631739e-05       2.755297763344e-02 
       4.503926445983e-05       2.967161927315e-02 
       4.863227909323e-05       3.195316450832e-02 
       5.251192705226e-05       3.441013519284e-02 
       5.670107455699e-05       3.705601722524e-02 
       6.122441198393e-05       3.990533413562e-02 
       6.610859938837e-05       4.297372168203e-02 
       7.138242363583e-05       4.627802141688e-02 
       7.707696806873e-05       4.983636194159e-02 
       8.322579570814e-05       5.366826847231e-02 
       8.986514707061e-05       5.779476394569e-02 
       9.703415376577e-05       6.223848243885e-02 
       1.047750691338e-04       6.702379865640e-02 
       1.131335172818e-04       7.217695153381e-02 
       1.221587619877e-04       7.772619073573e-02 
       1.319039970550e-04       8.370193432376e-02 
       1.424266598317e-04       9.013692507545e-02 
       1.537887697396e-04       9.706641242570e-02 
       1.660572938097e-04       1.045283354271e-01 
       1.793045413791e-04       1.125635349068e-01 
       1.936085902737e-04       1.212159614968e-01 
       2.090537469909e-04       1.305329132714e-01 
       2.257310435923e-04       1.405652846215e-01 
       2.437387742372e-04       1.513678302540e-01 
       2.631830745176e-04       1.629994504870e-01 
       2.841785470091e-04       1.755234921224e-01 
       3.068489367268e-04       1.890080670413e-01 
       3.313278604643e-04       2.035264002435e-01 
       3.577595943165e-04       2.191571803681e-01 
       3.862999240274e-04       2.359849437592e-01 
       4.171170631739e-04       2.541004741539e-01 
       4.503926445983e-04       2.736012080277e-01 
       4.863227909323e-04       2.945916790965e-01 
       5.251192705226e-04       3.171839525183e-01 
       5.670107455699e-04       3.414980764002e-01 
       6.122441198393e-04       3.676625413100e-01 
       6.610859938837e-04       3.958147252304e-01 
       7.138242363583e-04       4.261013284915e-01 
       7.707696806873e-04       4.586787792351e-01 
       8.322579570814e-04       4.937136001369e-01 
       8.986514707061e-04       5.313826801402e-01 
       9.703415376577e-04       5.718734972158e-01 
       1.047750691338e-03       6.153841629505e-01 
       1.131335172818e-03       6.621233239465e-01 
       1.221587619877e-03       7.123098220431e-01 
       1.319039970550e-03       7.661720584493e-01 
       1.424266598317e-03       8.239546297731e-01 
       1.537887697396e-03       8.859011173467e-01 
       1.660572938097e-03       9.522588006422e-01 
       1.793045413791e-03       1.023280099819e+00 
       1.936085902737e-03       1.099216304579e+00 
       2.090537469909e-03       1.180312990453e+00 
       2.257310435923e-03       1.266804115852e+00 
       2.437387742372e-03       1.358904853407e+00 
       2.631830745176e-03       1.456802683156e+00 
       2.841785470091e-03       1.560646890522e+00 
       3.068489367268e-03       1.670536062499e+00 
       3.313278604643e-03       1.786503852160e+00 
       3.577595943165e-03       1.908502930788e+00 
       3.862999240274e-03       2.036387730709e+00 
       4.171170631739e-03       2.169896178587e+00 
       4.503926445983e-03       2.308631878994e+00 
       4.863227909323e-03       2.452047290962e+00 
       5.251192705226e-03       2.599430628087e+00 
       5.670107455699e-03       2.749896931808e+00 
       6.122441198393e-03       2.902386513384e+00 
       6.610859938837e-03       3.055668696737e+00 
       7.138242363583e-03       3.208356461542e+00 
       7.707696806873e-03       3.358923892710e+00 
       8.322579570814e-03       3.505725595230e+00 
       8.986514707061e-03       3.647009694319e+00 
       9.703415376577e-03       3.780923304341e+00 
       1.047750691338e-02       3.905490319885e+00 
       1.131335172818e-02       4.018588483504e+00 
       1.221587619877e-02       4.117901585021e+00 
       1.319039970550e-02       4.200915312327e+00 
       1.424266598317e-02       4.264942557815e+00 
       1.537887697392e-02       4.307218087381e+00 
       1.660572938023e-02       4.325059366776e+00 
       1.793045412706e-02       4.316057800671e+00 
       1.936085890181e-02       4.278232043678e+00 
       2.090537352463e-02       4.210203254382e+00 
       2.257309535333e-02       4.111417695833e+00 
       2.437382002918e-02       3.982422065556e+00 
       2.631799944462e-02       3.825162185198e+00 
       2.841644545389e-02       3.643282981453e+00 
       3.067933355377e-02       3.442191117357e+00 
       3.311368470740e-02       3.229235597814e+00 
       3.571840443502e-02       3.013513722955e+00 
       3.847720348444e-02       2.805287847813e+00 
       4.135335538431e-02       2.614409991437e+00 
       4.429361667738e-02       2.448133199916e+00 
       4.724366439141e-02       2.309238413155e+00 
       5.016480835311e-02       2.196112346563e+00 
       5.303989620246e-02       2.104365055738e+00 
       5.586870669566e-02       2.028463792044e+00 
       5.866042680613e-02       1.963155647065e+00 
       6.142798932958e-02       1.903783101032e+00 
       6.418496440164e-02       1.846482046921e+00 
       6.694418833788e-02       1.788200002905e+00 
       6.971731106057e-02       1.726716688424e+00 
       7.251476155766e-02       1.660654042337e+00 
       7.534587671527e-02       1.589467832151e+00 
       7.821907666265e-02       1.513437326286e+00 
       8.114203772912e-02       1.433569076696e+00 
       8.412184535029e-02       1.351492070203e+00 
       8.716512279304e-02       1.269274095637e+00 
       9.027813695930e-02       1.189193486957e+00 
       9.346688431697e-02       1.113502553908e+00 
       9.673716028276e-02       1.044175731000e+00 
       1.000946150830e-01       9.827082385667e-01 
       1.035447986537e-01       9.299376639147e-01 
       1.070931966762e-01       8.859603467664e-01 
       1.107452594425e-01       8.500707407113e-01 
       1.145064249153e-01       8.208047637028e-01 
       1.183821370918e-01       7.960263405490e-01 
       1.223778605862e-01       7.731459928488e-01 
       1.264990921987e-01       7.494522412599e-01 
       1.307513701367e-01       7.225573875764e-01 
       1.351402814784e-01       6.909085477397e-01 
       1.396714684203e-01       6.541812279154e-01 
       1.443506338194e-01       6.134266826549e-01 
       1.491835465229e-01       5.708687700174e-01 
       1.541760469708e-01       5.293626598513e-01 
       1.593340535561e-01       4.917108525433e-01 
       1.646635702297e-01       4.599197573970e-01 
       1.701706958456e-01       4.347288580513e-01 
       1.758616357459e-01       4.154078754349e-01 
       1.817427160982e-01       3.999371316095e-01 
       1.878204015065e-01       3.856827525102e-01 
       1.941013164283e-01       3.698097704619e-01 
       2.005922709503e-01       3.505461369543e-01 
       2.073002914972e-01       3.280434715493e-01 
       2.142326570816e-01       3.042141555000e-01 
       2.213969417533e-01       2.816123830008e-01 
       2.288010639706e-01       2.622571530036e-01 
       2.364533437147e-01       2.469617486175e-01 
       2.443625682930e-01       2.350128140595e-01 
       2.525380679504e-01       2.244179004474e-01 
       2.609898026346e-01       2.130941390047e-01 
       2.697284615565e-01       2.001017461775e-01 
       2.787655775689e-01       1.860203021682e-01 
       2.881136588829e-01       1.725170673172e-01 
       2.977863412677e-01       1.610662146048e-01 
       3.077985646929e-01       1.517612898245e-01 
       3.181667794071e-01       1.435592323672e-01 
       3.289091877812e-01       1.351815617325e-01 
       3.400460299658e-01       1.261648213497e-01 
       3.515999236474e-01       1.172019367570e-01 
       3.635962711085e-01       1.091768894761e-01 
       3.760637506334e-01       1.023094999261e-01 
       3.890349143879e-01       9.593777051343e-02 
       4.025469216825e-01       8.950752738085e-02 
       4.166424456376e-01       8.311190693680e-02 
       4.313708035863e-01       7.721552636086e-02 
       4.467893782977e-01       7.190062750137e-02 
       4.629654199664e-01       6.686900726920e-02 
       4.799783501994e-01       6.191748383700e-02 
       4.979227319373e-01       5.722231548639e-02 
       5.169121270864e-01       5.290277326107e-02 
       5.370841404489e-01       4.876989367521e-02 
       5.586070464571e-01       4.479075800730e-02 
       5.816885094930e-01       4.105188700791e-02 
       6.065870144995e-01       3.748994350305e-02 
       6.336266468475e-01       3.407630500085e-02 
       6.632156059511e-01       3.083456530625e-02 
       6.958678639263e-01       2.772822775745e-02 
       7.322247985589e-01       2.476705207983e-02 
       7.730680195114e-01       2.193944192194e-02 
       8.193049553677e-01       1.925591924746e-02 
       8.718988016039e-01       1.672905967013e-02 
       9.317218031082e-01       1.438403652336e-02 
       9.993660908989e-01       1.225046278622e-02 
       1.075037110174e+00       1.035240444197e-02 
       1.158653485707e+00       8.699466413471e-03 
       1.250099157308e+00       7.284319728160e-03 
       1.349432401273e+00       6.085137647523e-03 
       1.456947457397e+00       5.075399136455e-03 
       1.573135111331e+00       4.227909719694e-03 
       1.698621895592e+00       3.518110409184e-03 
       1.834127512934e+00       2.924494831541e-03 
       1.980444934528e+00       2.428615879748e-03 
       2.138435191726e+00       2.014911678094e-03 
       2.309029199186e+00       1.670119971180e-03 
       2.493232377687e+00       1.383075718587e-03 
       2.692130395285e+00       1.144342589881e-03 
       2.906895534573e+00       9.459929852701e-04 
       3.138793597714e+00       7.813424076626e-04 
       3.389191366484e+00       6.447903988942e-04 
       3.659564657905e+00       5.316402353492e-04 
       3.951507022538e+00       4.379485253232e-04 
       4.266739136701e+00       3.604449621106e-04 
       4.607118943941e+00       2.963657157441e-04 
       4.974652605557e+00       2.434239676886e-04 
       5.371506324689e+00       1.997109439860e-04 
       5.800019113685e+00       1.636380825120e-04 
       6.262716579983e+00       1.338827877997e-04 
       6.762325811764e+00       1.093480856416e-04 
       7.301791451110e+00       8.912755770120e-05 
       7.884293049406e+00       7.246403865400e-05 
       8.513263807261e+00       5.873487071396e-05 
       9.192410809424e+00       4.742478756860e-05 
       9.925736873929e+00       3.810861623285e-05 
       1.071756414427e+01       3.043623070177e-05 
       1.157255956364e+01       2.412004675795e-05 
       1.249576238137e+01       1.892542103878e-05 
       1.349261385375e+01       1.465989020819e-05 
       1.456898931416e+01       1.116768269910e-05 
       1.573123280165e+01       8.323377719005e-06 
       1.698619445202e+01       6.025803674951e-06 
       1.834127087176e+01       4.194235996009e-06 
       1.980444873285e+01       2.763986086292e-06 
       2.138435184532e+01       1.682446885695e-06 
       2.309029198506e+01       9.052799152504e-07 
       2.493232377636e+01       3.926185725602e-07 
       2.692130395282e+01       1.054404294052e-07 
       2.906895534573e+01       2.438645154781e-09 
       3.138793597714e+01       3.786910467928e-08 
       3.389191366484e+01       1.610902549903e-07 
       3.659564657905e+01       3.185840034010e-07 
       3.951507022538e+01       4.588833841816e-07 
       4.266739136701e+01       5.400986594853e-07 
       4.607118943941e+01       5.384631349796e-07 
       4.974652605557e+01       4.550239543299e-07 
       5.371506324689e+01       3.165419794448e-07 
       5.800019113685e+01       1.675702718549e-07 
       6.262716579983e+01       5.392836318659e-08 
       6.762325811764e+01       2.889669778945e-09 
