# Matter power spectrum P(k) at redshift z=0
# for k=1.04775e-05 to 67.6233 h/Mpc,
# number of wavenumbers equal to 246
#    1:k (h/Mpc)              2:P (Mpc/h)^3        
       1.047750691338e-05       5.020964806749e+01 
       1.131335172818e-05       5.407048206554e+01 
       1.221587619877e-05       5.822819063869e+01 
       1.319039970550e-05       6.270562589682e+01 
       1.424266598317e-05       6.752731788102e+01 
       1.537887697396e-05       7.271977200258e+01 
       1.660572938097e-05       7.831147241542e+01 
       1.793045413791e-05       8.433311815128e+01 
       1.936085902737e-05       9.081778242446e+01 
       2.090537469909e-05       9.780108061340e+01 
       2.257310435923e-05       1.053213197032e+02 
       2.437387742372e-05       1.134197377001e+02 
       2.631830745176e-05       1.221408202816e+02 
       2.841785470091e-05       1.315324720916e+02 
       3.068489367268e-05       1.416462093730e+02 
       3.313278604643e-05       1.525374500691e+02 
       3.577595943165e-05       1.642660687078e+02 
       3.862999240274e-05       1.768963504868e+02 
       4.171170631739e-05       1.904975992460e+02 
       4.503926445983e-05       2.051444490305e+02 
       4.863227909323e-05       2.209171463752e+02 
       5.251192705226e-05       2.379022222314e+02 
       5.670107455699e-05       2.561927925641e+02 
       6.122441198393e-05       2.758890441790e+02 
       6.610859938837e-05       2.970989225467e+02 
       7.138242363583e-05       3.199385558200e+02 
       7.707696806873e-05       3.445329780878e+02 
       8.322579570814e-05       3.710167315928e+02 
       8.986514707061e-05       3.995346440954e+02 
       9.703415376577e-05       4.302425403884e+02 
       1.047750691338e-04       4.633080762974e+02 
       1.131335172818e-04       4.989116267507e+02 
       1.221587619877e-04       5.372471946561e+02 
       1.319039970550e-04       5.785234124634e+02 
       1.424266598317e-04       6.229645930980e+02 
       1.537887697396e-04       6.708118484951e+02 
       1.660572938097e-04       7.223242660220e+02 
       1.793045413791e-04       7.777801556629e+02 
       1.936085902737e-04       8.374783607333e+02 
       2.090537469909e-04       9.017396264495e+02 
       2.257310435923e-04       9.709080260152e+02 
       2.437387742372e-04       1.045352448644e+03 
       2.631830745176e-04       1.125468122836e+03 
       2.841785470091e-04       1.211678179511e+03 
       3.068489367268e-04       1.304435249091e+03 
       3.313278604643e-04       1.404223052541e+03 
       3.577595943165e-04       1.511558013390e+03 
       3.862999240274e-04       1.626990836494e+03 
       4.171170631739e-04       1.751108027371e+03 
       4.503926445983e-04       1.884533381345e+03 
       4.863227909323e-04       2.027929376471e+03 
       5.251192705226e-04       2.181998446367e+03 
       5.670107455699e-04       2.347484100857e+03 
       6.122441198393e-04       2.525171869337e+03 
       6.610859938837e-04       2.715889981402e+03 
       7.138242363583e-04       2.920509686085e+03 
       7.707696806873e-04       3.139945097711e+03 
       8.322579570814e-04       3.375152334397e+03 
       8.986514707061e-04       3.627127828231e+03 
       9.703415376577e-04       3.896905450016e+03 
       1.047750691338e-03       4.185552170958e+03 
       1.131335172818e-03       4.494162426791e+03 
       1.221587619877e-03       4.823850702675e+03 
       1.319039970550e-03       5.175742735110e+03 
       1.424266598317e-03       5.551019592522e+03 
       1.537887697396e-03       5.950788335877e+03 
       1.660572938097e-03       6.376123046806e+03 
       1.793045413791e-03       6.828073896121e+03 
       1.936085902737e-03       7.307625375386e+03 
       2.090537469909e-03       7.815671907565e+03 
       2.257310435923e-03       8.352990369406e+03 
       2.437387742372e-03       8.920211057548e+03 
       2.631830745176e-03       9.517783061890e+03 
       2.841785470091e-03       1.014593703671e+04 
       3.068489367268e-03       1.080464505740e+04 
       3.313278604643e-03       1.149357459453e+04 
       3.577595943165e-03       1.221203620826e+04 
       3.862999240274e-03       1.295892538505e+04 
       4.171170631739e-03       1.373266002242e+04 
       4.503926445983e-03       1.453111834595e+04 
       4.863227909323e-03       1.535154984227e+04 
       5.251192705226e-03       1.619063613437e+04 
       5.670107455699e-03       1.704431256573e+04 
       6.122441198393e-03       1.790755938454e+04 
       6.610859938837e-03       1.877460418369e+04 
       7.138242363583e-03       1.963872429096e+04 
       7.707696806873e-03       2.049215713296e+04 
       8.322579570814e-03       2.132607026803e+04 
       8.986514707061e-03       2.213055181715e+04 
       9.703415376577e-03       2.289445470770e+04 
       1.047750691338e-02       2.360549044919e+04 
       1.131335172818e-02       2.425023191644e+04 
       1.221587619877e-02       2.481423921830e+04 
       1.319039970550e-02       2.528218503646e+04 
       1.424266598317e-02       2.563814465502e+04 
       1.537887697392e-02       2.586608732880e+04 
       1.660572938023e-02       2.595025532104e+04 
       1.793045412706e-02       2.587634402725e+04 
       1.936085890181e-02       2.563220845985e+04 
       2.090537352463e-02       2.520933845273e+04 
       2.257309535333e-02       2.460446508378e+04 
       2.437382002918e-02       2.382091054014e+04 
       2.631799944462e-02       2.287042157032e+04 
       2.841644545389e-02       2.177451982188e+04 
       3.067933355377e-02       2.056554287725e+04 
       3.311368470740e-02       1.928729694160e+04 
       3.571840443502e-02       1.799402461853e+04 
       3.847720348444e-02       1.674681131459e+04 
       4.135335538431e-02       1.560457392786e+04 
       4.429361667738e-02       1.461035201380e+04 
       4.724366439141e-02       1.378054679854e+04 
       5.016480835311e-02       1.310506983627e+04 
       5.303989620246e-02       1.255716749156e+04 
       5.586870669566e-02       1.210425904696e+04 
       5.866042680613e-02       1.171462678031e+04 
       6.142798932958e-02       1.136047840129e+04 
       6.418496440164e-02       1.101857011813e+04 
       6.694418833788e-02       1.067068937458e+04 
       6.971731106057e-02       1.030356762525e+04 
       7.251476155766e-02       9.908987334605e+03 
       7.534587671527e-02       9.483767809504e+03 
       7.821907666265e-02       9.029505509486e+03 
       8.114203772912e-02       8.552330531186e+03 
       8.412184535029e-02       8.061966739453e+03 
       8.716512279304e-02       7.570784729142e+03 
       9.027813695930e-02       7.092492070265e+03 
       9.346688431697e-02       6.640522592752e+03 
       9.673716028276e-02       6.226692570866e+03 
       1.000946150830e-01       5.859933247569e+03 
       1.035447986537e-01       5.545238914035e+03 
       1.070931966762e-01       5.283125629006e+03 
       1.107452594425e-01       5.069416943570e+03 
       1.145064249153e-01       4.895246953920e+03 
       1.183821370918e-01       4.747845758435e+03 
       1.223778605862e-01       4.611746572483e+03 
       1.264990921987e-01       4.470617227374e+03 
       1.307513701367e-01       4.310280444004e+03 
       1.351402814784e-01       4.121397140889e+03 
       1.396714684203e-01       3.902069988938e+03 
       1.443506338194e-01       3.658631650817e+03 
       1.491835465229e-01       3.404487644916e+03 
       1.541760469708e-01       3.156668030899e+03 
       1.593340535561e-01       2.931978668339e+03 
       1.646635702297e-01       2.742377226917e+03 
       1.701706958456e-01       2.592255690842e+03 
       1.758616357459e-01       2.477239394367e+03 
       1.817427160982e-01       2.385184726330e+03 
       1.878204015065e-01       2.300364681211e+03 
       1.941013164283e-01       2.205758506545e+03 
       2.005922709503e-01       2.090814627225e+03 
       2.073002914972e-01       1.956469005308e+03 
       2.142326570816e-01       1.814195559851e+03 
       2.213969417533e-01       1.679293704173e+03 
       2.288010639706e-01       1.563850073406e+03 
       2.364533437147e-01       1.472691904915e+03 
       2.443625682930e-01       1.401511074318e+03 
       2.525380679504e-01       1.338411150865e+03 
       2.609898026346e-01       1.270903584051e+03 
       2.697284615565e-01       1.193383518966e+03 
       2.787655775689e-01       1.109343428348e+03 
       2.881136588829e-01       1.028773151090e+03 
       2.977863412677e-01       9.604826253681e+02 
       3.077985646929e-01       9.050250487253e+02 
       3.181667794071e-01       8.561468570277e+02 
       3.289091877812e-01       8.061899358731e+02 
       3.400460299658e-01       7.523909182116e+02 
       3.515999236474e-01       6.989229470765e+02 
       3.635962711085e-01       6.510644426308e+02 
       3.760637506334e-01       6.101238114260e+02 
       3.890349143879e-01       5.721316066755e+02 
       4.025469216825e-01       5.337821843723e+02 
       4.166424456376e-01       4.956317680872e+02 
       4.313708035863e-01       4.604706328364e+02 
       4.467893782977e-01       4.287780176829e+02 
       4.629654199664e-01       3.987743763159e+02 
       4.799783501994e-01       3.692423467747e+02 
       4.979227319373e-01       3.412408200119e+02 
       5.169121270864e-01       3.154836945948e+02 
       5.370841404489e-01       2.908367444096e+02 
       5.586070464571e-01       2.671069935969e+02 
       5.816885094930e-01       2.448099270873e+02 
       6.065870144995e-01       2.235679850496e+02 
       6.336266468475e-01       2.032110458818e+02 
       6.632156059511e-01       1.838793733698e+02 
       6.958678639263e-01       1.653547958242e+02 
       7.322247985589e-01       1.476964646602e+02 
       7.730680195114e-01       1.308339164303e+02 
       8.193049553677e-01       1.148313346208e+02 
       8.718988016039e-01       9.976294797283e+01 
       9.317218031082e-01       8.577830304474e+01 
       9.993660908989e-01       7.305508585186e+01 
       1.075037110174e+00       6.173620062642e+01 
       1.158653485707e+00       5.187936644482e+01 
       1.250099157308e+00       4.344036364921e+01 
       1.349432401273e+00       3.628961991669e+01 
       1.456947457397e+00       3.026806286999e+01 
       1.573135111331e+00       2.521469470103e+01 
       1.698621895592e+00       2.098207407957e+01 
       1.834127512934e+00       1.744242805101e+01 
       1.980444934528e+00       1.448571790876e+01 
       2.138435191726e+00       1.201901043475e+01 
       2.309029199186e+00       9.963188998337e+00 
       2.493232377687e+00       8.251880597030e+00 
       2.692130395285e+00       6.828633478945e+00 
       2.906895534573e+00       5.646265858940e+00 
       3.138793597714e+00       4.664915662680e+00 
       3.389191366484e+00       3.851116592345e+00 
       3.659564657905e+00       3.176967532817e+00 
       3.951507022538e+00       2.618896005932e+00 
       4.266739136701e+00       2.157353054926e+00 
       4.607118943941e+00       1.775944252035e+00 
       4.974652605557e+00       1.461003236245e+00 
       5.371506324689e+00       1.201131929963e+00 
       5.800019113685e+00       9.868786642541e-01 
       6.262716579983e+00       8.103541918732e-01 
       6.762325811764e+00       6.650145225366e-01 
       7.301791451110e+00       5.454297697353e-01 
       7.884293049406e+00       4.470992894334e-01 
       8.513263807261e+00       3.662987665158e-01 
       9.192410809424e+00       2.999429588998e-01 
       9.925736873929e+00       2.454809814609e-01 
       1.071756414427e+01       2.008086922154e-01 
       1.157255956364e+01       1.641865363910e-01 
       1.249576238137e+01       1.341771912157e-01 
       1.349261385375e+01       1.096036919197e-01 
       1.456898931416e+01       8.948965383450e-02 
       1.573123280165e+01       7.303393175465e-02 
       1.698619445202e+01       5.957860178116e-02 
       1.834127087176e+01       4.858115766594e-02 
       1.980444873285e+01       3.959721054545e-02 
       2.138435184532e+01       3.226098919641e-02 
       2.309029198506e+01       2.627339319926e-02 
       2.493232377636e+01       2.138803349378e-02 
       2.692130395282e+01       1.740480025467e-02 
       2.906895534573e+01       1.415751461530e-02 
       3.138793597714e+01       1.151140154796e-02 
       3.389191366484e+01       9.356123938824e-03 
       3.659564657905e+01       7.601315408560e-03 
       3.951507022538e+01       6.173141446204e-03 
       4.266739136701e+01       5.011151717126e-03 
       4.607118943941e+01       4.066227062471e-03 
       4.974652605557e+01       3.298002872802e-03 
       5.371506324689e+01       2.673731919944e-03 
       5.800019113685e+01       2.166582223380e-03 
       6.262716579983e+01       1.754758103431e-03 
       6.762325811764e+01       1.420464207041e-03 
