# Matter power spectrum P(k) at redshift z=0
# for k=1.04775e-05 to 67.6233 h/Mpc,
# number of wavenumbers equal to 246
#    1:k (h/Mpc)              2:P (Mpc/h)^3        
       1.047750691338e-05       5.020964806749e+01 
       1.131335172818e-05       5.407048206554e+01 
       1.221587619877e-05       5.822819063841e+01 
       1.319039970550e-05       6.270562589675e+01 
       1.424266598317e-05       6.752731788102e+01 
       1.537887697396e-05       7.271977200257e+01 
       1.660572938097e-05       7.831147241542e+01 
       1.793045413791e-05       8.433311815128e+01 
       1.936085902737e-05       9.081778242446e+01 
       2.090537469909e-05       9.780108061342e+01 
       2.257310435923e-05       1.053213197032e+02 
       2.437387742372e-05       1.134197377001e+02 
       2.631830745176e-05       1.221408202816e+02 
       2.841785470091e-05       1.315324720916e+02 
       3.068489367268e-05       1.416462093731e+02 
       3.313278604643e-05       1.525374500691e+02 
       3.577595943165e-05       1.642660687078e+02 
       3.862999240274e-05       1.768963504868e+02 
       4.171170631739e-05       1.904975992460e+02 
       4.503926445983e-05       2.051444490305e+02 
       4.863227909323e-05       2.209171463752e+02 
       5.251192705226e-05       2.379022222314e+02 
       5.670107455699e-05       2.561927925455e+02 
       6.122441198393e-05       2.758890441791e+02 
       6.610859938837e-05       2.970989225467e+02 
       7.138242363583e-05       3.199385558200e+02 
       7.707696806873e-05       3.445329780878e+02 
       8.322579570814e-05       3.710167315928e+02 
       8.986514707061e-05       3.995346440954e+02 
       9.703415376577e-05       4.302425403884e+02 
       1.047750691338e-04       4.633080762974e+02 
       1.131335172818e-04       4.989116267507e+02 
       1.221587619877e-04       5.372471946561e+02 
       1.319039970550e-04       5.785234124639e+02 
       1.424266598317e-04       6.229645930980e+02 
       1.537887697396e-04       6.708118484951e+02 
       1.660572938097e-04       7.223242660220e+02 
       1.793045413791e-04       7.777801554451e+02 
       1.936085902737e-04       8.374783607333e+02 
       2.090537469909e-04       9.017396264495e+02 
       2.257310435923e-04       9.709080260152e+02 
       2.437387742372e-04       1.045352448644e+03 
       2.631830745176e-04       1.125468122836e+03 
       2.841785470091e-04       1.211678179511e+03 
       3.068489367268e-04       1.304435249091e+03 
       3.313278604643e-04       1.404223052541e+03 
       3.577595943165e-04       1.511558013390e+03 
       3.862999240274e-04       1.626990836571e+03 
       4.171170631739e-04       1.751108027371e+03 
       4.503926445983e-04       1.884533381345e+03 
       4.863227909323e-04       2.027929376470e+03 
       5.251192705226e-04       2.181998446367e+03 
       5.670107455699e-04       2.347484100857e+03 
       6.122441198393e-04       2.525171869336e+03 
       6.610859938837e-04       2.715889981400e+03 
       7.138242363583e-04       2.920509686085e+03 
       7.707696806873e-04       3.139945097710e+03 
       8.322579570814e-04       3.375152334395e+03 
       8.986514707061e-04       3.627127828231e+03 
       9.703415376577e-04       3.896905450016e+03 
       1.047750691338e-03       4.185552170959e+03 
       1.131335172818e-03       4.494162426791e+03 
       1.221587619877e-03       4.823850702670e+03 
       1.319039970550e-03       5.175742738855e+03 
       1.424266598317e-03       5.551019592511e+03 
       1.537887697396e-03       5.950788335883e+03 
       1.660572938097e-03       6.376123046807e+03 
       1.793045413791e-03       6.828073896125e+03 
       1.936085902737e-03       7.307625375386e+03 
       2.090537469909e-03       7.815671898072e+03 
       2.257310435923e-03       8.352990369403e+03 
       2.437387742372e-03       8.920211057542e+03 
       2.631830745176e-03       9.517783061889e+03 
       2.841785470091e-03       1.014593703671e+04 
       3.068489367268e-03       1.080464505737e+04 
       3.313278604643e-03       1.149357459432e+04 
       3.577595943165e-03       1.221203620826e+04 
       3.862999240274e-03       1.295892538505e+04 
       4.171170631739e-03       1.373266002228e+04 
       4.503926445983e-03       1.453111834595e+04 
       4.863227909323e-03       1.535154984216e+04 
       5.251192705226e-03       1.619063613369e+04 
       5.670107455699e-03       1.704431256584e+04 
       6.122441198393e-03       1.790755938487e+04 
       6.610859938837e-03       1.877460418275e+04 
       7.138242363583e-03       1.963872429224e+04 
       7.707696806873e-03       2.049215713264e+04 
       8.322579570814e-03       2.132607231015e+04 
       8.986514707061e-03       2.213055010930e+04 
       9.703415376577e-03       2.289445471309e+04 
       1.047750691338e-02       2.360548716417e+04 
       1.131335172818e-02       2.425023365157e+04 
       1.221587619877e-02       2.481423921492e+04 
       1.319039970550e-02       2.528218652887e+04 
       1.424266598317e-02       2.563814230706e+04 
       1.537887697392e-02       2.586605643720e+04 
       1.660572938023e-02       2.595026924368e+04 
       1.793045412706e-02       2.587633151833e+04 
       1.936085890181e-02       2.563218286475e+04 
       2.090537352463e-02       2.520934934219e+04 
       2.257309535333e-02       2.460444746665e+04 
       2.437382002918e-02       2.382091895015e+04 
       2.631799944462e-02       2.287046078401e+04 
       2.841644545389e-02       2.177448432692e+04 
       3.067933355377e-02       2.056556907621e+04 
       3.311368470740e-02       1.928730541951e+04 
       3.571840443502e-02       1.799399769010e+04 
       3.847720348444e-02       1.674683790510e+04 
       4.135335538431e-02       1.560460936529e+04 
       4.429361667738e-02       1.461035794329e+04 
       4.724366439141e-02       1.378057760712e+04 
       5.016480835311e-02       1.310507466045e+04 
       5.303989620246e-02       1.255714179421e+04 
       5.586870669566e-02       1.210426169370e+04 
       5.866042680613e-02       1.171465744386e+04 
       6.142798932958e-02       1.136047285588e+04 
       6.418496440164e-02       1.101856448415e+04 
       6.694418833788e-02       1.067068185779e+04 
       6.971731106057e-02       1.030356487148e+04 
       7.251476155766e-02       9.908991124243e+03 
       7.534587671527e-02       9.483730465595e+03 
       7.821907666265e-02       9.029536607483e+03 
       8.114203772912e-02       8.552304086205e+03 
       8.412184535029e-02       8.061958480781e+03 
       8.716512279304e-02       7.570754300766e+03 
       9.027813695930e-02       7.092471410955e+03 
       9.346688431697e-02       6.640493609759e+03 
       9.673716028276e-02       6.226692409142e+03 
       1.000946150830e-01       5.859954695321e+03 
       1.035447986537e-01       5.545204388410e+03 
       1.070931966762e-01       5.283160254227e+03 
       1.107452594425e-01       5.069434983544e+03 
       1.145064249153e-01       4.895231233858e+03 
       1.183821370918e-01       4.747826326727e+03 
       1.223778605862e-01       4.611719011481e+03 
       1.264990921987e-01       4.470609616361e+03 
       1.307513701367e-01       4.310262118258e+03 
       1.351402814784e-01       4.121389504810e+03 
       1.396714684203e-01       3.902056094095e+03 
       1.443506338194e-01       3.658651781959e+03 
       1.491835465229e-01       3.404473221066e+03 
       1.541760469708e-01       3.156686043471e+03 
       1.593340535561e-01       2.931974057628e+03 
       1.646635702297e-01       2.742374513360e+03 
       1.701706958456e-01       2.592265774615e+03 
       1.758616357459e-01       2.477240453860e+03 
       1.817427160982e-01       2.385179341543e+03 
       1.878204015065e-01       2.300356666678e+03 
       1.941013164283e-01       2.205757541233e+03 
       2.005922709503e-01       2.090813592117e+03 
       2.073002914972e-01       1.956466737522e+03 
       2.142326570816e-01       1.814193765984e+03 
       2.213969417533e-01       1.679286073357e+03 
       2.288010639706e-01       1.563848617750e+03 
       2.364533437147e-01       1.472682375778e+03 
       2.443625682930e-01       1.401512569001e+03 
       2.525380679504e-01       1.338411033140e+03 
       2.609898026346e-01       1.270900226569e+03 
       2.697284615565e-01       1.193382087677e+03 
       2.787655775689e-01       1.109339071420e+03 
       2.881136588829e-01       1.028766474697e+03 
       2.977863412677e-01       9.604800285835e+02 
       3.077985646929e-01       9.050234005552e+02 
       3.181667794071e-01       8.561453537941e+02 
       3.289091877812e-01       8.061889705084e+02 
       3.400460299658e-01       7.523922549730e+02 
       3.515999236474e-01       6.989232802589e+02 
       3.635962711085e-01       6.510628009348e+02 
       3.760637506334e-01       6.101192564667e+02 
       3.890349143879e-01       5.721303181683e+02 
       4.025469216825e-01       5.337824485623e+02 
       4.166424456376e-01       4.956316717606e+02 
       4.313708035863e-01       4.604691335938e+02 
       4.467893782977e-01       4.287765499627e+02 
       4.629654199664e-01       3.987727510197e+02 
       4.799783501994e-01       3.692407900976e+02 
       4.979227319373e-01       3.412403547162e+02 
       5.169121270864e-01       3.154826591436e+02 
       5.370841404489e-01       2.908350575488e+02 
       5.586070464571e-01       2.671052603303e+02 
       5.816885094930e-01       2.448091313301e+02 
       6.065870144995e-01       2.235669285168e+02 
       6.336266468475e-01       2.032098442379e+02 
       6.632156059511e-01       1.838782243009e+02 
       6.958678639263e-01       1.653529638525e+02 
       7.322247985589e-01       1.476936491085e+02 
       7.730680195114e-01       1.308322797043e+02 
       8.193049553677e-01       1.148293210273e+02 
       8.718988016039e-01       9.976031878038e+01 
       9.317218031082e-01       8.577574362678e+01 
       9.993660908989e-01       7.305208247757e+01 
       1.075037110174e+00       6.173289997575e+01 
       1.158653485707e+00       5.187557835335e+01 
       1.250099157308e+00       4.343640051773e+01 
       1.349432401273e+00       3.628509768936e+01 
       1.456947457397e+00       3.026320579661e+01 
       1.573135111331e+00       2.520919598865e+01 
       1.698621895592e+00       2.097610243172e+01 
       1.834127512934e+00       1.743592269710e+01 
       1.980444934528e+00       1.447857622956e+01 
       2.138435191726e+00       1.201108915129e+01 
       2.309029199186e+00       9.954545789553e+00 
       2.493232377687e+00       8.242361181693e+00 
       2.692130395285e+00       6.818203853900e+00 
       2.906895534573e+00       5.634838064134e+00 
       3.138793597714e+00       4.652455894669e+00 
       3.389191366484e+00       3.837515163629e+00 
       3.659564657905e+00       3.162119472196e+00 
       3.951507022538e+00       2.602752784682e+00 
       4.266739136701e+00       2.139812607221e+00 
       4.607118943941e+00       1.756900903085e+00 
       4.974652605557e+00       1.440372122145e+00 
       5.371506324689e+00       1.178853132576e+00 
       5.800019113685e+00       9.628389875559e-01 
       6.262716579983e+00       7.844890519400e-01 
       6.762325811764e+00       6.372685170757e-01 
       7.301791451110e+00       5.157630562869e-01 
       7.884293049406e+00       4.154945628563e-01 
       8.513263807261e+00       3.327701529669e-01 
       9.192410809424e+00       2.645471029596e-01 
       9.925736873929e+00       2.083273070762e-01 
       1.071756414427e+01       1.620685040257e-01 
       1.157255956364e+01       1.241069969323e-01 
       1.249576238137e+01       9.309711161362e-02 
       1.349261385375e+01       6.795730135657e-02 
       1.456898931416e+01       4.781741716688e-02 
       1.573123280165e+01       3.198479841483e-02 
       1.698619445202e+01       1.989548011995e-02 
       1.834127087176e+01       1.107826769467e-02 
       1.980444873285e+01       5.116477564415e-03 
       2.138435184532e+01       1.606310582550e-03 
       2.309029198506e+01       1.264320086660e-04 
       2.493232377636e+01       2.103494671337e-04 
       2.692130395282e+01       1.338208476973e-03 
       2.906895534573e+01       2.951900828012e-03 
       3.138793597714e+01       4.500543234459e-03 
       3.389191366484e+01       5.514440524004e-03 
       3.659564657905e+01       5.695558560899e-03 
       3.951507022538e+01       4.994852209410e-03 
       4.266739136701e+01       3.637854126441e-03 
       4.607118943941e+01       2.063309435178e-03 
       4.974652605557e+01       7.653650825058e-04 
       5.371506324689e+01       8.562936541131e-05 
       5.800019113685e+01       5.303746758275e-05 
       6.262716579983e+01       3.806711103897e-04 
       6.762325811764e+01       6.566446891656e-04 
