# Matter power spectrum P(k) at redshift z=0
# for k=1.04775e-05 to 67.6233 h/Mpc,
# number of wavenumbers equal to 246
#    1:k (h/Mpc)              2:P (Mpc/h)^3        
       1.047750691338e-05       5.020964806750e+01 
       1.131335172818e-05       5.407048206553e+01 
       1.221587619877e-05       5.822819063898e+01 
       1.319039970550e-05       6.270562589686e+01 
       1.424266598317e-05       6.752731788102e+01 
       1.537887697396e-05       7.271977200258e+01 
       1.660572938097e-05       7.831147241542e+01 
       1.793045413791e-05       8.433311815128e+01 
       1.936085902737e-05       9.081778242446e+01 
       2.090537469909e-05       9.780108061340e+01 
       2.257310435923e-05       1.053213197032e+02 
       2.437387742372e-05       1.134197377001e+02 
       2.631830745176e-05       1.221408202816e+02 
       2.841785470091e-05       1.315324720916e+02 
       3.068489367268e-05       1.416462093729e+02 
       3.313278604643e-05       1.525374500691e+02 
       3.577595943165e-05       1.642660687078e+02 
       3.862999240274e-05       1.768963504868e+02 
       4.171170631739e-05       1.904975992460e+02 
       4.503926445983e-05       2.051444490305e+02 
       4.863227909323e-05       2.209171463752e+02 
       5.251192705226e-05       2.379022222314e+02 
       5.670107455699e-05       2.561927925891e+02 
       6.122441198393e-05       2.758890441791e+02 
       6.610859938837e-05       2.970989225466e+02 
       7.138242363583e-05       3.199385558200e+02 
       7.707696806873e-05       3.445329780878e+02 
       8.322579570814e-05       3.710167315928e+02 
       8.986514707061e-05       3.995346440954e+02 
       9.703415376577e-05       4.302425403884e+02 
       1.047750691338e-04       4.633080762974e+02 
       1.131335172818e-04       4.989116267507e+02 
       1.221587619877e-04       5.372471946561e+02 
       1.319039970550e-04       5.785234124630e+02 
       1.424266598317e-04       6.229645930980e+02 
       1.537887697396e-04       6.708118484951e+02 
       1.660572938097e-04       7.223242660220e+02 
       1.793045413791e-04       7.777801553864e+02 
       1.936085902737e-04       8.374783607333e+02 
       2.090537469909e-04       9.017396264495e+02 
       2.257310435923e-04       9.709080260152e+02 
       2.437387742372e-04       1.045352448644e+03 
       2.631830745176e-04       1.125468122836e+03 
       2.841785470091e-04       1.211678179511e+03 
       3.068489367268e-04       1.304435249091e+03 
       3.313278604643e-04       1.404223052541e+03 
       3.577595943165e-04       1.511558013390e+03 
       3.862999240274e-04       1.626990836446e+03 
       4.171170631739e-04       1.751108027369e+03 
       4.503926445983e-04       1.884533381345e+03 
       4.863227909323e-04       2.027929376470e+03 
       5.251192705226e-04       2.181998446367e+03 
       5.670107455699e-04       2.347484100857e+03 
       6.122441198393e-04       2.525171869336e+03 
       6.610859938837e-04       2.715889981401e+03 
       7.138242363583e-04       2.920509686087e+03 
       7.707696806873e-04       3.139945097711e+03 
       8.322579570814e-04       3.375152334396e+03 
       8.986514707061e-04       3.627127828231e+03 
       9.703415376577e-04       3.896905450016e+03 
       1.047750691338e-03       4.185552170957e+03 
       1.131335172818e-03       4.494162426791e+03 
       1.221587619877e-03       4.823850702671e+03 
       1.319039970550e-03       5.175742740504e+03 
       1.424266598317e-03       5.551019592516e+03 
       1.537887697396e-03       5.950788335877e+03 
       1.660572938097e-03       6.376123046806e+03 
       1.793045413791e-03       6.828073896120e+03 
       1.936085902737e-03       7.307625375387e+03 
       2.090537469909e-03       7.815671857666e+03 
       2.257310435923e-03       8.352990369400e+03 
       2.437387742372e-03       8.920211057535e+03 
       2.631830745176e-03       9.517783061890e+03 
       2.841785470091e-03       1.014593703671e+04 
       3.068489367268e-03       1.080464505753e+04 
       3.313278604643e-03       1.149357459458e+04 
       3.577595943165e-03       1.221203620826e+04 
       3.862999240274e-03       1.295892538505e+04 
       4.171170631739e-03       1.373266002206e+04 
       4.503926445983e-03       1.453111834595e+04 
       4.863227909323e-03       1.535154984227e+04 
       5.251192705226e-03       1.619063613436e+04 
       5.670107455699e-03       1.704431256589e+04 
       6.122441198393e-03       1.790755938449e+04 
       6.610859938837e-03       1.877460417230e+04 
       7.138242363583e-03       1.963872429097e+04 
       7.707696806873e-03       2.049215712381e+04 
       8.322579570814e-03       2.132607230512e+04 
       8.986514707061e-03       2.213055029867e+04 
       9.703415376577e-03       2.289445470808e+04 
       1.047750691338e-02       2.360547911484e+04 
       1.131335172818e-02       2.425022856709e+04 
       1.221587619877e-02       2.481423922985e+04 
       1.319039970550e-02       2.528218797089e+04 
       1.424266598317e-02       2.563814581451e+04 
       1.537887697392e-02       2.586605976349e+04 
       1.660572938023e-02       2.595022736520e+04 
       1.793045412706e-02       2.587634082883e+04 
       1.936085890181e-02       2.563218151122e+04 
       2.090537352463e-02       2.520933364120e+04 
       2.257309535333e-02       2.460457548324e+04 
       2.437382002918e-02       2.382089168402e+04 
       2.631799944462e-02       2.287043927910e+04 
       2.841644545389e-02       2.177450762397e+04 
       3.067933355377e-02       2.056555863792e+04 
       3.311368470740e-02       1.928729822595e+04 
       3.571840443502e-02       1.799399079050e+04 
       3.847720348444e-02       1.674680648923e+04 
       4.135335538431e-02       1.560459872878e+04 
       4.429361667738e-02       1.461037449919e+04 
       4.724366439141e-02       1.378052324915e+04 
       5.016480835311e-02       1.310505617665e+04 
       5.303989620246e-02       1.255712377472e+04 
       5.586870669566e-02       1.210423164595e+04 
       5.866042680613e-02       1.171463115528e+04 
       6.142798932958e-02       1.136047012556e+04 
       6.418496440164e-02       1.101856493645e+04 
       6.694418833788e-02       1.067067007621e+04 
       6.971731106057e-02       1.030356982221e+04 
       7.251476155766e-02       9.908994848707e+03 
       7.534587671527e-02       9.483783498213e+03 
       7.821907666265e-02       9.029493740822e+03 
       8.114203772912e-02       8.552337568082e+03 
       8.412184535029e-02       8.061928218130e+03 
       8.716512279304e-02       7.570777018612e+03 
       9.027813695930e-02       7.092497997952e+03 
       9.346688431697e-02       6.640518298126e+03 
       9.673716028276e-02       6.226705554802e+03 
       1.000946150830e-01       5.859938434237e+03 
       1.035447986537e-01       5.545238414637e+03 
       1.070931966762e-01       5.283126432445e+03 
       1.107452594425e-01       5.069424986810e+03 
       1.145064249153e-01       4.895235641345e+03 
       1.183821370918e-01       4.747839699485e+03 
       1.223778605862e-01       4.611743399622e+03 
       1.264990921987e-01       4.470620269645e+03 
       1.307513701367e-01       4.310276898130e+03 
       1.351402814784e-01       4.121397582555e+03 
       1.396714684203e-01       3.902073776643e+03 
       1.443506338194e-01       3.658631710604e+03 
       1.491835465229e-01       3.404477485659e+03 
       1.541760469708e-01       3.156686150701e+03 
       1.593340535561e-01       2.931976694502e+03 
       1.646635702297e-01       2.742377432350e+03 
       1.701706958456e-01       2.592262250792e+03 
       1.758616357459e-01       2.477240961335e+03 
       1.817427160982e-01       2.385181990118e+03 
       1.878204015065e-01       2.300360678166e+03 
       1.941013164283e-01       2.205760865316e+03 
       2.005922709503e-01       2.090809781603e+03 
       2.073002914972e-01       1.956466279531e+03 
       2.142326570816e-01       1.814196238848e+03 
       2.213969417533e-01       1.679298824235e+03 
       2.288010639706e-01       1.563847391502e+03 
       2.364533437147e-01       1.472684515074e+03 
       2.443625682930e-01       1.401511601901e+03 
       2.525380679504e-01       1.338415720805e+03 
       2.609898026346e-01       1.270904391634e+03 
       2.697284615565e-01       1.193384020443e+03 
       2.787655775689e-01       1.109340899146e+03 
       2.881136588829e-01       1.028772199374e+03 
       2.977863412677e-01       9.604826165978e+02 
       3.077985646929e-01       9.050261808486e+02 
       3.181667794071e-01       8.561458912648e+02 
       3.289091877812e-01       8.061897160628e+02 
       3.400460299658e-01       7.523921634800e+02 
       3.515999236474e-01       6.989248807891e+02 
       3.635962711085e-01       6.510636609373e+02 
       3.760637506334e-01       6.101252945373e+02 
       3.890349143879e-01       5.721337171889e+02 
       4.025469216825e-01       5.337848144601e+02 
       4.166424456376e-01       4.956312454504e+02 
       4.313708035863e-01       4.604692773654e+02 
       4.467893782977e-01       4.287780394261e+02 
       4.629654199664e-01       3.987730447747e+02 
       4.799783501994e-01       3.692427092455e+02 
       4.979227319373e-01       3.412411458725e+02 
       5.169121270864e-01       3.154835723366e+02 
       5.370841404489e-01       2.908357795604e+02 
       5.586070464571e-01       2.671076467392e+02 
       5.816885094930e-01       2.448095872328e+02 
       6.065870144995e-01       2.235679736618e+02 
       6.336266468475e-01       2.032102679862e+02 
       6.632156059511e-01       1.838796833290e+02 
       6.958678639263e-01       1.653547052984e+02 
       7.322247985589e-01       1.476957678598e+02 
       7.730680195114e-01       1.308341175990e+02 
       8.193049553677e-01       1.148313614990e+02 
       8.718988016039e-01       9.976264476741e+01 
       9.317218031082e-01       8.577816176860e+01 
       9.993660908989e-01       7.305498813720e+01 
       1.075037110174e+00       6.173622753637e+01 
       1.158653485707e+00       5.187933951367e+01 
       1.250099157308e+00       4.344019553771e+01 
       1.349432401273e+00       3.628943111817e+01 
       1.456947457397e+00       3.026809112330e+01 
       1.573135111331e+00       2.521466628905e+01 
       1.698621895592e+00       2.098212381163e+01 
       1.834127512934e+00       1.744246946921e+01 
       1.980444934528e+00       1.448562324523e+01 
       2.138435191726e+00       1.201892819912e+01 
       2.309029199186e+00       9.963176864936e+00 
       2.493232377687e+00       8.251815695192e+00 
       2.692130395285e+00       6.828578241424e+00 
       2.906895534573e+00       5.646254347983e+00 
       3.138793597714e+00       4.664865517774e+00 
       3.389191366484e+00       3.851107721946e+00 
       3.659564657905e+00       3.176955547594e+00 
       3.951507022538e+00       2.618886377742e+00 
       4.266739136701e+00       2.157360697969e+00 
       4.607118943941e+00       1.775930425240e+00 
       4.974652605557e+00       1.461002278600e+00 
       5.371506324689e+00       1.201132170913e+00 
       5.800019113685e+00       9.868841698274e-01 
       6.262716579983e+00       8.103502628918e-01 
       6.762325811764e+00       6.650099541785e-01 
       7.301791451110e+00       5.454283050789e-01 
       7.884293049406e+00       4.471028038579e-01 
       8.513263807261e+00       3.662968426653e-01 
       9.192410809424e+00       2.999424880281e-01 
       9.925736873929e+00       2.454793825931e-01 
       1.071756414427e+01       2.008091906963e-01 
       1.157255956364e+01       1.641845906398e-01 
       1.249576238137e+01       1.341776874127e-01 
       1.349261385375e+01       1.096037390674e-01 
       1.456898931416e+01       8.948911151419e-02 
       1.573123280165e+01       7.303389619479e-02 
       1.698619445202e+01       5.957816347560e-02 
       1.834127087176e+01       4.858100198109e-02 
       1.980444873285e+01       3.959718881631e-02 
       2.138435184532e+01       3.226099624002e-02 
       2.309029198506e+01       2.627326090380e-02 
       2.493232377636e+01       2.138841406474e-02 
       2.692130395282e+01       1.740477265124e-02 
       2.906895534573e+01       1.415729447403e-02 
       3.138793597714e+01       1.151134755220e-02 
       3.389191366484e+01       9.356077106885e-03 
       3.659564657905e+01       7.601249419518e-03 
       3.951507022538e+01       6.173041341969e-03 
       4.266739136701e+01       5.011086808935e-03 
       4.607118943941e+01       4.066147289651e-03 
       4.974652605557e+01       3.297951834199e-03 
       5.371506324689e+01       2.673654829856e-03 
       5.800019113685e+01       2.166533971467e-03 
       6.262716579983e+01       1.754719834798e-03 
       6.762325811764e+01       1.420414620388e-03 
