# Matter power spectrum P(k) at redshift z=0
# for k=1.04775e-05 to 67.6233 h/Mpc,
# number of wavenumbers equal to 246
#    1:k (h/Mpc)              2:P (Mpc/h)^3        
       1.047750691338e-05       5.020964806750e+01 
       1.131335172818e-05       5.407048206553e+01 
       1.221587619877e-05       5.822819064056e+01 
       1.319039970550e-05       6.270562589676e+01 
       1.424266598317e-05       6.752731788102e+01 
       1.537887697396e-05       7.271977200258e+01 
       1.660572938097e-05       7.831147241542e+01 
       1.793045413791e-05       8.433311815128e+01 
       1.936085902737e-05       9.081778242446e+01 
       2.090537469909e-05       9.780108061341e+01 
       2.257310435923e-05       1.053213197032e+02 
       2.437387742372e-05       1.134197377001e+02 
       2.631830745176e-05       1.221408202816e+02 
       2.841785470091e-05       1.315324720916e+02 
       3.068489367268e-05       1.416462093730e+02 
       3.313278604643e-05       1.525374500691e+02 
       3.577595943165e-05       1.642660687078e+02 
       3.862999240274e-05       1.768963504868e+02 
       4.171170631739e-05       1.904975992460e+02 
       4.503926445983e-05       2.051444490305e+02 
       4.863227909323e-05       2.209171463752e+02 
       5.251192705226e-05       2.379022222314e+02 
       5.670107455699e-05       2.561927925870e+02 
       6.122441198393e-05       2.758890441791e+02 
       6.610859938837e-05       2.970989225465e+02 
       7.138242363583e-05       3.199385558200e+02 
       7.707696806873e-05       3.445329780878e+02 
       8.322579570814e-05       3.710167315928e+02 
       8.986514707061e-05       3.995346440954e+02 
       9.703415376577e-05       4.302425403884e+02 
       1.047750691338e-04       4.633080762974e+02 
       1.131335172818e-04       4.989116267507e+02 
       1.221587619877e-04       5.372471946561e+02 
       1.319039970550e-04       5.785234124632e+02 
       1.424266598317e-04       6.229645930980e+02 
       1.537887697396e-04       6.708118484951e+02 
       1.660572938097e-04       7.223242660220e+02 
       1.793045413791e-04       7.777801556227e+02 
       1.936085902737e-04       8.374783607333e+02 
       2.090537469909e-04       9.017396264495e+02 
       2.257310435923e-04       9.709080260152e+02 
       2.437387742372e-04       1.045352448644e+03 
       2.631830745176e-04       1.125468122836e+03 
       2.841785470091e-04       1.211678179511e+03 
       3.068489367268e-04       1.304435249091e+03 
       3.313278604643e-04       1.404223052541e+03 
       3.577595943165e-04       1.511558013390e+03 
       3.862999240274e-04       1.626990836444e+03 
       4.171170631739e-04       1.751108027371e+03 
       4.503926445983e-04       1.884533381345e+03 
       4.863227909323e-04       2.027929376471e+03 
       5.251192705226e-04       2.181998446367e+03 
       5.670107455699e-04       2.347484100857e+03 
       6.122441198393e-04       2.525171869338e+03 
       6.610859938837e-04       2.715889981400e+03 
       7.138242363583e-04       2.920509686089e+03 
       7.707696806873e-04       3.139945097711e+03 
       8.322579570814e-04       3.375152334397e+03 
       8.986514707061e-04       3.627127828231e+03 
       9.703415376577e-04       3.896905450016e+03 
       1.047750691338e-03       4.185552170957e+03 
       1.131335172818e-03       4.494162426791e+03 
       1.221587619877e-03       4.823850702664e+03 
       1.319039970550e-03       5.175742735154e+03 
       1.424266598317e-03       5.551019592523e+03 
       1.537887697396e-03       5.950788335879e+03 
       1.660572938097e-03       6.376123046806e+03 
       1.793045413791e-03       6.828073896123e+03 
       1.936085902737e-03       7.307625375387e+03 
       2.090537469909e-03       7.815671859608e+03 
       2.257310435923e-03       8.352990369400e+03 
       2.437387742372e-03       8.920211057539e+03 
       2.631830745176e-03       9.517783061890e+03 
       2.841785470091e-03       1.014593703671e+04 
       3.068489367268e-03       1.080464505733e+04 
       3.313278604643e-03       1.149357459548e+04 
       3.577595943165e-03       1.221203620826e+04 
       3.862999240274e-03       1.295892538505e+04 
       4.171170631739e-03       1.373266002587e+04 
       4.503926445983e-03       1.453111834595e+04 
       4.863227909323e-03       1.535154984227e+04 
       5.251192705226e-03       1.619063613436e+04 
       5.670107455699e-03       1.704431256611e+04 
       6.122441198393e-03       1.790755938455e+04 
       6.610859938837e-03       1.877460423168e+04 
       7.138242363583e-03       1.963872429095e+04 
       7.707696806873e-03       2.049215713412e+04 
       8.322579570814e-03       2.132607117194e+04 
       8.986514707061e-03       2.213055025180e+04 
       9.703415376577e-03       2.289445470803e+04 
       1.047750691338e-02       2.360548711983e+04 
       1.131335172818e-02       2.425022856748e+04 
       1.221587619877e-02       2.481423921727e+04 
       1.319039970550e-02       2.528218648336e+04 
       1.424266598317e-02       2.563814482856e+04 
       1.537887697392e-02       2.586607444628e+04 
       1.660572938023e-02       2.595025268848e+04 
       1.793045412706e-02       2.587634094596e+04 
       1.936085890181e-02       2.563220315894e+04 
       2.090537352463e-02       2.520931774294e+04 
       2.257309535333e-02       2.460447916432e+04 
       2.437382002918e-02       2.382089066954e+04 
       2.631799944462e-02       2.287044970858e+04 
       2.841644545389e-02       2.177455479936e+04 
       3.067933355377e-02       2.056556221662e+04 
       3.311368470740e-02       1.928729517676e+04 
       3.571840443502e-02       1.799399118977e+04 
       3.847720348444e-02       1.674681369693e+04 
       4.135335538431e-02       1.560465205226e+04 
       4.429361667738e-02       1.461037648095e+04 
       4.724366439141e-02       1.378053452895e+04 
       5.016480835311e-02       1.310507658158e+04 
       5.303989620246e-02       1.255713215833e+04 
       5.586870669566e-02       1.210426594141e+04 
       5.866042680613e-02       1.171467340244e+04 
       6.142798932958e-02       1.136047807113e+04 
       6.418496440164e-02       1.101857677713e+04 
       6.694418833788e-02       1.067068941462e+04 
       6.971731106057e-02       1.030357581935e+04 
       7.251476155766e-02       9.908986669208e+03 
       7.534587671527e-02       9.483795504207e+03 
       7.821907666265e-02       9.029495851101e+03 
       8.114203772912e-02       8.552336034147e+03 
       8.412184535029e-02       8.061961307656e+03 
       8.716512279304e-02       7.570769986422e+03 
       9.027813695930e-02       7.092500961174e+03 
       9.346688431697e-02       6.640503216335e+03 
       9.673716028276e-02       6.226705799737e+03 
       1.000946150830e-01       5.859934470455e+03 
       1.035447986537e-01       5.545245487788e+03 
       1.070931966762e-01       5.283136657764e+03 
       1.107452594425e-01       5.069420564452e+03 
       1.145064249153e-01       4.895248082064e+03 
       1.183821370918e-01       4.747841492520e+03 
       1.223778605862e-01       4.611721014068e+03 
       1.264990921987e-01       4.470619582942e+03 
       1.307513701367e-01       4.310276403024e+03 
       1.351402814784e-01       4.121394891907e+03 
       1.396714684203e-01       3.902068950242e+03 
       1.443506338194e-01       3.658638554548e+03 
       1.491835465229e-01       3.404482541278e+03 
       1.541760469708e-01       3.156678541723e+03 
       1.593340535561e-01       2.931980416111e+03 
       1.646635702297e-01       2.742374064262e+03 
       1.701706958456e-01       2.592255116806e+03 
       1.758616357459e-01       2.477236886985e+03 
       1.817427160982e-01       2.385183492666e+03 
       1.878204015065e-01       2.300361124703e+03 
       1.941013164283e-01       2.205760559162e+03 
       2.005922709503e-01       2.090818353299e+03 
       2.073002914972e-01       1.956466400189e+03 
       2.142326570816e-01       1.814199658021e+03 
       2.213969417533e-01       1.679296598181e+03 
       2.288010639706e-01       1.563847992412e+03 
       2.364533437147e-01       1.472689664708e+03 
       2.443625682930e-01       1.401513310154e+03 
       2.525380679504e-01       1.338410098057e+03 
       2.609898026346e-01       1.270906003700e+03 
       2.697284615565e-01       1.193383255636e+03 
       2.787655775689e-01       1.109340924574e+03 
       2.881136588829e-01       1.028771119688e+03 
       2.977863412677e-01       9.604821719130e+02 
       3.077985646929e-01       9.050241644582e+02 
       3.181667794071e-01       8.561474742766e+02 
       3.289091877812e-01       8.061891641448e+02 
       3.400460299658e-01       7.523917545600e+02 
       3.515999236474e-01       6.989230855324e+02 
       3.635962711085e-01       6.510636985034e+02 
       3.760637506334e-01       6.101216854415e+02 
       3.890349143879e-01       5.721317726371e+02 
       4.025469216825e-01       5.337838378068e+02 
       4.166424456376e-01       4.956332825410e+02 
       4.313708035863e-01       4.604692920709e+02 
       4.467893782977e-01       4.287802983147e+02 
       4.629654199664e-01       3.987735736066e+02 
       4.799783501994e-01       3.692426662145e+02 
       4.979227319373e-01       3.412411853505e+02 
       5.169121270864e-01       3.154846044189e+02 
       5.370841404489e-01       2.908355190209e+02 
       5.586070464571e-01       2.671069574670e+02 
       5.816885094930e-01       2.448112368322e+02 
       6.065870144995e-01       2.235675973269e+02 
       6.336266468475e-01       2.032103833309e+02 
       6.632156059511e-01       1.838790960893e+02 
       6.958678639263e-01       1.653546870775e+02 
       7.322247985589e-01       1.476950928245e+02 
       7.730680195114e-01       1.308339615294e+02 
       8.193049553677e-01       1.148315721722e+02 
       8.718988016039e-01       9.976265712560e+01 
       9.317218031082e-01       8.577825746344e+01 
       9.993660908989e-01       7.305499914455e+01 
       1.075037110174e+00       6.173633487426e+01 
       1.158653485707e+00       5.187939662170e+01 
       1.250099157308e+00       4.344050394771e+01 
       1.349432401273e+00       3.628971204224e+01 
       1.456947457397e+00       3.026801052700e+01 
       1.573135111331e+00       2.521480104271e+01 
       1.698621895592e+00       2.098222433647e+01 
       1.834127512934e+00       1.744243051570e+01 
       1.980444934528e+00       1.448579885882e+01 
       2.138435191726e+00       1.201904941922e+01 
       2.309029199186e+00       9.963259803117e+00 
       2.493232377687e+00       8.251849502909e+00 
       2.692130395285e+00       6.828675257317e+00 
       2.906895534573e+00       5.646319534799e+00 
       3.138793597714e+00       4.664926816443e+00 
       3.389191366484e+00       3.851136745035e+00 
       3.659564657905e+00       3.176963120618e+00 
       3.951507022538e+00       2.618893342125e+00 
       4.266739136701e+00       2.157365725092e+00 
       4.607118943941e+00       1.775944681260e+00 
       4.974652605557e+00       1.461005124534e+00 
       5.371506324689e+00       1.201138957214e+00 
       5.800019113685e+00       9.868798718458e-01 
       6.262716579983e+00       8.103582588759e-01 
       6.762325811764e+00       6.650144637930e-01 
       7.301791451110e+00       5.454301311402e-01 
       7.884293049406e+00       4.470989324080e-01 
       8.513263807261e+00       3.662999307115e-01 
       9.192410809424e+00       2.999435704904e-01 
       9.925736873929e+00       2.454826445030e-01 
       1.071756414427e+01       2.008093112897e-01 
       1.157255956364e+01       1.641860077492e-01 
       1.249576238137e+01       1.341776632079e-01 
       1.349261385375e+01       1.096037747423e-01 
       1.456898931416e+01       8.948990555682e-02 
       1.573123280165e+01       7.303412040324e-02 
       1.698619445202e+01       5.957823946107e-02 
       1.834127087176e+01       4.858141555415e-02 
       1.980444873285e+01       3.959716063088e-02 
       2.138435184532e+01       3.226121596227e-02 
       2.309029198506e+01       2.627370177124e-02 
       2.493232377636e+01       2.138856545605e-02 
       2.692130395282e+01       1.740482761043e-02 
       2.906895534573e+01       1.415745843543e-02 
       3.138793597714e+01       1.151138477772e-02 
       3.389191366484e+01       9.355973744877e-03 
       3.659564657905e+01       7.601270334653e-03 
       3.951507022538e+01       6.173131287066e-03 
       4.266739136701e+01       5.011121512711e-03 
       4.607118943941e+01       4.066242356568e-03 
       4.974652605557e+01       3.298011170435e-03 
       5.371506324689e+01       2.673730362444e-03 
       5.800019113685e+01       2.166597788373e-03 
       6.262716579983e+01       1.754781960725e-03 
       6.762325811764e+01       1.420478159959e-03 
