# Matter power spectrum P(k) at redshift z=0
# for k=1.04775e-05 to 67.6233 h/Mpc,
# number of wavenumbers equal to 246
#    1:k (h/Mpc)              2:P (Mpc/h)^3        
       1.047750691338e-05       5.020964806750e+01 
       1.131335172818e-05       5.407048206553e+01 
       1.221587619877e-05       5.822819063916e+01 
       1.319039970550e-05       6.270562589683e+01 
       1.424266598317e-05       6.752731788102e+01 
       1.537887697396e-05       7.271977200257e+01 
       1.660572938097e-05       7.831147241542e+01 
       1.793045413791e-05       8.433311815128e+01 
       1.936085902737e-05       9.081778242446e+01 
       2.090537469909e-05       9.780108061340e+01 
       2.257310435923e-05       1.053213197032e+02 
       2.437387742372e-05       1.134197377001e+02 
       2.631830745176e-05       1.221408202816e+02 
       2.841785470091e-05       1.315324720916e+02 
       3.068489367268e-05       1.416462093729e+02 
       3.313278604643e-05       1.525374500691e+02 
       3.577595943165e-05       1.642660687078e+02 
       3.862999240274e-05       1.768963504868e+02 
       4.171170631739e-05       1.904975992460e+02 
       4.503926445983e-05       2.051444490305e+02 
       4.863227909323e-05       2.209171463752e+02 
       5.251192705226e-05       2.379022222314e+02 
       5.670107455699e-05       2.561927925584e+02 
       6.122441198393e-05       2.758890441791e+02 
       6.610859938837e-05       2.970989225466e+02 
       7.138242363583e-05       3.199385558200e+02 
       7.707696806873e-05       3.445329780878e+02 
       8.322579570814e-05       3.710167315928e+02 
       8.986514707061e-05       3.995346440954e+02 
       9.703415376577e-05       4.302425403884e+02 
       1.047750691338e-04       4.633080762974e+02 
       1.131335172818e-04       4.989116267507e+02 
       1.221587619877e-04       5.372471946561e+02 
       1.319039970550e-04       5.785234124628e+02 
       1.424266598317e-04       6.229645930980e+02 
       1.537887697396e-04       6.708118484951e+02 
       1.660572938097e-04       7.223242660220e+02 
       1.793045413791e-04       7.777801553563e+02 
       1.936085902737e-04       8.374783607333e+02 
       2.090537469909e-04       9.017396264495e+02 
       2.257310435923e-04       9.709080260152e+02 
       2.437387742372e-04       1.045352448644e+03 
       2.631830745176e-04       1.125468122836e+03 
       2.841785470091e-04       1.211678179511e+03 
       3.068489367268e-04       1.304435249091e+03 
       3.313278604643e-04       1.404223052541e+03 
       3.577595943165e-04       1.511558013390e+03 
       3.862999240274e-04       1.626990836426e+03 
       4.171170631739e-04       1.751108027370e+03 
       4.503926445983e-04       1.884533381345e+03 
       4.863227909323e-04       2.027929376470e+03 
       5.251192705226e-04       2.181998446368e+03 
       5.670107455699e-04       2.347484100857e+03 
       6.122441198393e-04       2.525171869338e+03 
       6.610859938837e-04       2.715889981401e+03 
       7.138242363583e-04       2.920509686094e+03 
       7.707696806873e-04       3.139945097711e+03 
       8.322579570814e-04       3.375152334396e+03 
       8.986514707061e-04       3.627127828231e+03 
       9.703415376577e-04       3.896905450016e+03 
       1.047750691338e-03       4.185552170959e+03 
       1.131335172818e-03       4.494162426791e+03 
       1.221587619877e-03       4.823850702666e+03 
       1.319039970550e-03       5.175742738444e+03 
       1.424266598317e-03       5.551019592525e+03 
       1.537887697396e-03       5.950788335879e+03 
       1.660572938097e-03       6.376123046803e+03 
       1.793045413791e-03       6.828073896117e+03 
       1.936085902737e-03       7.307625375387e+03 
       2.090537469909e-03       7.815671860127e+03 
       2.257310435923e-03       8.352990369400e+03 
       2.437387742372e-03       8.920211057531e+03 
       2.631830745176e-03       9.517783061890e+03 
       2.841785470091e-03       1.014593703671e+04 
       3.068489367268e-03       1.080464505735e+04 
       3.313278604643e-03       1.149357459545e+04 
       3.577595943165e-03       1.221203620826e+04 
       3.862999240274e-03       1.295892538505e+04 
       4.171170631739e-03       1.373266002331e+04 
       4.503926445983e-03       1.453111834595e+04 
       4.863227909323e-03       1.535154984227e+04 
       5.251192705226e-03       1.619063613436e+04 
       5.670107455699e-03       1.704431256611e+04 
       6.122441198393e-03       1.790755938448e+04 
       6.610859938837e-03       1.877460421447e+04 
       7.138242363583e-03       1.963872429095e+04 
       7.707696806873e-03       2.049215712252e+04 
       8.322579570814e-03       2.132607230596e+04 
       8.986514707061e-03       2.213055077615e+04 
       9.703415376577e-03       2.289445470792e+04 
       1.047750691338e-02       2.360548306384e+04 
       1.131335172818e-02       2.425023006033e+04 
       1.221587619877e-02       2.481424189348e+04 
       1.319039970550e-02       2.528218641776e+04 
       1.424266598317e-02       2.563814321881e+04 
       1.537887697392e-02       2.586607780408e+04 
       1.660572938023e-02       2.595027470121e+04 
       1.793045412706e-02       2.587634127742e+04 
       1.936085890181e-02       2.563218992909e+04 
       2.090537352463e-02       2.520934170798e+04 
       2.257309535333e-02       2.460444960570e+04 
       2.437382002918e-02       2.382086849473e+04 
       2.631799944462e-02       2.287042487066e+04 
       2.841644545389e-02       2.177453376179e+04 
       3.067933355377e-02       2.056553409503e+04 
       3.311368470740e-02       1.928728997651e+04 
       3.571840443502e-02       1.799405720602e+04 
       3.847720348444e-02       1.674684942124e+04 
       4.135335538431e-02       1.560460022911e+04 
       4.429361667738e-02       1.461038865809e+04 
       4.724366439141e-02       1.378056445269e+04 
       5.016480835311e-02       1.310507356266e+04 
       5.303989620246e-02       1.255715113970e+04 
       5.586870669566e-02       1.210423947123e+04 
       5.866042680613e-02       1.171463573007e+04 
       6.142798932958e-02       1.136048424579e+04 
       6.418496440164e-02       1.101854985035e+04 
       6.694418833788e-02       1.067069767136e+04 
       6.971731106057e-02       1.030359256578e+04 
       7.251476155766e-02       9.908992976301e+03 
       7.534587671527e-02       9.483767644663e+03 
       7.821907666265e-02       9.029511395105e+03 
       8.114203772912e-02       8.552347958456e+03 
       8.412184535029e-02       8.061970972734e+03 
       8.716512279304e-02       7.570774209286e+03 
       9.027813695930e-02       7.092511558513e+03 
       9.346688431697e-02       6.640502783506e+03 
       9.673716028276e-02       6.226708355729e+03 
       1.000946150830e-01       5.859946636252e+03 
       1.035447986537e-01       5.545248296970e+03 
       1.070931966762e-01       5.283121097994e+03 
       1.107452594425e-01       5.069428769889e+03 
       1.145064249153e-01       4.895244261055e+03 
       1.183821370918e-01       4.747839663299e+03 
       1.223778605862e-01       4.611745303639e+03 
       1.264990921987e-01       4.470623705666e+03 
       1.307513701367e-01       4.310274189746e+03 
       1.351402814784e-01       4.121400150995e+03 
       1.396714684203e-01       3.902069899050e+03 
       1.443506338194e-01       3.658638057627e+03 
       1.491835465229e-01       3.404487740693e+03 
       1.541760469708e-01       3.156673539348e+03 
       1.593340535561e-01       2.931977420418e+03 
       1.646635702297e-01       2.742368410986e+03 
       1.701706958456e-01       2.592261178057e+03 
       1.758616357459e-01       2.477238407995e+03 
       1.817427160982e-01       2.385185276478e+03 
       1.878204015065e-01       2.300355234709e+03 
       1.941013164283e-01       2.205760557718e+03 
       2.005922709503e-01       2.090808579405e+03 
       2.073002914972e-01       1.956469501070e+03 
       2.142326570816e-01       1.814194118237e+03 
       2.213969417533e-01       1.679296626789e+03 
       2.288010639706e-01       1.563847415108e+03 
       2.364533437147e-01       1.472687057299e+03 
       2.443625682930e-01       1.401513066298e+03 
       2.525380679504e-01       1.338413049544e+03 
       2.609898026346e-01       1.270900731234e+03 
       2.697284615565e-01       1.193381082911e+03 
       2.787655775689e-01       1.109340411902e+03 
       2.881136588829e-01       1.028770557837e+03 
       2.977863412677e-01       9.604809787645e+02 
       3.077985646929e-01       9.050239455609e+02 
       3.181667794071e-01       8.561460220763e+02 
       3.289091877812e-01       8.061881863346e+02 
       3.400460299658e-01       7.523942038665e+02 
       3.515999236474e-01       6.989223138095e+02 
       3.635962711085e-01       6.510647364995e+02 
       3.760637506334e-01       6.101223596267e+02 
       3.890349143879e-01       5.721316892894e+02 
       4.025469216825e-01       5.337832120458e+02 
       4.166424456376e-01       4.956333081568e+02 
       4.313708035863e-01       4.604706637719e+02 
       4.467893782977e-01       4.287789386597e+02 
       4.629654199664e-01       3.987729994161e+02 
       4.799783501994e-01       3.692430008863e+02 
       4.979227319373e-01       3.412408334760e+02 
       5.169121270864e-01       3.154848542524e+02 
       5.370841404489e-01       2.908362646633e+02 
       5.586070464571e-01       2.671074692599e+02 
       5.816885094930e-01       2.448103723936e+02 
       6.065870144995e-01       2.235683201150e+02 
       6.336266468475e-01       2.032112057527e+02 
       6.632156059511e-01       1.838795055313e+02 
       6.958678639263e-01       1.653547337270e+02 
       7.322247985589e-01       1.476957216320e+02 
       7.730680195114e-01       1.308334867258e+02 
       8.193049553677e-01       1.148309609196e+02 
       8.718988016039e-01       9.976269795221e+01 
       9.317218031082e-01       8.577838130124e+01 
       9.993660908989e-01       7.305511189892e+01 
       1.075037110174e+00       6.173592301353e+01 
       1.158653485707e+00       5.187937391064e+01 
       1.250099157308e+00       4.344044363966e+01 
       1.349432401273e+00       3.628951640434e+01 
       1.456947457397e+00       3.026811047852e+01 
       1.573135111331e+00       2.521473617952e+01 
       1.698621895592e+00       2.098221954958e+01 
       1.834127512934e+00       1.744255849570e+01 
       1.980444934528e+00       1.448578310309e+01 
       2.138435191726e+00       1.201901269742e+01 
       2.309029199186e+00       9.963191140606e+00 
       2.493232377687e+00       8.251838845273e+00 
       2.692130395285e+00       6.828663306655e+00 
       2.906895534573e+00       5.646316477262e+00 
       3.138793597714e+00       4.664919338614e+00 
       3.389191366484e+00       3.851149605883e+00 
       3.659564657905e+00       3.176947987273e+00 
       3.951507022538e+00       2.618901052227e+00 
       4.266739136701e+00       2.157364674473e+00 
       4.607118943941e+00       1.775939417692e+00 
       4.974652605557e+00       1.460995018727e+00 
       5.371506324689e+00       1.201137276753e+00 
       5.800019113685e+00       9.868835179401e-01 
       6.262716579983e+00       8.103578122848e-01 
       6.762325811764e+00       6.650183347279e-01 
       7.301791451110e+00       5.454308648487e-01 
       7.884293049406e+00       4.471018396401e-01 
       8.513263807261e+00       3.662977070303e-01 
       9.192410809424e+00       2.999441654576e-01 
       9.925736873929e+00       2.454819402960e-01 
       1.071756414427e+01       2.008087047448e-01 
       1.157255956364e+01       1.641864273439e-01 
       1.249576238137e+01       1.341772807284e-01 
       1.349261385375e+01       1.096042567357e-01 
       1.456898931416e+01       8.948916128872e-02 
       1.573123280165e+01       7.303395977004e-02 
       1.698619445202e+01       5.957851398838e-02 
       1.834127087176e+01       4.858143119597e-02 
       1.980444873285e+01       3.959736510634e-02 
       2.138435184532e+01       3.226140085387e-02 
       2.309029198506e+01       2.627353019233e-02 
       2.493232377636e+01       2.138856498704e-02 
       2.692130395282e+01       1.740484614196e-02 
       2.906895534573e+01       1.415748848429e-02 
       3.138793597714e+01       1.151134772704e-02 
       3.389191366484e+01       9.356152994994e-03 
       3.659564657905e+01       7.601164700053e-03 
       3.951507022538e+01       6.173077330243e-03 
       4.266739136701e+01       5.011174568280e-03 
       4.607118943941e+01       4.066262484716e-03 
       4.974652605557e+01       3.298021619150e-03 
       5.371506324689e+01       2.673714655042e-03 
       5.800019113685e+01       2.166576697021e-03 
       6.262716579983e+01       1.754775115622e-03 
       6.762325811764e+01       1.420482411770e-03 
