# Matter power spectrum P(k) at redshift z=0
# for k=1.04775e-05 to 67.6233 h/Mpc,
# number of wavenumbers equal to 246
#    1:k (h/Mpc)              2:P (Mpc/h)^3        
       1.047750691338e-05       5.020964806755e+01 
       1.131335172818e-05       5.407048206553e+01 
       1.221587619877e-05       5.822819064088e+01 
       1.319039970550e-05       6.270562589676e+01 
       1.424266598317e-05       6.752731788102e+01 
       1.537887697396e-05       7.271977200258e+01 
       1.660572938097e-05       7.831147241542e+01 
       1.793045413791e-05       8.433311815128e+01 
       1.936085902737e-05       9.081778242446e+01 
       2.090537469909e-05       9.780108061340e+01 
       2.257310435923e-05       1.053213197032e+02 
       2.437387742372e-05       1.134197377001e+02 
       2.631830745176e-05       1.221408202816e+02 
       2.841785470091e-05       1.315324720916e+02 
       3.068489367268e-05       1.416462093731e+02 
       3.313278604643e-05       1.525374500691e+02 
       3.577595943165e-05       1.642660687078e+02 
       3.862999240274e-05       1.768963504868e+02 
       4.171170631739e-05       1.904975992460e+02 
       4.503926445983e-05       2.051444490305e+02 
       4.863227909323e-05       2.209171463752e+02 
       5.251192705226e-05       2.379022222314e+02 
       5.670107455699e-05       2.561927925703e+02 
       6.122441198393e-05       2.758890441792e+02 
       6.610859938837e-05       2.970989225466e+02 
       7.138242363583e-05       3.199385558200e+02 
       7.707696806873e-05       3.445329780878e+02 
       8.322579570814e-05       3.710167315928e+02 
       8.986514707061e-05       3.995346440954e+02 
       9.703415376577e-05       4.302425403884e+02 
       1.047750691338e-04       4.633080762974e+02 
       1.131335172818e-04       4.989116267507e+02 
       1.221587619877e-04       5.372471946561e+02 
       1.319039970550e-04       5.785234124630e+02 
       1.424266598317e-04       6.229645930980e+02 
       1.537887697396e-04       6.708118484951e+02 
       1.660572938097e-04       7.223242660220e+02 
       1.793045413791e-04       7.777801552731e+02 
       1.936085902737e-04       8.374783607334e+02 
       2.090537469909e-04       9.017396264495e+02 
       2.257310435923e-04       9.709080260152e+02 
       2.437387742372e-04       1.045352448644e+03 
       2.631830745176e-04       1.125468122836e+03 
       2.841785470091e-04       1.211678179511e+03 
       3.068489367268e-04       1.304435249091e+03 
       3.313278604643e-04       1.404223052541e+03 
       3.577595943165e-04       1.511558013390e+03 
       3.862999240274e-04       1.626990836439e+03 
       4.171170631739e-04       1.751108027371e+03 
       4.503926445983e-04       1.884533381345e+03 
       4.863227909323e-04       2.027929376471e+03 
       5.251192705226e-04       2.181998446367e+03 
       5.670107455699e-04       2.347484100857e+03 
       6.122441198393e-04       2.525171869336e+03 
       6.610859938837e-04       2.715889981400e+03 
       7.138242363583e-04       2.920509686082e+03 
       7.707696806873e-04       3.139945097710e+03 
       8.322579570814e-04       3.375152334397e+03 
       8.986514707061e-04       3.627127828231e+03 
       9.703415376577e-04       3.896905450016e+03 
       1.047750691338e-03       4.185552170959e+03 
       1.131335172818e-03       4.494162426791e+03 
       1.221587619877e-03       4.823850702670e+03 
       1.319039970550e-03       5.175742734999e+03 
       1.424266598317e-03       5.551019592522e+03 
       1.537887697396e-03       5.950788335880e+03 
       1.660572938097e-03       6.376123046807e+03 
       1.793045413791e-03       6.828073896136e+03 
       1.936085902737e-03       7.307625375387e+03 
       2.090537469909e-03       7.815671855944e+03 
       2.257310435923e-03       8.352990369399e+03 
       2.437387742372e-03       8.920211057536e+03 
       2.631830745176e-03       9.517783061890e+03 
       2.841785470091e-03       1.014593703671e+04 
       3.068489367268e-03       1.080464505738e+04 
       3.313278604643e-03       1.149357459545e+04 
       3.577595943165e-03       1.221203620826e+04 
       3.862999240274e-03       1.295892538505e+04 
       4.171170631739e-03       1.373266002404e+04 
       4.503926445983e-03       1.453111834595e+04 
       4.863227909323e-03       1.535154984225e+04 
       5.251192705226e-03       1.619063613425e+04 
       5.670107455699e-03       1.704431256547e+04 
       6.122441198393e-03       1.790755938464e+04 
       6.610859938837e-03       1.877460413684e+04 
       7.138242363583e-03       1.963872429117e+04 
       7.707696806873e-03       2.049215713363e+04 
       8.322579570814e-03       2.132606907882e+04 
       8.986514707061e-03       2.213055093579e+04 
       9.703415376577e-03       2.289445470861e+04 
       1.047750691338e-02       2.360548543461e+04 
       1.131335172818e-02       2.425022940325e+04 
       1.221587619877e-02       2.481423924076e+04 
       1.319039970550e-02       2.528218609452e+04 
       1.424266598317e-02       2.563814427044e+04 
       1.537887697392e-02       2.586606691969e+04 
       1.660572938023e-02       2.595028905629e+04 
       1.793045412706e-02       2.587633310643e+04 
       1.936085890181e-02       2.563219689260e+04 
       2.090537352463e-02       2.520933738035e+04 
       2.257309535333e-02       2.460446602038e+04 
       2.437382002918e-02       2.382091583951e+04 
       2.631799944462e-02       2.287044266280e+04 
       2.841644545389e-02       2.177452060910e+04 
       3.067933355377e-02       2.056556874638e+04 
       3.311368470740e-02       1.928729027129e+04 
       3.571840443502e-02       1.799396658474e+04 
       3.847720348444e-02       1.674677526206e+04 
       4.135335538431e-02       1.560466493102e+04 
       4.429361667738e-02       1.461039669397e+04 
       4.724366439141e-02       1.378055860549e+04 
       5.016480835311e-02       1.310506581533e+04 
       5.303989620246e-02       1.255713529789e+04 
       5.586870669566e-02       1.210425578478e+04 
       5.866042680613e-02       1.171465934181e+04 
       6.142798932958e-02       1.136048415377e+04 
       6.418496440164e-02       1.101856654078e+04 
       6.694418833788e-02       1.067069584352e+04 
       6.971731106057e-02       1.030355394770e+04 
       7.251476155766e-02       9.909001688237e+03 
       7.534587671527e-02       9.483791244012e+03 
       7.821907666265e-02       9.029500033826e+03 
       8.114203772912e-02       8.552329139112e+03 
       8.412184535029e-02       8.061924445238e+03 
       8.716512279304e-02       7.570782312451e+03 
       9.027813695930e-02       7.092508968300e+03 
       9.346688431697e-02       6.640525412787e+03 
       9.673716028276e-02       6.226689048406e+03 
       1.000946150830e-01       5.859913459106e+03 
       1.035447986537e-01       5.545257256130e+03 
       1.070931966762e-01       5.283139172129e+03 
       1.107452594425e-01       5.069409978983e+03 
       1.145064249153e-01       4.895250925266e+03 
       1.183821370918e-01       4.747860739051e+03 
       1.223778605862e-01       4.611738269956e+03 
       1.264990921987e-01       4.470617593168e+03 
       1.307513701367e-01       4.310242971201e+03 
       1.351402814784e-01       4.121383906282e+03 
       1.396714684203e-01       3.902056273097e+03 
       1.443506338194e-01       3.658671493439e+03 
       1.491835465229e-01       3.404480213447e+03 
       1.541760469708e-01       3.156671968495e+03 
       1.593340535561e-01       2.931982842988e+03 
       1.646635702297e-01       2.742370557341e+03 
       1.701706958456e-01       2.592261146545e+03 
       1.758616357459e-01       2.477249963342e+03 
       1.817427160982e-01       2.385187215181e+03 
       1.878204015065e-01       2.300360485678e+03 
       1.941013164283e-01       2.205766045122e+03 
       2.005922709503e-01       2.090814550819e+03 
       2.073002914972e-01       1.956465182433e+03 
       2.142326570816e-01       1.814193028450e+03 
       2.213969417533e-01       1.679298927429e+03 
       2.288010639706e-01       1.563844160235e+03 
       2.364533437147e-01       1.472690659613e+03 
       2.443625682930e-01       1.401516214049e+03 
       2.525380679504e-01       1.338416986255e+03 
       2.609898026346e-01       1.270901639245e+03 
       2.697284615565e-01       1.193382457560e+03 
       2.787655775689e-01       1.109338669050e+03 
       2.881136588829e-01       1.028768803662e+03 
       2.977863412677e-01       9.604820900672e+02 
       3.077985646929e-01       9.050211770288e+02 
       3.181667794071e-01       8.561429939392e+02 
       3.289091877812e-01       8.061887935560e+02 
       3.400460299658e-01       7.523918830386e+02 
       3.515999236474e-01       6.989224499460e+02 
       3.635962711085e-01       6.510636939216e+02 
       3.760637506334e-01       6.101218036322e+02 
       3.890349143879e-01       5.721311009524e+02 
       4.025469216825e-01       5.337825211148e+02 
       4.166424456376e-01       4.956316708399e+02 
       4.313708035863e-01       4.604697829637e+02 
       4.467893782977e-01       4.287769767076e+02 
       4.629654199664e-01       3.987732157534e+02 
       4.799783501994e-01       3.692413353359e+02 
       4.979227319373e-01       3.412403024631e+02 
       5.169121270864e-01       3.154834235744e+02 
       5.370841404489e-01       2.908352772006e+02 
       5.586070464571e-01       2.671058589935e+02 
       5.816885094930e-01       2.448094852289e+02 
       6.065870144995e-01       2.235677377665e+02 
       6.336266468475e-01       2.032097398595e+02 
       6.632156059511e-01       1.838791337068e+02 
       6.958678639263e-01       1.653547182522e+02 
       7.322247985589e-01       1.476958707578e+02 
       7.730680195114e-01       1.308336500744e+02 
       8.193049553677e-01       1.148313527404e+02 
       8.718988016039e-01       9.976243542845e+01 
       9.317218031082e-01       8.577760582630e+01 
       9.993660908989e-01       7.305469055660e+01 
       1.075037110174e+00       6.173596123368e+01 
       1.158653485707e+00       5.187928599747e+01 
       1.250099157308e+00       4.344016448475e+01 
       1.349432401273e+00       3.628953000349e+01 
       1.456947457397e+00       3.026778826831e+01 
       1.573135111331e+00       2.521464724307e+01 
       1.698621895592e+00       2.098194404085e+01 
       1.834127512934e+00       1.744231820940e+01 
       1.980444934528e+00       1.448559915462e+01 
       2.138435191726e+00       1.201890631279e+01 
       2.309029199186e+00       9.963126397993e+00 
       2.493232377687e+00       8.251777979816e+00 
       2.692130395285e+00       6.828614861924e+00 
       2.906895534573e+00       5.646230813663e+00 
       3.138793597714e+00       4.664904145368e+00 
       3.389191366484e+00       3.851090490041e+00 
       3.659564657905e+00       3.176928067778e+00 
       3.951507022538e+00       2.618850278661e+00 
       4.266739136701e+00       2.157326120699e+00 
       4.607118943941e+00       1.775911774913e+00 
       4.974652605557e+00       1.460964476246e+00 
       5.371506324689e+00       1.201101327061e+00 
       5.800019113685e+00       9.868466223182e-01 
       6.262716579983e+00       8.103172472724e-01 
       6.762325811764e+00       6.649735298348e-01 
       7.301791451110e+00       5.453827231020e-01 
       7.884293049406e+00       4.470508320731e-01 
       8.513263807261e+00       3.662426310191e-01 
       9.192410809424e+00       2.998845267729e-01 
       9.925736873929e+00       2.454187677398e-01 
       1.071756414427e+01       2.007403346516e-01 
       1.157255956364e+01       1.641084264839e-01 
       1.249576238137e+01       1.340957337767e-01 
       1.349261385375e+01       1.095129757032e-01 
       1.456898931416e+01       8.939203105180e-02 
       1.573123280165e+01       7.292792293518e-02 
       1.698619445202e+01       5.946404189551e-02 
       1.834127087176e+01       4.845666054419e-02 
       1.980444873285e+01       3.946273850493e-02 
       2.138435184532e+01       3.211539618562e-02 
       2.309029198506e+01       2.611649442462e-02 
       2.493232377636e+01       2.121884660199e-02 
       2.692130395282e+01       1.722238262006e-02 
       2.906895534573e+01       1.396136099278e-02 
       3.138793597714e+01       1.130093541428e-02 
       3.389191366484e+01       9.130675029988e-03 
       3.659564657905e+01       7.360574424702e-03 
       3.951507022538e+01       5.916733900450e-03 
       4.266739136701e+01       4.738831802094e-03 
       4.607118943941e+01       3.778154002312e-03 
       4.974652605557e+01       2.994619639802e-03 
       5.371506324689e+01       2.355723580688e-03 
       5.800019113685e+01       1.835166171916e-03 
       6.262716579983e+01       1.411750622681e-03 
       6.762325811764e+01       1.068393425945e-03 
