# Matter power spectrum P(k) at redshift z=0
# for k=1.04775e-05 to 67.6233 h/Mpc,
# number of wavenumbers equal to 246
#    1:k (h/Mpc)              2:P (Mpc/h)^3        
       1.047750691338e-05       5.020964806751e+01 
       1.131335172818e-05       5.407048206553e+01 
       1.221587619877e-05       5.822819063805e+01 
       1.319039970550e-05       6.270562589679e+01 
       1.424266598317e-05       6.752731788102e+01 
       1.537887697396e-05       7.271977200258e+01 
       1.660572938097e-05       7.831147241542e+01 
       1.793045413791e-05       8.433311815128e+01 
       1.936085902737e-05       9.081778242446e+01 
       2.090537469909e-05       9.780108061339e+01 
       2.257310435923e-05       1.053213197032e+02 
       2.437387742372e-05       1.134197377001e+02 
       2.631830745176e-05       1.221408202816e+02 
       2.841785470091e-05       1.315324720916e+02 
       3.068489367268e-05       1.416462093728e+02 
       3.313278604643e-05       1.525374500691e+02 
       3.577595943165e-05       1.642660687078e+02 
       3.862999240274e-05       1.768963504868e+02 
       4.171170631739e-05       1.904975992460e+02 
       4.503926445983e-05       2.051444490305e+02 
       4.863227909323e-05       2.209171463752e+02 
       5.251192705226e-05       2.379022222314e+02 
       5.670107455699e-05       2.561927925420e+02 
       6.122441198393e-05       2.758890441790e+02 
       6.610859938837e-05       2.970989225466e+02 
       7.138242363583e-05       3.199385558200e+02 
       7.707696806873e-05       3.445329780878e+02 
       8.322579570814e-05       3.710167315928e+02 
       8.986514707061e-05       3.995346440954e+02 
       9.703415376577e-05       4.302425403884e+02 
       1.047750691338e-04       4.633080762974e+02 
       1.131335172818e-04       4.989116267507e+02 
       1.221587619877e-04       5.372471946561e+02 
       1.319039970550e-04       5.785234124636e+02 
       1.424266598317e-04       6.229645930980e+02 
       1.537887697396e-04       6.708118484951e+02 
       1.660572938097e-04       7.223242660220e+02 
       1.793045413791e-04       7.777801550138e+02 
       1.936085902737e-04       8.374783607333e+02 
       2.090537469909e-04       9.017396264495e+02 
       2.257310435923e-04       9.709080260152e+02 
       2.437387742372e-04       1.045352448644e+03 
       2.631830745176e-04       1.125468122836e+03 
       2.841785470091e-04       1.211678179511e+03 
       3.068489367268e-04       1.304435249091e+03 
       3.313278604643e-04       1.404223052541e+03 
       3.577595943165e-04       1.511558013390e+03 
       3.862999240274e-04       1.626990836489e+03 
       4.171170631739e-04       1.751108027371e+03 
       4.503926445983e-04       1.884533381345e+03 
       4.863227909323e-04       2.027929376470e+03 
       5.251192705226e-04       2.181998446367e+03 
       5.670107455699e-04       2.347484100857e+03 
       6.122441198393e-04       2.525171869336e+03 
       6.610859938837e-04       2.715889981400e+03 
       7.138242363583e-04       2.920509686089e+03 
       7.707696806873e-04       3.139945097711e+03 
       8.322579570814e-04       3.375152334396e+03 
       8.986514707061e-04       3.627127828231e+03 
       9.703415376577e-04       3.896905450016e+03 
       1.047750691338e-03       4.185552170958e+03 
       1.131335172818e-03       4.494162426791e+03 
       1.221587619877e-03       4.823850702664e+03 
       1.319039970550e-03       5.175742740341e+03 
       1.424266598317e-03       5.551019592520e+03 
       1.537887697396e-03       5.950788335878e+03 
       1.660572938097e-03       6.376123046805e+03 
       1.793045413791e-03       6.828073896122e+03 
       1.936085902737e-03       7.307625375386e+03 
       2.090537469909e-03       7.815671862383e+03 
       2.257310435923e-03       8.352990369399e+03 
       2.437387742372e-03       8.920211057527e+03 
       2.631830745176e-03       9.517783061890e+03 
       2.841785470091e-03       1.014593703671e+04 
       3.068489367268e-03       1.080464505741e+04 
       3.313278604643e-03       1.149357459424e+04 
       3.577595943165e-03       1.221203620826e+04 
       3.862999240274e-03       1.295892538505e+04 
       4.171170631739e-03       1.373266002194e+04 
       4.503926445983e-03       1.453111834595e+04 
       4.863227909323e-03       1.535154984227e+04 
       5.251192705226e-03       1.619063613434e+04 
       5.670107455699e-03       1.704431256601e+04 
       6.122441198393e-03       1.790755938458e+04 
       6.610859938837e-03       1.877460413256e+04 
       7.138242363583e-03       1.963872429099e+04 
       7.707696806873e-03       2.049215713475e+04 
       8.322579570814e-03       2.132607230596e+04 
       8.986514707061e-03       2.213054879569e+04 
       9.703415376577e-03       2.289445470790e+04 
       1.047750691338e-02       2.360548303509e+04 
       1.131335172818e-02       2.425023552272e+04 
       1.221587619877e-02       2.481423923848e+04 
       1.319039970550e-02       2.528218805533e+04 
       1.424266598317e-02       2.563814706278e+04 
       1.537887697392e-02       2.586606364782e+04 
       1.660572938023e-02       2.595025311602e+04 
       1.793045412706e-02       2.587633911883e+04 
       1.936085890181e-02       2.563219364971e+04 
       2.090537352463e-02       2.520933040215e+04 
       2.257309535333e-02       2.460446524591e+04 
       2.437382002918e-02       2.382092921896e+04 
       2.631799944462e-02       2.287046305195e+04 
       2.841644545389e-02       2.177452992124e+04 
       3.067933355377e-02       2.056556121661e+04 
       3.311368470740e-02       1.928735598206e+04 
       3.571840443502e-02       1.799403007508e+04 
       3.847720348444e-02       1.674686664394e+04 
       4.135335538431e-02       1.560459568166e+04 
       4.429361667738e-02       1.461040294992e+04 
       4.724366439141e-02       1.378056072060e+04 
       5.016480835311e-02       1.310510182935e+04 
       5.303989620246e-02       1.255715100702e+04 
       5.586870669566e-02       1.210426104897e+04 
       5.866042680613e-02       1.171465698662e+04 
       6.142798932958e-02       1.136048034262e+04 
       6.418496440164e-02       1.101855256767e+04 
       6.694418833788e-02       1.067071298292e+04 
       6.971731106057e-02       1.030358105074e+04 
       7.251476155766e-02       9.908992171960e+03 
       7.534587671527e-02       9.483784342713e+03 
       7.821907666265e-02       9.029492034441e+03 
       8.114203772912e-02       8.552319142712e+03 
       8.412184535029e-02       8.061934312514e+03 
       8.716512279304e-02       7.570773064004e+03 
       9.027813695930e-02       7.092501065105e+03 
       9.346688431697e-02       6.640534747009e+03 
       9.673716028276e-02       6.226707201555e+03 
       1.000946150830e-01       5.859936710579e+03 
       1.035447986537e-01       5.545251401143e+03 
       1.070931966762e-01       5.283132091765e+03 
       1.107452594425e-01       5.069425241254e+03 
       1.145064249153e-01       4.895239249288e+03 
       1.183821370918e-01       4.747844854886e+03 
       1.223778605862e-01       4.611734458394e+03 
       1.264990921987e-01       4.470625527666e+03 
       1.307513701367e-01       4.310277315767e+03 
       1.351402814784e-01       4.121390386601e+03 
       1.396714684203e-01       3.902068979754e+03 
       1.443506338194e-01       3.658635491220e+03 
       1.491835465229e-01       3.404487115035e+03 
       1.541760469708e-01       3.156667616357e+03 
       1.593340535561e-01       2.931986003207e+03 
       1.646635702297e-01       2.742374518090e+03 
       1.701706958456e-01       2.592255231468e+03 
       1.758616357459e-01       2.477239884121e+03 
       1.817427160982e-01       2.385183648634e+03 
       1.878204015065e-01       2.300357259107e+03 
       1.941013164283e-01       2.205761389230e+03 
       2.005922709503e-01       2.090808466686e+03 
       2.073002914972e-01       1.956471546130e+03 
       2.142326570816e-01       1.814194210047e+03 
       2.213969417533e-01       1.679296840837e+03 
       2.288010639706e-01       1.563848182624e+03 
       2.364533437147e-01       1.472685301303e+03 
       2.443625682930e-01       1.401514608895e+03 
       2.525380679504e-01       1.338414634249e+03 
       2.609898026346e-01       1.270905116235e+03 
       2.697284615565e-01       1.193386478118e+03 
       2.787655775689e-01       1.109340355278e+03 
       2.881136588829e-01       1.028770309934e+03 
       2.977863412677e-01       9.604808676199e+02 
       3.077985646929e-01       9.050258061349e+02 
       3.181667794071e-01       8.561439583884e+02 
       3.289091877812e-01       8.061879236893e+02 
       3.400460299658e-01       7.523896234864e+02 
       3.515999236474e-01       6.989230632431e+02 
       3.635962711085e-01       6.510628408180e+02 
       3.760637506334e-01       6.101226278574e+02 
       3.890349143879e-01       5.721327676112e+02 
       4.025469216825e-01       5.337822726397e+02 
       4.166424456376e-01       4.956325225443e+02 
       4.313708035863e-01       4.604679089192e+02 
       4.467893782977e-01       4.287772204481e+02 
       4.629654199664e-01       3.987727930782e+02 
       4.799783501994e-01       3.692418380113e+02 
       4.979227319373e-01       3.412413030957e+02 
       5.169121270864e-01       3.154839310495e+02 
       5.370841404489e-01       2.908364830284e+02 
       5.586070464571e-01       2.671063170120e+02 
       5.816885094930e-01       2.448102064110e+02 
       6.065870144995e-01       2.235683673217e+02 
       6.336266468475e-01       2.032103015625e+02 
       6.632156059511e-01       1.838791983442e+02 
       6.958678639263e-01       1.653550544449e+02 
       7.322247985589e-01       1.476959775434e+02 
       7.730680195114e-01       1.308336210476e+02 
       8.193049553677e-01       1.148315241303e+02 
       8.718988016039e-01       9.976276825932e+01 
       9.317218031082e-01       8.577808927536e+01 
       9.993660908989e-01       7.305499368860e+01 
       1.075037110174e+00       6.173628044436e+01 
       1.158653485707e+00       5.187930700053e+01 
       1.250099157308e+00       4.344038675591e+01 
       1.349432401273e+00       3.628965460196e+01 
       1.456947457397e+00       3.026786041548e+01 
       1.573135111331e+00       2.521445948013e+01 
       1.698621895592e+00       2.098194722317e+01 
       1.834127512934e+00       1.744242073356e+01 
       1.980444934528e+00       1.448566456824e+01 
       2.138435191726e+00       1.201890430141e+01 
       2.309029199186e+00       9.963128775539e+00 
       2.493232377687e+00       8.251806150070e+00 
       2.692130395285e+00       6.828609261063e+00 
       2.906895534573e+00       5.646249788684e+00 
       3.138793597714e+00       4.664890366080e+00 
       3.389191366484e+00       3.851105773299e+00 
       3.659564657905e+00       3.176911299971e+00 
       3.951507022538e+00       2.618836766924e+00 
       4.266739136701e+00       2.157294012757e+00 
       4.607118943941e+00       1.775928733837e+00 
       4.974652605557e+00       1.460984245706e+00 
       5.371506324689e+00       1.201124869095e+00 
       5.800019113685e+00       9.868835842611e-01 
       6.262716579983e+00       8.103494739201e-01 
       6.762325811764e+00       6.650096247281e-01 
       7.301791451110e+00       5.454243524353e-01 
       7.884293049406e+00       4.470979387234e-01 
       8.513263807261e+00       3.663008273748e-01 
       9.192410809424e+00       2.999401415000e-01 
       9.925736873929e+00       2.454805094485e-01 
       1.071756414427e+01       2.008075943415e-01 
       1.157255956364e+01       1.641847220877e-01 
       1.249576238137e+01       1.341771313254e-01 
       1.349261385375e+01       1.096021225915e-01 
       1.456898931416e+01       8.948885158968e-02 
       1.573123280165e+01       7.303403658865e-02 
       1.698619445202e+01       5.957752660971e-02 
       1.834127087176e+01       4.858073726617e-02 
       1.980444873285e+01       3.959672859903e-02 
       2.138435184532e+01       3.226057042042e-02 
       2.309029198506e+01       2.627301426932e-02 
       2.493232377636e+01       2.138807001141e-02 
       2.692130395282e+01       1.740445351508e-02 
       2.906895534573e+01       1.415708724319e-02 
       3.138793597714e+01       1.151084799379e-02 
       3.389191366484e+01       9.355636241318e-03 
       3.659564657905e+01       7.600833236530e-03 
       3.951507022538e+01       6.172526152523e-03 
       4.266739136701e+01       5.010589792782e-03 
       4.607118943941e+01       4.065584754524e-03 
       4.974652605557e+01       3.297346943789e-03 
       5.371506324689e+01       2.672992848445e-03 
       5.800019113685e+01       2.165837283514e-03 
       6.262716579983e+01       1.753941347300e-03 
       6.762325811764e+01       1.419596553794e-03 
