# Matter power spectrum P(k) at redshift z=99
# for k=1.04775e-05 to 67.6233 h/Mpc,
# number of wavenumbers equal to 246
#    1:k (h/Mpc)              2:P (Mpc/h)^3        
       1.047750691338e-05       7.261927673119e-03 
       1.131335172818e-05       7.820331745737e-03 
       1.221587619877e-05       8.421675986488e-03 
       1.319039970550e-05       9.069258192194e-03 
       1.424266598317e-05       9.766638404421e-03 
       1.537887697396e-05       1.051764069682e-02 
       1.660572938097e-05       1.132639105520e-02 
       1.793045413791e-05       1.219733231416e-02 
       1.936085902737e-05       1.313524224380e-02 
       2.090537469909e-05       1.414527121893e-02 
       2.257310435923e-05       1.523296272192e-02 
       2.437387742372e-05       1.640429444530e-02 
       2.631830745176e-05       1.766569582178e-02 
       2.841785470091e-05       1.902408601793e-02 
       3.068489367268e-05       2.048692970591e-02 
       3.313278604643e-05       2.206225513594e-02 
       3.577595943165e-05       2.375870704909e-02 
       3.862999240274e-05       2.558560727479e-02 
       4.171170631739e-05       2.755297763344e-02 
       4.503926445983e-05       2.967161927314e-02 
       4.863227909323e-05       3.195316450832e-02 
       5.251192705226e-05       3.441013519284e-02 
       5.670107455699e-05       3.705601722526e-02 
       6.122441198393e-05       3.990533413563e-02 
       6.610859938837e-05       4.297372168203e-02 
       7.138242363583e-05       4.627802141688e-02 
       7.707696806873e-05       4.983636194159e-02 
       8.322579570814e-05       5.366826847231e-02 
       8.986514707061e-05       5.779476394569e-02 
       9.703415376577e-05       6.223848243885e-02 
       1.047750691338e-04       6.702379865640e-02 
       1.131335172818e-04       7.217695153381e-02 
       1.221587619877e-04       7.772619073574e-02 
       1.319039970550e-04       8.370193432376e-02 
       1.424266598317e-04       9.013692507548e-02 
       1.537887697396e-04       9.706641242570e-02 
       1.660572938097e-04       1.045283354271e-01 
       1.793045413791e-04       1.125635349068e-01 
       1.936085902737e-04       1.212159614968e-01 
       2.090537469909e-04       1.305329132714e-01 
       2.257310435923e-04       1.405652846215e-01 
       2.437387742372e-04       1.513678302540e-01 
       2.631830745176e-04       1.629994504870e-01 
       2.841785470091e-04       1.755234921224e-01 
       3.068489367268e-04       1.890080670413e-01 
       3.313278604643e-04       2.035264002435e-01 
       3.577595943165e-04       2.191571803681e-01 
       3.862999240274e-04       2.359849437593e-01 
       4.171170631739e-04       2.541004741539e-01 
       4.503926445983e-04       2.736012080277e-01 
       4.863227909323e-04       2.945916790965e-01 
       5.251192705226e-04       3.171839525182e-01 
       5.670107455699e-04       3.414980764002e-01 
       6.122441198393e-04       3.676625413100e-01 
       6.610859938837e-04       3.958147252304e-01 
       7.138242363583e-04       4.261013284916e-01 
       7.707696806873e-04       4.586787792355e-01 
       8.322579570814e-04       4.937136001377e-01 
       8.986514707061e-04       5.313826801402e-01 
       9.703415376577e-04       5.718734972157e-01 
       1.047750691338e-03       6.153841629505e-01 
       1.131335172818e-03       6.621233239465e-01 
       1.221587619877e-03       7.123098220427e-01 
       1.319039970550e-03       7.661720584261e-01 
       1.424266598317e-03       8.239546297728e-01 
       1.537887697396e-03       8.859011173467e-01 
       1.660572938097e-03       9.522588006420e-01 
       1.793045413791e-03       1.023280099819e+00 
       1.936085902737e-03       1.099216304579e+00 
       2.090537469909e-03       1.180312990454e+00 
       2.257310435923e-03       1.266804115851e+00 
       2.437387742372e-03       1.358904853405e+00 
       2.631830745176e-03       1.456802683156e+00 
       2.841785470091e-03       1.560646890521e+00 
       3.068489367268e-03       1.670536062499e+00 
       3.313278604643e-03       1.786503852157e+00 
       3.577595943165e-03       1.908502930788e+00 
       3.862999240274e-03       2.036387730709e+00 
       4.171170631739e-03       2.169896178345e+00 
       4.503926445983e-03       2.308631878994e+00 
       4.863227909323e-03       2.452047290962e+00 
       5.251192705226e-03       2.599430628087e+00 
       5.670107455699e-03       2.749896931785e+00 
       6.122441198393e-03       2.902386513384e+00 
       6.610859938837e-03       3.055668705972e+00 
       7.138242363583e-03       3.208356461546e+00 
       7.707696806873e-03       3.358923892434e+00 
       8.322579570814e-03       3.505725090905e+00 
       8.986514707061e-03       3.647009253278e+00 
       9.703415376577e-03       3.780923304332e+00 
       1.047750691338e-02       3.905490283759e+00 
       1.131335172818e-02       4.018587641159e+00 
       1.221587619877e-02       4.117901584994e+00 
       1.319039970550e-02       4.200915322182e+00 
       1.424266598317e-02       4.264942464699e+00 
       1.537887697392e-02       4.307218143605e+00 
       1.660572938023e-02       4.325062139408e+00 
       1.793045412706e-02       4.316057136029e+00 
       1.936085890181e-02       4.278228447825e+00 
       2.090537352463e-02       4.210211813193e+00 
       2.257309535333e-02       4.111422986102e+00 
       2.437382002918e-02       3.982421705658e+00 
       2.631799944462e-02       3.825171535374e+00 
       2.841644545389e-02       3.643276260873e+00 
       3.067933355377e-02       3.442190907521e+00 
       3.311368470740e-02       3.229228154779e+00 
       3.571840443502e-02       3.013518341791e+00 
       3.847720348444e-02       2.805281041923e+00 
       4.135335538431e-02       2.614416568006e+00 
       4.429361667738e-02       2.448136235339e+00 
       4.724366439141e-02       2.309241892495e+00 
       5.016480835311e-02       2.196108896213e+00 
       5.303989620246e-02       2.104363971091e+00 
       5.586870669566e-02       2.028464468776e+00 
       5.866042680613e-02       1.963155013838e+00 
       6.142798932958e-02       1.903781780607e+00 
       6.418496440164e-02       1.846481298769e+00 
       6.694418833788e-02       1.788193721852e+00 
       6.971731106057e-02       1.726715075349e+00 
       7.251476155766e-02       1.660654650155e+00 
       7.534587671527e-02       1.589472204299e+00 
       7.821907666265e-02       1.513440067853e+00 
       8.114203772912e-02       1.433570609011e+00 
       8.412184535029e-02       1.351492670071e+00 
       8.716512279304e-02       1.269277300925e+00 
       9.027813695930e-02       1.189193469687e+00 
       9.346688431697e-02       1.113502877381e+00 
       9.673716028276e-02       1.044173252807e+00 
       1.000946150830e-01       9.827054075783e-01 
       1.035447986537e-01       9.299391253960e-01 
       1.070931966762e-01       8.859597260490e-01 
       1.107452594425e-01       8.500705716499e-01 
       1.145064249153e-01       8.208029127837e-01 
       1.183821370918e-01       7.960251134489e-01 
       1.223778605862e-01       7.731450815310e-01 
       1.264990921987e-01       7.494528549148e-01 
       1.307513701367e-01       7.225569284507e-01 
       1.351402814784e-01       6.909080753776e-01 
       1.396714684203e-01       6.541809928360e-01 
       1.443506338194e-01       6.134266042153e-01 
       1.491835465229e-01       5.708689078153e-01 
       1.541760469708e-01       5.293646226302e-01 
       1.593340535561e-01       4.917112554558e-01 
       1.646635702297e-01       4.599202933744e-01 
       1.701706958456e-01       4.347297069547e-01 
       1.758616357459e-01       4.154083304151e-01 
       1.817427160982e-01       3.999380827519e-01 
       1.878204015065e-01       3.856819327571e-01 
       1.941013164283e-01       3.698088901217e-01 
       2.005922709503e-01       3.505461698966e-01 
       2.073002914972e-01       3.280443502443e-01 
       2.142326570816e-01       3.042142895994e-01 
       2.213969417533e-01       2.816123013259e-01 
       2.288010639706e-01       2.622572779503e-01 
       2.364533437147e-01       2.469631328867e-01 
       2.443625682930e-01       2.350129672270e-01 
       2.525380679504e-01       2.244183608803e-01 
       2.609898026346e-01       2.130936483048e-01 
       2.697284615565e-01       2.001012584106e-01 
       2.787655775689e-01       1.860197818684e-01 
       2.881136588829e-01       1.725173676937e-01 
       2.977863412677e-01       1.610662818619e-01 
       3.077985646929e-01       1.517607545152e-01 
       3.181667794071e-01       1.435593800441e-01 
       3.289091877812e-01       1.351815110563e-01 
       3.400460299658e-01       1.261645045125e-01 
       3.515999236474e-01       1.172014823411e-01 
       3.635962711085e-01       1.091769804488e-01 
       3.760637506334e-01       1.023093112270e-01 
       3.890349143879e-01       9.593728532855e-02 
       4.025469216825e-01       8.950737432320e-02 
       4.166424456376e-01       8.311157667153e-02 
       4.313708035863e-01       7.721548394999e-02 
       4.467893782977e-01       7.190037281417e-02 
       4.629654199664e-01       6.686885050179e-02 
       4.799783501994e-01       6.191741827464e-02 
       4.979227319373e-01       5.722229011772e-02 
       5.169121270864e-01       5.290279432600e-02 
       5.370841404489e-01       4.876947533259e-02 
       5.586070464571e-01       4.479049646428e-02 
       5.816885094930e-01       4.105160601031e-02 
       6.065870144995e-01       3.748963638643e-02 
       6.336266468475e-01       3.407597610421e-02 
       6.632156059511e-01       3.083420773007e-02 
       6.958678639263e-01       2.772788380436e-02 
       7.322247985589e-01       2.476662224144e-02 
       7.730680195114e-01       2.193911205888e-02 
       8.193049553677e-01       1.925557415145e-02 
       8.718988016039e-01       1.672870624295e-02 
       9.317218031082e-01       1.438358290675e-02 
       9.993660908989e-01       1.224994857061e-02 
       1.075037110174e+00       1.035183747385e-02 
       1.158653485707e+00       8.698866075056e-03 
       1.250099157308e+00       7.283622905604e-03 
       1.349432401273e+00       6.084420354302e-03 
       1.456947457397e+00       5.074563016197e-03 
       1.573135111331e+00       4.227023462081e-03 
       1.698621895592e+00       3.517140284135e-03 
       1.834127512934e+00       2.923427592224e-03 
       1.980444934528e+00       2.427451006857e-03 
       2.138435191726e+00       2.013632631299e-03 
       2.309029199186e+00       1.668714268724e-03 
       2.493232377687e+00       1.381533308669e-03 
       2.692130395285e+00       1.142652883542e-03 
       2.906895534573e+00       9.441519370056e-04 
       3.138793597714e+00       7.793367018155e-04 
       3.389191366484e+00       6.426032295410e-04 
       3.659564657905e+00       5.292643828261e-04 
       3.951507022538e+00       4.353766032034e-04 
       4.266739136701e+00       3.576560841884e-04 
       4.607118943941e+00       2.933520416007e-04 
       4.974652605557e+00       2.401749397550e-04 
       5.371506324689e+00       1.962171695002e-04 
       5.800019113685e+00       1.598938118452e-04 
       6.262716579983e+00       1.298836741866e-04 
       6.762325811764e+00       1.050957536929e-04 
       7.301791451110e+00       8.462356744944e-05 
       7.884293049406e+00       6.772129581783e-05 
       8.513263807261e+00       5.377208717954e-05 
       9.192410809424e+00       4.227135313769e-05 
       9.925736873929e+00       3.280430980846e-05 
       1.071756414427e+01       2.503640844937e-05 
       1.157255956364e+01       1.869400836483e-05 
       1.249576238137e+01       1.355929785080e-05 
       1.349261385375e+01       9.457028722822e-06 
       1.456898931416e+01       6.246126302794e-06 
       1.573123280165e+01       3.812393529960e-06 
       1.698619445202e+01       2.059008915347e-06 
       1.834127087176e+01       8.985975277872e-07 
       1.980444873285e+01       2.450210845518e-07 
       2.138435184532e+01       6.646298103268e-09 
       2.309029198506e+01       8.130391218442e-08 
       2.493232377636e+01       3.553988791501e-07 
       2.692130395282e+01       7.084731605957e-07 
       2.906895534573e+01       1.024343097358e-06 
       3.138793597714e+01       1.208213271824e-06 
       3.389191366484e+01       1.206068435171e-06 
       3.659564657905e+01       1.019845785162e-06 
       3.951507022538e+01       7.094607962440e-07 
       4.266739136701e+01       3.752690412508e-07 
       4.607118943941e+01       1.204374345735e-07 
       4.974652605557e+01       6.319951136095e-09 
       5.371506324689e+01       2.329659907636e-08 
       5.800019113685e+01       9.910332978946e-08 
       6.262716579983e+01       1.470502055771e-07 
       6.762325811764e+01       1.251337992847e-07 
