# Matter power spectrum P(k) at redshift z=0
# for k=1.04775e-05 to 67.6233 h/Mpc,
# number of wavenumbers equal to 246
#    1:k (h/Mpc)              2:P (Mpc/h)^3        
       1.047750691338e-05       5.020964806749e+01 
       1.131335172818e-05       5.407048206554e+01 
       1.221587619877e-05       5.822819063917e+01 
       1.319039970550e-05       6.270562589676e+01 
       1.424266598317e-05       6.752731788102e+01 
       1.537887697396e-05       7.271977200258e+01 
       1.660572938097e-05       7.831147241542e+01 
       1.793045413791e-05       8.433311815128e+01 
       1.936085902737e-05       9.081778242446e+01 
       2.090537469909e-05       9.780108061340e+01 
       2.257310435923e-05       1.053213197032e+02 
       2.437387742372e-05       1.134197377001e+02 
       2.631830745176e-05       1.221408202815e+02 
       2.841785470091e-05       1.315324720916e+02 
       3.068489367268e-05       1.416462093729e+02 
       3.313278604643e-05       1.525374500691e+02 
       3.577595943165e-05       1.642660687078e+02 
       3.862999240274e-05       1.768963504868e+02 
       4.171170631739e-05       1.904975992460e+02 
       4.503926445983e-05       2.051444490305e+02 
       4.863227909323e-05       2.209171463752e+02 
       5.251192705226e-05       2.379022222314e+02 
       5.670107455699e-05       2.561927925471e+02 
       6.122441198393e-05       2.758890441792e+02 
       6.610859938837e-05       2.970989225465e+02 
       7.138242363583e-05       3.199385558200e+02 
       7.707696806873e-05       3.445329780878e+02 
       8.322579570814e-05       3.710167315928e+02 
       8.986514707061e-05       3.995346440954e+02 
       9.703415376577e-05       4.302425403884e+02 
       1.047750691338e-04       4.633080762974e+02 
       1.131335172818e-04       4.989116267507e+02 
       1.221587619877e-04       5.372471946561e+02 
       1.319039970550e-04       5.785234124629e+02 
       1.424266598317e-04       6.229645930980e+02 
       1.537887697396e-04       6.708118484951e+02 
       1.660572938097e-04       7.223242660220e+02 
       1.793045413791e-04       7.777801554180e+02 
       1.936085902737e-04       8.374783607333e+02 
       2.090537469909e-04       9.017396264495e+02 
       2.257310435923e-04       9.709080260152e+02 
       2.437387742372e-04       1.045352448644e+03 
       2.631830745176e-04       1.125468122835e+03 
       2.841785470091e-04       1.211678179511e+03 
       3.068489367268e-04       1.304435249091e+03 
       3.313278604643e-04       1.404223052541e+03 
       3.577595943165e-04       1.511558013390e+03 
       3.862999240274e-04       1.626990836437e+03 
       4.171170631739e-04       1.751108027369e+03 
       4.503926445983e-04       1.884533381345e+03 
       4.863227909323e-04       2.027929376470e+03 
       5.251192705226e-04       2.181998446367e+03 
       5.670107455699e-04       2.347484100857e+03 
       6.122441198393e-04       2.525171869335e+03 
       6.610859938837e-04       2.715889981400e+03 
       7.138242363583e-04       2.920509686090e+03 
       7.707696806873e-04       3.139945097709e+03 
       8.322579570814e-04       3.375152334396e+03 
       8.986514707061e-04       3.627127828230e+03 
       9.703415376577e-04       3.896905450015e+03 
       1.047750691338e-03       4.185552170975e+03 
       1.131335172818e-03       4.494162426789e+03 
       1.221587619877e-03       4.823850702667e+03 
       1.319039970550e-03       5.175742741329e+03 
       1.424266598317e-03       5.551019592526e+03 
       1.537887697396e-03       5.950788335870e+03 
       1.660572938097e-03       6.376123046797e+03 
       1.793045413791e-03       6.828073896116e+03 
       1.936085902737e-03       7.307625375378e+03 
       2.090537469909e-03       7.815671862389e+03 
       2.257310435923e-03       8.352990369375e+03 
       2.437387742372e-03       8.920211057533e+03 
       2.631830745176e-03       9.517783061869e+03 
       2.841785470091e-03       1.014593703669e+04 
       3.068489367268e-03       1.080464505737e+04 
       3.313278604643e-03       1.149357459540e+04 
       3.577595943165e-03       1.221203620821e+04 
       3.862999240274e-03       1.295892538499e+04 
       4.171170631739e-03       1.373266000028e+04 
       4.503926445983e-03       1.453111834585e+04 
       4.863227909323e-03       1.535154983845e+04 
       5.251192705226e-03       1.619063611179e+04 
       5.670107455699e-03       1.704431256458e+04 
       6.122441198393e-03       1.790755939766e+04 
       6.610859938837e-03       1.877460422769e+04 
       7.138242363583e-03       1.963872433410e+04 
       7.707696806873e-03       2.049215713369e+04 
       8.322579570814e-03       2.132607248463e+04 
       8.986514707061e-03       2.213054994161e+04 
       9.703415376577e-03       2.289445487941e+04 
       1.047750691338e-02       2.360548451666e+04 
       1.131335172818e-02       2.425022822287e+04 
       1.221587619877e-02       2.481423930640e+04 
       1.319039970550e-02       2.528218765470e+04 
       1.424266598317e-02       2.563814436969e+04 
       1.537887697392e-02       2.586606625730e+04 
       1.660572938023e-02       2.595028161841e+04 
       1.793045412706e-02       2.587633548875e+04 
       1.936085890181e-02       2.563219580023e+04 
       2.090537352463e-02       2.520943762070e+04 
       2.257309535333e-02       2.460447106255e+04 
       2.437382002918e-02       2.382086921530e+04 
       2.631799944462e-02       2.287042225710e+04 
       2.841644545389e-02       2.177452156747e+04 
       3.067933355377e-02       2.056554848499e+04 
       3.311368470740e-02       1.928726832633e+04 
       3.571840443502e-02       1.799398680631e+04 
       3.847720348444e-02       1.674683013417e+04 
       4.135335538431e-02       1.560459494149e+04 
       4.429361667738e-02       1.461036066584e+04 
       4.724366439141e-02       1.378052494479e+04 
       5.016480835311e-02       1.310500729521e+04 
       5.303989620246e-02       1.255716786314e+04 
       5.586870669566e-02       1.210424192078e+04 
       5.866042680613e-02       1.171469045884e+04 
       6.142798932958e-02       1.136052888297e+04 
       6.418496440164e-02       1.101860326528e+04 
       6.694418833788e-02       1.067072499826e+04 
       6.971731106057e-02       1.030363710408e+04 
       7.251476155766e-02       9.909057405101e+03 
       7.534587671527e-02       9.483779025440e+03 
       7.821907666265e-02       9.029513892735e+03 
       8.114203772912e-02       8.552369564945e+03 
       8.412184535029e-02       8.061960547305e+03 
       8.716512279304e-02       7.570803661646e+03 
       9.027813695930e-02       7.092523560124e+03 
       9.346688431697e-02       6.640536439877e+03 
       9.673716028276e-02       6.226745636966e+03 
       1.000946150830e-01       5.859984631704e+03 
       1.035447986537e-01       5.545284821654e+03 
       1.070931966762e-01       5.283174812193e+03 
       1.107452594425e-01       5.069442495412e+03 
       1.145064249153e-01       4.895248111739e+03 
       1.183821370918e-01       4.747871192469e+03 
       1.223778605862e-01       4.611734992375e+03 
       1.264990921987e-01       4.470619824802e+03 
       1.307513701367e-01       4.310270299112e+03 
       1.351402814784e-01       4.121390253398e+03 
       1.396714684203e-01       3.901986865147e+03 
       1.443506338194e-01       3.658655422127e+03 
       1.491835465229e-01       3.404481860890e+03 
       1.541760469708e-01       3.156664591941e+03 
       1.593340535561e-01       2.931934677000e+03 
       1.646635702297e-01       2.742359985239e+03 
       1.701706958456e-01       2.592240716850e+03 
       1.758616357459e-01       2.477223910182e+03 
       1.817427160982e-01       2.385163698039e+03 
       1.878204015065e-01       2.300365968049e+03 
       1.941013164283e-01       2.205768049292e+03 
       2.005922709503e-01       2.090825362925e+03 
       2.073002914972e-01       1.956466290366e+03 
       2.142326570816e-01       1.814156700534e+03 
       2.213969417533e-01       1.679269208871e+03 
       2.288010639706e-01       1.563837325473e+03 
       2.364533437147e-01       1.472674835474e+03 
       2.443625682930e-01       1.401507357165e+03 
       2.525380679504e-01       1.338420872838e+03 
       2.609898026346e-01       1.270901528749e+03 
       2.697284615565e-01       1.193359778006e+03 
       2.787655775689e-01       1.109331523924e+03 
       2.881136588829e-01       1.028761572325e+03 
       2.977863412677e-01       9.604745409819e+02 
       3.077985646929e-01       9.050183617755e+02 
       3.181667794071e-01       8.561387833937e+02 
       3.289091877812e-01       8.061822747916e+02 
       3.400460299658e-01       7.523813670453e+02 
       3.515999236474e-01       6.989157471089e+02 
       3.635962711085e-01       6.510557125457e+02 
       3.760637506334e-01       6.101196577714e+02 
       3.890349143879e-01       5.721280623843e+02 
       4.025469216825e-01       5.337755778660e+02 
       4.166424456376e-01       4.956236111252e+02 
       4.313708035863e-01       4.604642682390e+02 
       4.467893782977e-01       4.287712656076e+02 
       4.629654199664e-01       3.987691067949e+02 
       4.799783501994e-01       3.692360764562e+02 
       4.979227319373e-01       3.412365509477e+02 
       5.169121270864e-01       3.154779546498e+02 
       5.370841404489e-01       2.908310704024e+02 
       5.586070464571e-01       2.671028380826e+02 
       5.816885094930e-01       2.448055284787e+02 
       6.065870144995e-01       2.235657271200e+02 
       6.336266468475e-01       2.032090188718e+02 
       6.632156059511e-01       1.838773114672e+02 
       6.958678639263e-01       1.653530131757e+02 
       7.322247985589e-01       1.476946044340e+02 
       7.730680195114e-01       1.308331255711e+02 
       8.193049553677e-01       1.148309011006e+02 
       8.718988016039e-01       9.976196874395e+01 
       9.317218031082e-01       8.577693680676e+01 
       9.993660908989e-01       7.305391838419e+01 
       1.075037110174e+00       6.173543296985e+01 
       1.158653485707e+00       5.187826261694e+01 
       1.250099157308e+00       4.343946660352e+01 
       1.349432401273e+00       3.628818861191e+01 
       1.456947457397e+00       3.026714886710e+01 
       1.573135111331e+00       2.521356515542e+01 
       1.698621895592e+00       2.098116914867e+01 
       1.834127512934e+00       1.744148288344e+01 
       1.980444934528e+00       1.448476475200e+01 
       2.138435191726e+00       1.201792467481e+01 
       2.309029199186e+00       9.962099839608e+00 
       2.493232377687e+00       8.250600996408e+00 
       2.692130395285e+00       6.827378928289e+00 
       2.906895534573e+00       5.644982878536e+00 
       3.138793597714e+00       4.663542555562e+00 
       3.389191366484e+00       3.849597885593e+00 
       3.659564657905e+00       3.175329758513e+00 
       3.951507022538e+00       2.617119829737e+00 
       4.266739136701e+00       2.155445129480e+00 
       4.607118943941e+00       1.773885617615e+00 
       4.974652605557e+00       1.458777255654e+00 
       5.371506324689e+00       1.198729360386e+00 
       5.800019113685e+00       9.842841689950e-01 
       6.262716579983e+00       8.075394829095e-01 
       6.762325811764e+00       6.619627339260e-01 
       7.301791451110e+00       5.421326328761e-01 
       7.884293049406e+00       4.435249836364e-01 
       8.513263807261e+00       3.624342218090e-01 
       9.192410809424e+00       2.957589350817e-01 
       9.925736873929e+00       2.409620348697e-01 
       1.071756414427e+01       1.959282680270e-01 
       1.157255956364e+01       1.589254263529e-01 
       1.249576238137e+01       1.285191881088e-01 
       1.349261385375e+01       1.035299845843e-01 
       1.456898931416e+01       8.298881204234e-02 
       1.573123280165e+01       6.610193516764e-02 
       1.698619445202e+01       5.221632676641e-02 
       1.834127087176e+01       4.080510031243e-02 
       1.980444873285e+01       3.143654146607e-02 
       2.138435184532e+01       2.376436796491e-02 
       2.309029198506e+01       1.751331263228e-02 
       2.493232377636e+01       1.246516411504e-02 
       2.692130395282e+01       8.449883730505e-03 
       2.906895534573e+01       5.335444638673e-03 
       3.138793597714e+01       3.018856880281e-03 
       3.389191366484e+01       1.415460108591e-03 
       3.659564657905e+01       4.475320796358e-04 
       3.951507022538e+01       3.257521485321e-05 
       4.266739136701e+01       7.150652404258e-05 
       4.607118943941e+01       4.398219358391e-04 
       4.974652605557e+01       9.851965118460e-04 
       5.371506324689e+01       1.536011511584e-03 
       5.800019113685e+01       1.924326914820e-03 
       6.262716579983e+01       2.022405575219e-03 
       6.762325811764e+01       1.785344386065e-03 
