# Matter power spectrum P(k) at redshift z=0
# for k=1.04775e-05 to 67.6233 h/Mpc,
# number of wavenumbers equal to 246
#    1:k (h/Mpc)              2:P (Mpc/h)^3        
       1.047750691338e-05       5.020964806749e+01 
       1.131335172818e-05       5.407048206554e+01 
       1.221587619877e-05       5.822819063691e+01 
       1.319039970550e-05       6.270562589685e+01 
       1.424266598317e-05       6.752731788102e+01 
       1.537887697396e-05       7.271977200258e+01 
       1.660572938097e-05       7.831147241542e+01 
       1.793045413791e-05       8.433311815128e+01 
       1.936085902737e-05       9.081778242446e+01 
       2.090537469909e-05       9.780108061338e+01 
       2.257310435923e-05       1.053213197032e+02 
       2.437387742372e-05       1.134197377001e+02 
       2.631830745176e-05       1.221408202816e+02 
       2.841785470091e-05       1.315324720916e+02 
       3.068489367268e-05       1.416462093731e+02 
       3.313278604643e-05       1.525374500691e+02 
       3.577595943165e-05       1.642660687078e+02 
       3.862999240274e-05       1.768963504868e+02 
       4.171170631739e-05       1.904975992460e+02 
       4.503926445983e-05       2.051444490305e+02 
       4.863227909323e-05       2.209171463752e+02 
       5.251192705226e-05       2.379022222314e+02 
       5.670107455699e-05       2.561927925572e+02 
       6.122441198393e-05       2.758890441792e+02 
       6.610859938837e-05       2.970989225465e+02 
       7.138242363583e-05       3.199385558200e+02 
       7.707696806873e-05       3.445329780878e+02 
       8.322579570814e-05       3.710167315928e+02 
       8.986514707061e-05       3.995346440953e+02 
       9.703415376577e-05       4.302425403884e+02 
       1.047750691338e-04       4.633080762974e+02 
       1.131335172818e-04       4.989116267507e+02 
       1.221587619877e-04       5.372471946560e+02 
       1.319039970550e-04       5.785234124635e+02 
       1.424266598317e-04       6.229645929806e+02 
       1.537887697396e-04       6.708118484950e+02 
       1.660572938097e-04       7.223242660219e+02 
       1.793045413791e-04       7.777801552660e+02 
       1.936085902737e-04       8.374783607332e+02 
       2.090537469909e-04       9.017396264494e+02 
       2.257310435923e-04       9.709080260150e+02 
       2.437387742372e-04       1.045352448644e+03 
       2.631830745176e-04       1.125468122836e+03 
       2.841785470091e-04       1.211678179510e+03 
       3.068489367268e-04       1.304435249090e+03 
       3.313278604643e-04       1.404223052541e+03 
       3.577595943165e-04       1.511558013389e+03 
       3.862999240274e-04       1.626990836448e+03 
       4.171170631739e-04       1.751108027369e+03 
       4.503926445983e-04       1.884533381343e+03 
       4.863227909323e-04       2.027929376468e+03 
       5.251192705226e-04       2.181998446365e+03 
       5.670107455699e-04       2.347484100854e+03 
       6.122441198393e-04       2.525171869332e+03 
       6.610859938837e-04       2.715889981395e+03 
       7.138242363583e-04       2.920509686078e+03 
       7.707696806873e-04       3.139945097702e+03 
       8.322579570814e-04       3.375152334385e+03 
       8.986514707061e-04       3.627127828218e+03 
       9.703415376577e-04       3.896905449999e+03 
       1.047750691338e-03       4.185552170949e+03 
       1.131335172818e-03       4.494162426764e+03 
       1.221587619877e-03       4.823850702636e+03 
       1.319039970550e-03       5.175742734719e+03 
       1.424266598317e-03       5.551019592470e+03 
       1.537887697396e-03       5.950788335801e+03 
       1.660572938097e-03       6.376123046684e+03 
       1.793045413791e-03       6.828073896015e+03 
       1.936085902737e-03       7.307625375239e+03 
       2.090537469909e-03       7.815671862172e+03 
       2.257310435923e-03       8.352990369145e+03 
       2.437387742372e-03       8.920211057235e+03 
       2.631830745176e-03       9.517783061498e+03 
       2.841785470091e-03       1.014593703621e+04 
       3.068489367268e-03       1.080464505668e+04 
       3.313278604643e-03       1.149357459428e+04 
       3.577595943165e-03       1.221203620726e+04 
       3.862999240274e-03       1.295892538379e+04 
       4.171170631739e-03       1.373266002029e+04 
       4.503926445983e-03       1.453111834395e+04 
       4.863227909323e-03       1.535154977061e+04 
       5.251192705226e-03       1.619063570876e+04 
       5.670107455699e-03       1.704431254132e+04 
       6.122441198393e-03       1.790755962829e+04 
       6.610859938837e-03       1.877460429689e+04 
       7.138242363583e-03       1.963872505319e+04 
       7.707696806873e-03       2.049215706622e+04 
       8.322579570814e-03       2.132610835126e+04 
       8.986514707061e-03       2.213054896420e+04 
       9.703415376577e-03       2.289445686143e+04 
       1.047750691338e-02       2.360548347686e+04 
       1.131335172818e-02       2.425021322458e+04 
       1.221587619877e-02       2.481424043517e+04 
       1.319039970550e-02       2.528219830458e+04 
       1.424266598317e-02       2.563813837286e+04 
       1.537887697392e-02       2.586610225239e+04 
       1.660572938023e-02       2.595032751137e+04 
       1.793045412706e-02       2.587642553783e+04 
       1.936085890181e-02       2.563230173244e+04 
       2.090537352463e-02       2.520936455122e+04 
       2.257309535333e-02       2.460444768373e+04 
       2.437382002918e-02       2.382087170485e+04 
       2.631799944462e-02       2.287038209049e+04 
       2.841644545389e-02       2.177443342125e+04 
       3.067933355377e-02       2.056547252320e+04 
       3.311368470740e-02       1.928720193462e+04 
       3.571840443502e-02       1.799394684714e+04 
       3.847720348444e-02       1.674669502102e+04 
       4.135335538431e-02       1.560447227555e+04 
       4.429361667738e-02       1.461040023347e+04 
       4.724366439141e-02       1.378039673440e+04 
       5.016480835311e-02       1.310494268702e+04 
       5.303989620246e-02       1.255713800350e+04 
       5.586870669566e-02       1.210423800593e+04 
       5.866042680613e-02       1.171468598815e+04 
       6.142798932958e-02       1.136019209533e+04 
       6.418496440164e-02       1.101858754657e+04 
       6.694418833788e-02       1.067065860682e+04 
       6.971731106057e-02       1.030344752477e+04 
       7.251476155766e-02       9.909048805174e+03 
       7.534587671527e-02       9.483638708994e+03 
       7.821907666265e-02       9.029319902587e+03 
       8.114203772912e-02       8.552133186683e+03 
       8.412184535029e-02       8.061940609360e+03 
       8.716512279304e-02       7.570767193872e+03 
       9.027813695930e-02       7.092490957054e+03 
       9.346688431697e-02       6.640520798735e+03 
       9.673716028276e-02       6.226706292906e+03 
       1.000946150830e-01       5.859939734511e+03 
       1.035447986537e-01       5.545252595589e+03 
       1.070931966762e-01       5.283160257390e+03 
       1.107452594425e-01       5.069457950079e+03 
       1.145064249153e-01       4.895274600998e+03 
       1.183821370918e-01       4.747842469320e+03 
       1.223778605862e-01       4.611729645073e+03 
       1.264990921987e-01       4.470616155460e+03 
       1.307513701367e-01       4.310286171433e+03 
       1.351402814784e-01       4.121395022800e+03 
       1.396714684203e-01       3.902063055222e+03 
       1.443506338194e-01       3.658646583111e+03 
       1.491835465229e-01       3.404464523077e+03 
       1.541760469708e-01       3.156641240453e+03 
       1.593340535561e-01       2.931932499488e+03 
       1.646635702297e-01       2.742355782920e+03 
       1.701706958456e-01       2.592234418336e+03 
       1.758616357459e-01       2.477214121212e+03 
       1.817427160982e-01       2.385163926192e+03 
       1.878204015065e-01       2.300341006013e+03 
       1.941013164283e-01       2.205775305214e+03 
       2.005922709503e-01       2.090838250777e+03 
       2.073002914972e-01       1.956461871185e+03 
       2.142326570816e-01       1.814178559950e+03 
       2.213969417533e-01       1.679274116425e+03 
       2.288010639706e-01       1.563846544014e+03 
       2.364533437147e-01       1.472666763411e+03 
       2.443625682930e-01       1.401509156546e+03 
       2.525380679504e-01       1.338416336771e+03 
       2.609898026346e-01       1.270897950242e+03 
       2.697284615565e-01       1.193354770645e+03 
       2.787655775689e-01       1.109326457124e+03 
       2.881136588829e-01       1.028760316247e+03 
       2.977863412677e-01       9.604732997333e+02 
       3.077985646929e-01       9.050157199439e+02 
       3.181667794071e-01       8.561345473859e+02 
       3.289091877812e-01       8.061783827193e+02 
       3.400460299658e-01       7.523794768841e+02 
       3.515999236474e-01       6.989108926580e+02 
       3.635962711085e-01       6.510558605005e+02 
       3.760637506334e-01       6.101137959562e+02 
       3.890349143879e-01       5.721241421366e+02 
       4.025469216825e-01       5.337718238794e+02 
       4.166424456376e-01       4.956200234097e+02 
       4.313708035863e-01       4.604624229460e+02 
       4.467893782977e-01       4.287661508770e+02 
       4.629654199664e-01       3.987649805517e+02 
       4.799783501994e-01       3.692322156100e+02 
       4.979227319373e-01       3.412327206561e+02 
       5.169121270864e-01       3.154741563378e+02 
       5.370841404489e-01       2.908267215126e+02 
       5.586070464571e-01       2.670965828092e+02 
       5.816885094930e-01       2.448016219054e+02 
       6.065870144995e-01       2.235622498333e+02 
       6.336266468475e-01       2.032047661382e+02 
       6.632156059511e-01       1.838728184797e+02 
       6.958678639263e-01       1.653487704350e+02 
       7.322247985589e-01       1.476897503069e+02 
       7.730680195114e-01       1.308284919442e+02 
       8.193049553677e-01       1.148260348295e+02 
       8.718988016039e-01       9.975767962930e+01 
       9.317218031082e-01       8.577233177823e+01 
       9.993660908989e-01       7.304912774954e+01 
       1.075037110174e+00       6.173037224552e+01 
       1.158653485707e+00       5.187344489341e+01 
       1.250099157308e+00       4.343464857702e+01 
       1.349432401273e+00       3.628388284189e+01 
       1.456947457397e+00       3.026254987963e+01 
       1.573135111331e+00       2.520913736654e+01 
       1.698621895592e+00       2.097662719041e+01 
       1.834127512934e+00       1.743689551634e+01 
       1.980444934528e+00       1.448025813420e+01 
       2.138435191726e+00       1.201350770877e+01 
       2.309029199186e+00       9.957843786687e+00 
       2.493232377687e+00       8.246504540380e+00 
       2.692130395285e+00       6.823304859176e+00 
       2.906895534573e+00       5.641021440385e+00 
       3.138793597714e+00       4.659694664385e+00 
       3.389191366484e+00       3.846039963560e+00 
       3.659564657905e+00       3.171895267313e+00 
       3.951507022538e+00       2.613894144692e+00 
       4.266739136701e+00       2.152449077838e+00 
       4.607118943941e+00       1.771097131036e+00 
       4.974652605557e+00       1.456226364479e+00 
       5.371506324689e+00       1.196445624832e+00 
       5.800019113685e+00       9.822743983629e-01 
       6.262716579983e+00       8.058329912071e-01 
       6.762325811764e+00       6.605724610754e-01 
       7.301791451110e+00       5.410722575613e-01 
       7.884293049406e+00       4.428341914693e-01 
       8.513263807261e+00       3.621243646022e-01 
       9.192410809424e+00       2.958560212555e-01 
       9.925736873929e+00       2.414888483808e-01 
       1.071756414427e+01       1.969073185557e-01 
       1.157255956364e+01       1.603766104016e-01 
       1.249576238137e+01       1.304644932013e-01 
       1.349261385375e+01       1.059825491449e-01 
       1.456898931416e+01       8.596392119169e-02 
       1.573123280165e+01       6.960302034888e-02 
       1.698619445202e+01       5.624423911359e-02 
       1.834127087176e+01       4.534287156988e-02 
       1.980444873285e+01       3.645611062980e-02 
       2.138435184532e+01       2.921823622653e-02 
       2.309029198506e+01       2.332931480728e-02 
       2.493232377636e+01       1.854501233884e-02 
       2.692130395282e+01       1.466367155442e-02 
       2.906895534573e+01       1.152104829414e-02 
       3.138793597714e+01       8.982497251143e-03 
       3.389191366484e+01       6.938241821851e-03 
       3.659564657905e+01       5.298706819487e-03 
       3.951507022538e+01       3.990662265241e-03 
       4.266739136701e+01       2.954229866516e-03 
       4.607118943941e+01       2.140802664372e-03 
       4.974652605557e+01       1.510413516031e-03 
       5.371506324689e+01       1.030184269953e-03 
       5.800019113685e+01       6.728003042536e-04 
       6.262716579983e+01       4.151897055469e-04 
       6.762325811764e+01       2.374910784825e-04 
