# Matter power spectrum P(k) at redshift z=0
# for k=1.04775e-05 to 67.6233 h/Mpc,
# number of wavenumbers equal to 246
#    1:k (h/Mpc)              2:P (Mpc/h)^3        
       1.047750691338e-05       5.020964806753e+01 
       1.131335172818e-05       5.407048206554e+01 
       1.221587619877e-05       5.822819063566e+01 
       1.319039970550e-05       6.270562589681e+01 
       1.424266598317e-05       6.752731788102e+01 
       1.537887697396e-05       7.271977200257e+01 
       1.660572938097e-05       7.831147241542e+01 
       1.793045413791e-05       8.433311815128e+01 
       1.936085902737e-05       9.081778242446e+01 
       2.090537469909e-05       9.780108061339e+01 
       2.257310435923e-05       1.053213197032e+02 
       2.437387742372e-05       1.134197377001e+02 
       2.631830745176e-05       1.221408202816e+02 
       2.841785470091e-05       1.315324720916e+02 
       3.068489367268e-05       1.416462093730e+02 
       3.313278604643e-05       1.525374500691e+02 
       3.577595943165e-05       1.642660687078e+02 
       3.862999240274e-05       1.768963504868e+02 
       4.171170631739e-05       1.904975992460e+02 
       4.503926445983e-05       2.051444490305e+02 
       4.863227909323e-05       2.209171463752e+02 
       5.251192705226e-05       2.379022222314e+02 
       5.670107455699e-05       2.561927925531e+02 
       6.122441198393e-05       2.758890441791e+02 
       6.610859938837e-05       2.970989225465e+02 
       7.138242363583e-05       3.199385558200e+02 
       7.707696806873e-05       3.445329780878e+02 
       8.322579570814e-05       3.710167315928e+02 
       8.986514707061e-05       3.995346440954e+02 
       9.703415376577e-05       4.302425403884e+02 
       1.047750691338e-04       4.633080762974e+02 
       1.131335172818e-04       4.989116267507e+02 
       1.221587619877e-04       5.372471946561e+02 
       1.319039970550e-04       5.785234124638e+02 
       1.424266598317e-04       6.229645930980e+02 
       1.537887697396e-04       6.708118484951e+02 
       1.660572938097e-04       7.223242660220e+02 
       1.793045413791e-04       7.777801554042e+02 
       1.936085902737e-04       8.374783607334e+02 
       2.090537469909e-04       9.017396264495e+02 
       2.257310435923e-04       9.709080260152e+02 
       2.437387742372e-04       1.045352448644e+03 
       2.631830745176e-04       1.125468122836e+03 
       2.841785470091e-04       1.211678179511e+03 
       3.068489367268e-04       1.304435249091e+03 
       3.313278604643e-04       1.404223052541e+03 
       3.577595943165e-04       1.511558013390e+03 
       3.862999240274e-04       1.626990836423e+03 
       4.171170631739e-04       1.751108027371e+03 
       4.503926445983e-04       1.884533381345e+03 
       4.863227909323e-04       2.027929376471e+03 
       5.251192705226e-04       2.181998446367e+03 
       5.670107455699e-04       2.347484100857e+03 
       6.122441198393e-04       2.525171869334e+03 
       6.610859938837e-04       2.715889981400e+03 
       7.138242363583e-04       2.920509686086e+03 
       7.707696806873e-04       3.139945097710e+03 
       8.322579570814e-04       3.375152334395e+03 
       8.986514707061e-04       3.627127828231e+03 
       9.703415376577e-04       3.896905450016e+03 
       1.047750691338e-03       4.185552170961e+03 
       1.131335172818e-03       4.494162426791e+03 
       1.221587619877e-03       4.823850702668e+03 
       1.319039970550e-03       5.175742734701e+03 
       1.424266598317e-03       5.551019592514e+03 
       1.537887697396e-03       5.950788335870e+03 
       1.660572938097e-03       6.376123046806e+03 
       1.793045413791e-03       6.828073896136e+03 
       1.936085902737e-03       7.307625375386e+03 
       2.090537469909e-03       7.815671860061e+03 
       2.257310435923e-03       8.352990369399e+03 
       2.437387742372e-03       8.920211057519e+03 
       2.631830745176e-03       9.517783061890e+03 
       2.841785470091e-03       1.014593703671e+04 
       3.068489367268e-03       1.080464505730e+04 
       3.313278604643e-03       1.149357459458e+04 
       3.577595943165e-03       1.221203620826e+04 
       3.862999240274e-03       1.295892538505e+04 
       4.171170631739e-03       1.373266002171e+04 
       4.503926445983e-03       1.453111834595e+04 
       4.863227909323e-03       1.535154984223e+04 
       5.251192705226e-03       1.619063613410e+04 
       5.670107455699e-03       1.704431256623e+04 
       6.122441198393e-03       1.790755938465e+04 
       6.610859938837e-03       1.877460423716e+04 
       7.138242363583e-03       1.963872429147e+04 
       7.707696806873e-03       2.049215713709e+04 
       8.322579570814e-03       2.132607230688e+04 
       8.986514707061e-03       2.213054940728e+04 
       9.703415376577e-03       2.289445470994e+04 
       1.047750691338e-02       2.360548691475e+04 
       1.131335172818e-02       2.425023162921e+04 
       1.221587619877e-02       2.481423919973e+04 
       1.319039970550e-02       2.528218941907e+04 
       1.424266598317e-02       2.563814405680e+04 
       1.537887697392e-02       2.586608823067e+04 
       1.660572938023e-02       2.595025906923e+04 
       1.793045412706e-02       2.587635084766e+04 
       1.936085890181e-02       2.563220495165e+04 
       2.090537352463e-02       2.520936760598e+04 
       2.257309535333e-02       2.460443417987e+04 
       2.437382002918e-02       2.382087060130e+04 
       2.631799944462e-02       2.287042749051e+04 
       2.841644545389e-02       2.177452355113e+04 
       3.067933355377e-02       2.056555264705e+04 
       3.311368470740e-02       1.928730134753e+04 
       3.571840443502e-02       1.799399446804e+04 
       3.847720348444e-02       1.674682449608e+04 
       4.135335538431e-02       1.560455607089e+04 
       4.429361667738e-02       1.461036295835e+04 
       4.724366439141e-02       1.378054594081e+04 
       5.016480835311e-02       1.310506330111e+04 
       5.303989620246e-02       1.255716768259e+04 
       5.586870669566e-02       1.210427478538e+04 
       5.866042680613e-02       1.171464994303e+04 
       6.142798932958e-02       1.136046157793e+04 
       6.418496440164e-02       1.101856672677e+04 
       6.694418833788e-02       1.067068470897e+04 
       6.971731106057e-02       1.030355295364e+04 
       7.251476155766e-02       9.909021826062e+03 
       7.534587671527e-02       9.483777271369e+03 
       7.821907666265e-02       9.029511039165e+03 
       8.114203772912e-02       8.552344641519e+03 
       8.412184535029e-02       8.061910843046e+03 
       8.716512279304e-02       7.570778613910e+03 
       9.027813695930e-02       7.092480385230e+03 
       9.346688431697e-02       6.640520531899e+03 
       9.673716028276e-02       6.226729528702e+03 
       1.000946150830e-01       5.859960606136e+03 
       1.035447986537e-01       5.545253840979e+03 
       1.070931966762e-01       5.283143013880e+03 
       1.107452594425e-01       5.069426066715e+03 
       1.145064249153e-01       4.895248564422e+03 
       1.183821370918e-01       4.747832972521e+03 
       1.223778605862e-01       4.611737432617e+03 
       1.264990921987e-01       4.470623687404e+03 
       1.307513701367e-01       4.310270839569e+03 
       1.351402814784e-01       4.121376688613e+03 
       1.396714684203e-01       3.902069698001e+03 
       1.443506338194e-01       3.658656714393e+03 
       1.491835465229e-01       3.404489444766e+03 
       1.541760469708e-01       3.156672659806e+03 
       1.593340535561e-01       2.931977194656e+03 
       1.646635702297e-01       2.742379552312e+03 
       1.701706958456e-01       2.592260170134e+03 
       1.758616357459e-01       2.477238814981e+03 
       1.817427160982e-01       2.385184850220e+03 
       1.878204015065e-01       2.300360690486e+03 
       1.941013164283e-01       2.205755585633e+03 
       2.005922709503e-01       2.090815108714e+03 
       2.073002914972e-01       1.956473908931e+03 
       2.142326570816e-01       1.814190587418e+03 
       2.213969417533e-01       1.679296321878e+03 
       2.288010639706e-01       1.563849749984e+03 
       2.364533437147e-01       1.472685184930e+03 
       2.443625682930e-01       1.401511093917e+03 
       2.525380679504e-01       1.338415315348e+03 
       2.609898026346e-01       1.270898812886e+03 
       2.697284615565e-01       1.193384904824e+03 
       2.787655775689e-01       1.109340758687e+03 
       2.881136588829e-01       1.028769071708e+03 
       2.977863412677e-01       9.604806961715e+02 
       3.077985646929e-01       9.050221064636e+02 
       3.181667794071e-01       8.561434297809e+02 
       3.289091877812e-01       8.061867010619e+02 
       3.400460299658e-01       7.523912315495e+02 
       3.515999236474e-01       6.989228792312e+02 
       3.635962711085e-01       6.510619365532e+02 
       3.760637506334e-01       6.101211550736e+02 
       3.890349143879e-01       5.721321684917e+02 
       4.025469216825e-01       5.337833509101e+02 
       4.166424456376e-01       4.956306479798e+02 
       4.313708035863e-01       4.604676982067e+02 
       4.467893782977e-01       4.287754724013e+02 
       4.629654199664e-01       3.987724872212e+02 
       4.799783501994e-01       3.692423565994e+02 
       4.979227319373e-01       3.412394365521e+02 
       5.169121270864e-01       3.154825899494e+02 
       5.370841404489e-01       2.908354407476e+02 
       5.586070464571e-01       2.671052794262e+02 
       5.816885094930e-01       2.448086688617e+02 
       6.065870144995e-01       2.235677368355e+02 
       6.336266468475e-01       2.032098742395e+02 
       6.632156059511e-01       1.838788252730e+02 
       6.958678639263e-01       1.653541996304e+02 
       7.322247985589e-01       1.476950539373e+02 
       7.730680195114e-01       1.308334909197e+02 
       8.193049553677e-01       1.148307116101e+02 
       8.718988016039e-01       9.976249763287e+01 
       9.317218031082e-01       8.577800912402e+01 
       9.993660908989e-01       7.305458596310e+01 
       1.075037110174e+00       6.173576749061e+01 
       1.158653485707e+00       5.187906542949e+01 
       1.250099157308e+00       4.344022831648e+01 
       1.349432401273e+00       3.628942138900e+01 
       1.456947457397e+00       3.026794189347e+01 
       1.573135111331e+00       2.521444685518e+01 
       1.698621895592e+00       2.098188451999e+01 
       1.834127512934e+00       1.744220270853e+01 
       1.980444934528e+00       1.448554516841e+01 
       2.138435191726e+00       1.201870859094e+01 
       2.309029199186e+00       9.962921561673e+00 
       2.493232377687e+00       8.251552880331e+00 
       2.692130395285e+00       6.828324511565e+00 
       2.906895534573e+00       5.645933393123e+00 
       3.138793597714e+00       4.664551098938e+00 
       3.389191366484e+00       3.850708291257e+00 
       3.659564657905e+00       3.176501290320e+00 
       3.951507022538e+00       2.618367631529e+00 
       4.266739136701e+00       2.156802845787e+00 
       4.607118943941e+00       1.775336486044e+00 
       4.974652605557e+00       1.460332304632e+00 
       5.371506324689e+00       1.200400177143e+00 
       5.800019113685e+00       9.860806957798e-01 
       6.262716579983e+00       8.094842640347e-01 
       6.762325811764e+00       6.640642407365e-01 
       7.301791451110e+00       5.443950203542e-01 
       7.884293049406e+00       4.459686345223e-01 
       8.513263807261e+00       3.650713996864e-01 
       9.192410809424e+00       2.986110940167e-01 
       9.925736873929e+00       2.440394075241e-01 
       1.071756414427e+01       1.992470636546e-01 
       1.157255956364e+01       1.624998575799e-01 
       1.249576238137e+01       1.323588825441e-01 
       1.349261385375e+01       1.076451250199e-01 
       1.456898931416e+01       8.738605988297e-02 
       1.573123280165e+01       7.078017116208e-02 
       1.698619445202e+01       5.716967459314e-02 
       1.834127087176e+01       4.601409904376e-02 
       1.980444873285e+01       3.687152979447e-02 
       2.138435184532e+01       2.937933371769e-02 
       2.309029198506e+01       2.324081782840e-02 
       2.493232377636e+01       1.821522834522e-02 
       2.692130395282e+01       1.410598298899e-02 
       2.906895534573e+01       1.075479316235e-02 
       3.138793597714e+01       8.033885823686e-03 
       3.389191366484e+01       5.840730733823e-03 
       3.659564657905e+01       4.093860225798e-03 
       3.951507022538e+01       2.727938267312e-03 
       4.266739136701e+01       1.690365181968e-03 
       4.607118943941e+01       9.374238254628e-04 
       4.974652605557e+01       4.308378178068e-04 
       5.371506324689e+01       1.341832693488e-04 
       5.800019113685e+01       1.019214611502e-05 
       6.262716579983e+01       1.836313294802e-05 
       6.762325811764e+01       1.142194335257e-04 
