# Matter power spectrum P(k) at redshift z=0
# for k=1.04775e-05 to 67.6233 h/Mpc,
# number of wavenumbers equal to 246
#    1:k (h/Mpc)              2:P (Mpc/h)^3        
       1.047750691338e-05       5.020964806749e+01 
       1.131335172818e-05       5.407048206554e+01 
       1.221587619877e-05       5.822819063893e+01 
       1.319039970550e-05       6.270562589677e+01 
       1.424266598317e-05       6.752731788102e+01 
       1.537887697396e-05       7.271977200258e+01 
       1.660572938097e-05       7.831147241542e+01 
       1.793045413791e-05       8.433311815128e+01 
       1.936085902737e-05       9.081778242446e+01 
       2.090537469909e-05       9.780108061341e+01 
       2.257310435923e-05       1.053213197032e+02 
       2.437387742372e-05       1.134197377001e+02 
       2.631830745176e-05       1.221408202816e+02 
       2.841785470091e-05       1.315324720916e+02 
       3.068489367268e-05       1.416462093730e+02 
       3.313278604643e-05       1.525374500691e+02 
       3.577595943165e-05       1.642660687078e+02 
       3.862999240274e-05       1.768963504868e+02 
       4.171170631739e-05       1.904975992460e+02 
       4.503926445983e-05       2.051444490305e+02 
       4.863227909323e-05       2.209171463752e+02 
       5.251192705226e-05       2.379022222314e+02 
       5.670107455699e-05       2.561927925550e+02 
       6.122441198393e-05       2.758890441791e+02 
       6.610859938837e-05       2.970989225466e+02 
       7.138242363583e-05       3.199385558200e+02 
       7.707696806873e-05       3.445329780878e+02 
       8.322579570814e-05       3.710167315928e+02 
       8.986514707061e-05       3.995346440954e+02 
       9.703415376577e-05       4.302425403884e+02 
       1.047750691338e-04       4.633080762974e+02 
       1.131335172818e-04       4.989116267507e+02 
       1.221587619877e-04       5.372471946561e+02 
       1.319039970550e-04       5.785234124638e+02 
       1.424266598317e-04       6.229645930980e+02 
       1.537887697396e-04       6.708118484951e+02 
       1.660572938097e-04       7.223242660220e+02 
       1.793045413791e-04       7.777801554006e+02 
       1.936085902737e-04       8.374783607334e+02 
       2.090537469909e-04       9.017396264495e+02 
       2.257310435923e-04       9.709080260152e+02 
       2.437387742372e-04       1.045352448644e+03 
       2.631830745176e-04       1.125468122836e+03 
       2.841785470091e-04       1.211678179511e+03 
       3.068489367268e-04       1.304435249091e+03 
       3.313278604643e-04       1.404223052541e+03 
       3.577595943165e-04       1.511558013390e+03 
       3.862999240274e-04       1.626990836510e+03 
       4.171170631739e-04       1.751108027371e+03 
       4.503926445983e-04       1.884533381345e+03 
       4.863227909323e-04       2.027929376470e+03 
       5.251192705226e-04       2.181998446367e+03 
       5.670107455699e-04       2.347484100857e+03 
       6.122441198393e-04       2.525171869336e+03 
       6.610859938837e-04       2.715889981401e+03 
       7.138242363583e-04       2.920509686077e+03 
       7.707696806873e-04       3.139945097710e+03 
       8.322579570814e-04       3.375152334396e+03 
       8.986514707061e-04       3.627127828231e+03 
       9.703415376577e-04       3.896905450016e+03 
       1.047750691338e-03       4.185552170960e+03 
       1.131335172818e-03       4.494162426791e+03 
       1.221587619877e-03       4.823850702670e+03 
       1.319039970550e-03       5.175742739053e+03 
       1.424266598317e-03       5.551019592511e+03 
       1.537887697396e-03       5.950788335883e+03 
       1.660572938097e-03       6.376123046778e+03 
       1.793045413791e-03       6.828073896114e+03 
       1.936085902737e-03       7.307625375386e+03 
       2.090537469909e-03       7.815671860203e+03 
       2.257310435923e-03       8.352990369398e+03 
       2.437387742372e-03       8.920211057535e+03 
       2.631830745176e-03       9.517783061889e+03 
       2.841785470091e-03       1.014593703671e+04 
       3.068489367268e-03       1.080464505735e+04 
       3.313278604643e-03       1.149357459544e+04 
       3.577595943165e-03       1.221203620826e+04 
       3.862999240274e-03       1.295892538505e+04 
       4.171170631739e-03       1.373266002397e+04 
       4.503926445983e-03       1.453111834595e+04 
       4.863227909323e-03       1.535154984202e+04 
       5.251192705226e-03       1.619063613290e+04 
       5.670107455699e-03       1.704431256580e+04 
       6.122441198393e-03       1.790755938540e+04 
       6.610859938837e-03       1.877460420075e+04 
       7.138242363583e-03       1.963872429376e+04 
       7.707696806873e-03       2.049215713491e+04 
       8.322579570814e-03       2.132607119140e+04 
       8.986514707061e-03       2.213055074915e+04 
       9.703415376577e-03       2.289445471910e+04 
       1.047750691338e-02       2.360548592315e+04 
       1.131335172818e-02       2.425023825571e+04 
       1.221587619877e-02       2.481423925257e+04 
       1.319039970550e-02       2.528218686165e+04 
       1.424266598317e-02       2.563813184479e+04 
       1.537887697392e-02       2.586606564036e+04 
       1.660572938023e-02       2.595027688519e+04 
       1.793045412706e-02       2.587635746142e+04 
       1.936085890181e-02       2.563219610115e+04 
       2.090537352463e-02       2.520934726150e+04 
       2.257309535333e-02       2.460447167573e+04 
       2.437382002918e-02       2.382090956746e+04 
       2.631799944462e-02       2.287042259480e+04 
       2.841644545389e-02       2.177450208626e+04 
       3.067933355377e-02       2.056554320882e+04 
       3.311368470740e-02       1.928726609658e+04 
       3.571840443502e-02       1.799403510537e+04 
       3.847720348444e-02       1.674685366231e+04 
       4.135335538431e-02       1.560457553622e+04 
       4.429361667738e-02       1.461040128530e+04 
       4.724366439141e-02       1.378056198065e+04 
       5.016480835311e-02       1.310504748062e+04 
       5.303989620246e-02       1.255714372415e+04 
       5.586870669566e-02       1.210427275283e+04 
       5.866042680613e-02       1.171465807454e+04 
       6.142798932958e-02       1.136048461607e+04 
       6.418496440164e-02       1.101852457289e+04 
       6.694418833788e-02       1.067068975001e+04 
       6.971731106057e-02       1.030356346101e+04 
       7.251476155766e-02       9.908953802159e+03 
       7.534587671527e-02       9.483717448996e+03 
       7.821907666265e-02       9.029472942603e+03 
       8.114203772912e-02       8.552314650201e+03 
       8.412184535029e-02       8.061970568179e+03 
       8.716512279304e-02       7.570771890307e+03 
       9.027813695930e-02       7.092530034361e+03 
       9.346688431697e-02       6.640472590688e+03 
       9.673716028276e-02       6.226676243212e+03 
       1.000946150830e-01       5.859926601340e+03 
       1.035447986537e-01       5.545281600856e+03 
       1.070931966762e-01       5.283149037151e+03 
       1.107452594425e-01       5.069452623276e+03 
       1.145064249153e-01       4.895271852461e+03 
       1.183821370918e-01       4.747839269413e+03 
       1.223778605862e-01       4.611722593104e+03 
       1.264990921987e-01       4.470610346452e+03 
       1.307513701367e-01       4.310268617111e+03 
       1.351402814784e-01       4.121377429521e+03 
       1.396714684203e-01       3.902048174831e+03 
       1.443506338194e-01       3.658647007714e+03 
       1.491835465229e-01       3.404486346592e+03 
       1.541760469708e-01       3.156679553620e+03 
       1.593340535561e-01       2.931958039395e+03 
       1.646635702297e-01       2.742372687374e+03 
       1.701706958456e-01       2.592258586282e+03 
       1.758616357459e-01       2.477236455698e+03 
       1.817427160982e-01       2.385185512270e+03 
       1.878204015065e-01       2.300353568066e+03 
       1.941013164283e-01       2.205755223888e+03 
       2.005922709503e-01       2.090810560277e+03 
       2.073002914972e-01       1.956455226137e+03 
       2.142326570816e-01       1.814183121495e+03 
       2.213969417533e-01       1.679288704661e+03 
       2.288010639706e-01       1.563842228262e+03 
       2.364533437147e-01       1.472680414876e+03 
       2.443625682930e-01       1.401506779543e+03 
       2.525380679504e-01       1.338409143368e+03 
       2.609898026346e-01       1.270896489358e+03 
       2.697284615565e-01       1.193376377066e+03 
       2.787655775689e-01       1.109332338451e+03 
       2.881136588829e-01       1.028762752008e+03 
       2.977863412677e-01       9.604756651055e+02 
       3.077985646929e-01       9.050168699439e+02 
       3.181667794071e-01       8.561362753275e+02 
       3.289091877812e-01       8.061777155349e+02 
       3.400460299658e-01       7.523800486628e+02 
       3.515999236474e-01       6.989140423325e+02 
       3.635962711085e-01       6.510508531248e+02 
       3.760637506334e-01       6.101115568891e+02 
       3.890349143879e-01       5.721186925545e+02 
       4.025469216825e-01       5.337675304279e+02 
       4.166424456376e-01       4.956157850466e+02 
       4.313708035863e-01       4.604534345460e+02 
       4.467893782977e-01       4.287605724395e+02 
       4.629654199664e-01       3.987549954077e+02 
       4.799783501994e-01       3.692221653515e+02 
       4.979227319373e-01       3.412220625406e+02 
       5.169121270864e-01       3.154623438379e+02 
       5.370841404489e-01       2.908124102008e+02 
       5.586070464571e-01       2.670823776945e+02 
       5.816885094930e-01       2.447842167813e+02 
       6.065870144995e-01       2.235415110224e+02 
       6.336266468475e-01       2.031821858429e+02 
       6.632156059511e-01       1.838483168629e+02 
       6.958678639263e-01       1.653215843732e+02 
       7.322247985589e-01       1.476605504532e+02 
       7.730680195114e-01       1.307957097289e+02 
       8.193049553677e-01       1.147900705794e+02 
       8.718988016039e-01       9.971759142102e+01 
       9.317218031082e-01       8.572856365386e+01 
       9.993660908989e-01       7.300077631767e+01 
       1.075037110174e+00       6.167645272831e+01 
       1.158653485707e+00       5.181350938214e+01 
       1.250099157308e+00       4.336786406138e+01 
       1.349432401273e+00       3.620964427453e+01 
       1.456947457397e+00       3.018034877735e+01 
       1.573135111331e+00       2.511841865068e+01 
       1.698621895592e+00       2.087652961206e+01 
       1.834127512934e+00       1.732689985488e+01 
       1.980444934528e+00       1.435955451842e+01 
       2.138435191726e+00       1.188136066349e+01 
       2.309029199186e+00       9.813538792725e+00 
       2.493232377687e+00       8.089352801502e+00 
       2.692130395285e+00       6.652611878396e+00 
       2.906895534573e+00       5.456120209560e+00 
       3.138793597714e+00       4.460099311616e+00 
       3.389191366484e+00       3.631277411316e+00 
       3.659564657905e+00       2.941909836817e+00 
       3.951507022538e+00       2.368685278087e+00 
       4.266739136701e+00       1.892371796671e+00 
       4.607118943941e+00       1.496956096088e+00 
       4.974652605557e+00       1.169262749621e+00 
       5.371506324689e+00       8.985320534537e-01 
       5.800019113685e+00       6.759740994589e-01 
       6.262716579983e+00       4.944737459186e-01 
       6.762325811764e+00       3.483426062747e-01 
       7.301791451110e+00       2.329766418314e-01 
       7.884293049406e+00       1.446213967127e-01 
       8.513263807261e+00       8.011068602471e-02 
       9.192410809424e+00       3.656408610187e-02 
       9.925736873929e+00       1.112631474993e-02 
       1.071756414427e+01       7.213555576620e-04 
       1.157255956364e+01       1.872604899472e-03 
       1.249576238137e+01       1.065576905261e-02 
       1.349261385375e+01       2.284140772931e-02 
       1.456898931416e+01       3.426777428983e-02 
       1.573123280165e+01       4.143887315793e-02 
       1.698619445202e+01       4.221938346031e-02 
       1.834127087176e+01       3.641815838638e-02 
       1.980444873285e+01       2.592715782735e-02 
       2.138435184532e+01       1.417726600114e-02 
       2.309029198506e+01       4.869228587044e-03 
       2.493232377636e+01       3.775224486729e-04 
       2.692130395282e+01       6.221884688305e-04 
       2.906895534573e+01       3.217216174218e-03 
       3.138793597714e+01       5.071364414057e-03 
       3.389191366484e+01       4.509507724006e-03 
       3.659564657905e+01       2.266755999001e-03 
       3.951507022538e+01       3.903879436189e-04 
       4.266739136701e+01       4.787801342361e-05 
       4.607118943941e+01       5.642818332572e-04 
       4.974652605557e+01       6.942096681571e-04 
       5.371506324689e+01       2.773446134424e-04 
       5.800019113685e+01       4.458195267826e-06 
       6.262716579983e+01       7.085315958222e-05 
       6.762325811764e+01       9.874895509963e-05 
