# Matter power spectrum P(k) at redshift z=99
# for k=1.04775e-05 to 67.6233 h/Mpc,
# number of wavenumbers equal to 246
#    1:k (h/Mpc)              2:P (Mpc/h)^3        
       1.047750691338e-05       7.261927673119e-03 
       1.131335172818e-05       7.820331745737e-03 
       1.221587619877e-05       8.421675986488e-03 
       1.319039970550e-05       9.069258192194e-03 
       1.424266598317e-05       9.766638404421e-03 
       1.537887697396e-05       1.051764069682e-02 
       1.660572938097e-05       1.132639105520e-02 
       1.793045413791e-05       1.219733231416e-02 
       1.936085902737e-05       1.313524224380e-02 
       2.090537469909e-05       1.414527121893e-02 
       2.257310435923e-05       1.523296272192e-02 
       2.437387742372e-05       1.640429444530e-02 
       2.631830745176e-05       1.766569582177e-02 
       2.841785470091e-05       1.902408601793e-02 
       3.068489367268e-05       2.048692970591e-02 
       3.313278604643e-05       2.206225513594e-02 
       3.577595943165e-05       2.375870704909e-02 
       3.862999240274e-05       2.558560727479e-02 
       4.171170631739e-05       2.755297763344e-02 
       4.503926445983e-05       2.967161927315e-02 
       4.863227909323e-05       3.195316450832e-02 
       5.251192705226e-05       3.441013519284e-02 
       5.670107455699e-05       3.705601722525e-02 
       6.122441198393e-05       3.990533413562e-02 
       6.610859938837e-05       4.297372168203e-02 
       7.138242363583e-05       4.627802141688e-02 
       7.707696806873e-05       4.983636194159e-02 
       8.322579570814e-05       5.366826847231e-02 
       8.986514707061e-05       5.779476394568e-02 
       9.703415376577e-05       6.223848243885e-02 
       1.047750691338e-04       6.702379865640e-02 
       1.131335172818e-04       7.217695153381e-02 
       1.221587619877e-04       7.772619073572e-02 
       1.319039970550e-04       8.370193432376e-02 
       1.424266598317e-04       9.013692507548e-02 
       1.537887697396e-04       9.706641242570e-02 
       1.660572938097e-04       1.045283354271e-01 
       1.793045413791e-04       1.125635349068e-01 
       1.936085902737e-04       1.212159614968e-01 
       2.090537469909e-04       1.305329132714e-01 
       2.257310435923e-04       1.405652846215e-01 
       2.437387742372e-04       1.513678302540e-01 
       2.631830745176e-04       1.629994504871e-01 
       2.841785470091e-04       1.755234921224e-01 
       3.068489367268e-04       1.890080670413e-01 
       3.313278604643e-04       2.035264002435e-01 
       3.577595943165e-04       2.191571803681e-01 
       3.862999240274e-04       2.359849437592e-01 
       4.171170631739e-04       2.541004741539e-01 
       4.503926445983e-04       2.736012080278e-01 
       4.863227909323e-04       2.945916790965e-01 
       5.251192705226e-04       3.171839525183e-01 
       5.670107455699e-04       3.414980764002e-01 
       6.122441198393e-04       3.676625413100e-01 
       6.610859938837e-04       3.958147252304e-01 
       7.138242363583e-04       4.261013284918e-01 
       7.707696806873e-04       4.586787792354e-01 
       8.322579570814e-04       4.937136001376e-01 
       8.986514707061e-04       5.313826801402e-01 
       9.703415376577e-04       5.718734972157e-01 
       1.047750691338e-03       6.153841629505e-01 
       1.131335172818e-03       6.621233239465e-01 
       1.221587619877e-03       7.123098220424e-01 
       1.319039970550e-03       7.661720584608e-01 
       1.424266598317e-03       8.239546297727e-01 
       1.537887697396e-03       8.859011173466e-01 
       1.660572938097e-03       9.522588006418e-01 
       1.793045413791e-03       1.023280099819e+00 
       1.936085902737e-03       1.099216304579e+00 
       2.090537469909e-03       1.180312990454e+00 
       2.257310435923e-03       1.266804115851e+00 
       2.437387742372e-03       1.358904853405e+00 
       2.631830745176e-03       1.456802683156e+00 
       2.841785470091e-03       1.560646890521e+00 
       3.068489367268e-03       1.670536062500e+00 
       3.313278604643e-03       1.786503852157e+00 
       3.577595943165e-03       1.908502930789e+00 
       3.862999240274e-03       2.036387730709e+00 
       4.171170631739e-03       2.169896178604e+00 
       4.503926445983e-03       2.308631878994e+00 
       4.863227909323e-03       2.452047290962e+00 
       5.251192705226e-03       2.599430628087e+00 
       5.670107455699e-03       2.749896931815e+00 
       6.122441198393e-03       2.902386513384e+00 
       6.610859938837e-03       3.055668709307e+00 
       7.138242363583e-03       3.208356461546e+00 
       7.707696806873e-03       3.358923892858e+00 
       8.322579570814e-03       3.505725146234e+00 
       8.986514707061e-03       3.647008937643e+00 
       9.703415376577e-03       3.780923304310e+00 
       1.047750691338e-02       3.905491066131e+00 
       1.131335172818e-02       4.018587641337e+00 
       1.221587619877e-02       4.117901585687e+00 
       1.319039970550e-02       4.200915304762e+00 
       1.424266598317e-02       4.264942411645e+00 
       1.537887697392e-02       4.307219593160e+00 
       1.660572938023e-02       4.325065363179e+00 
       1.793045412706e-02       4.316057042627e+00 
       1.936085890181e-02       4.278228226063e+00 
       2.090537352463e-02       4.210200795032e+00 
       2.257309535333e-02       4.111421874303e+00 
       2.437382002918e-02       3.982419458705e+00 
       2.631799944462e-02       3.825160035751e+00 
       2.841644545389e-02       3.643276844655e+00 
       3.067933355377e-02       3.442193291900e+00 
       3.311368470740e-02       3.229241551265e+00 
       3.571840443502e-02       3.013509066471e+00 
       3.847720348444e-02       2.805284713676e+00 
       4.135335538431e-02       2.614412432441e+00 
       4.429361667738e-02       2.448133712994e+00 
       4.724366439141e-02       2.309239988622e+00 
       5.016480835311e-02       2.196112002521e+00 
       5.303989620246e-02       2.104361609399e+00 
       5.586870669566e-02       2.028462137092e+00 
       5.866042680613e-02       1.963154814637e+00 
       6.142798932958e-02       1.903781299716e+00 
       6.418496440164e-02       1.846480694047e+00 
       6.694418833788e-02       1.788197341122e+00 
       6.971731106057e-02       1.726715764876e+00 
       7.251476155766e-02       1.660655970955e+00 
       7.534587671527e-02       1.589467419168e+00 
       7.821907666265e-02       1.513434572163e+00 
       8.114203772912e-02       1.433570010989e+00 
       8.412184535029e-02       1.351489106978e+00 
       8.716512279304e-02       1.269272584137e+00 
       9.027813695930e-02       1.189193077792e+00 
       9.346688431697e-02       1.113500071550e+00 
       9.673716028276e-02       1.044177786820e+00 
       1.000946150830e-01       9.827073911435e-01 
       1.035447986537e-01       9.299411536305e-01 
       1.070931966762e-01       8.859584025957e-01 
       1.107452594425e-01       8.500715329277e-01 
       1.145064249153e-01       8.208045415689e-01 
       1.183821370918e-01       7.960254589517e-01 
       1.223778605862e-01       7.731448022028e-01 
       1.264990921987e-01       7.494495841520e-01 
       1.307513701367e-01       7.225567270998e-01 
       1.351402814784e-01       6.909091546287e-01 
       1.396714684203e-01       6.541806190387e-01 
       1.443506338194e-01       6.134266942093e-01 
       1.491835465229e-01       5.708683274948e-01 
       1.541760469708e-01       5.293645581417e-01 
       1.593340535561e-01       4.917108506581e-01 
       1.646635702297e-01       4.599201329168e-01 
       1.701706958456e-01       4.347282119560e-01 
       1.758616357459e-01       4.154080234582e-01 
       1.817427160982e-01       3.999367950776e-01 
       1.878204015065e-01       3.856826254880e-01 
       1.941013164283e-01       3.698091800013e-01 
       2.005922709503e-01       3.505469524071e-01 
       2.073002914972e-01       3.280428797806e-01 
       2.142326570816e-01       3.042133661905e-01 
       2.213969417533e-01       2.816116488948e-01 
       2.288010639706e-01       2.622577886250e-01 
       2.364533437147e-01       2.469614525161e-01 
       2.443625682930e-01       2.350131463003e-01 
       2.525380679504e-01       2.244177363878e-01 
       2.609898026346e-01       2.130938460529e-01 
       2.697284615565e-01       2.001013724072e-01 
       2.787655775689e-01       1.860202175984e-01 
       2.881136588829e-01       1.725172649312e-01 
       2.977863412677e-01       1.610660900424e-01 
       3.077985646929e-01       1.517614740891e-01 
       3.181667794071e-01       1.435594572717e-01 
       3.289091877812e-01       1.351813166155e-01 
       3.400460299658e-01       1.261642100037e-01 
       3.515999236474e-01       1.172019137614e-01 
       3.635962711085e-01       1.091765766366e-01 
       3.760637506334e-01       1.023094445711e-01 
       3.890349143879e-01       9.593740391632e-02 
       4.025469216825e-01       8.950736113169e-02 
       4.166424456376e-01       8.311163687354e-02 
       4.313708035863e-01       7.721544689767e-02 
       4.467893782977e-01       7.190060048513e-02 
       4.629654199664e-01       6.686886038671e-02 
       4.799783501994e-01       6.191714811480e-02 
       4.979227319373e-01       5.722195934416e-02 
       5.169121270864e-01       5.290279793207e-02 
       5.370841404489e-01       4.876968442308e-02 
       5.586070464571e-01       4.479070977473e-02 
       5.816885094930e-01       4.105150778658e-02 
       6.065870144995e-01       3.748957850857e-02 
       6.336266468475e-01       3.407598718753e-02 
       6.632156059511e-01       3.083429295868e-02 
       6.958678639263e-01       2.772789878724e-02 
       7.322247985589e-01       2.476664436873e-02 
       7.730680195114e-01       2.193915168432e-02 
       8.193049553677e-01       1.925560397193e-02 
       8.718988016039e-01       1.672869584127e-02 
       9.317218031082e-01       1.438358138140e-02 
       9.993660908989e-01       1.224996174198e-02 
       1.075037110174e+00       1.035184249604e-02 
       1.158653485707e+00       8.698867949171e-03 
       1.250099157308e+00       7.283646328425e-03 
       1.349432401273e+00       6.084408339923e-03 
       1.456947457397e+00       5.074562369098e-03 
       1.573135111331e+00       4.227013423549e-03 
       1.698621895592e+00       3.517125232905e-03 
       1.834127512934e+00       2.923414909508e-03 
       1.980444934528e+00       2.427441810015e-03 
       2.138435191726e+00       2.013623458430e-03 
       2.309029199186e+00       1.668701430391e-03 
       2.493232377687e+00       1.381526002144e-03 
       2.692130395285e+00       1.142649051072e-03 
       2.906895534573e+00       9.441482973959e-04 
       3.138793597714e+00       7.793250471883e-04 
       3.389191366484e+00       6.425931248936e-04 
       3.659564657905e+00       5.292506122006e-04 
       3.951507022538e+00       4.353608271500e-04 
       4.266739136701e+00       3.576402512041e-04 
       4.607118943941e+00       2.933329609495e-04 
       4.974652605557e+00       2.401549885526e-04 
       5.371506324689e+00       1.961982540444e-04 
       5.800019113685e+00       1.598724897060e-04 
       6.262716579983e+00       1.298616878145e-04 
       6.762325811764e+00       1.050720178787e-04 
       7.301791451110e+00       8.459887995589e-05 
       7.884293049406e+00       6.769601169829e-05 
       8.513263807261e+00       5.374599647525e-05 
       9.192410809424e+00       4.224412438804e-05 
       9.925736873929e+00       3.277713876284e-05 
       1.071756414427e+01       2.500906939822e-05 
       1.157255956364e+01       1.866762411011e-05 
       1.249576238137e+01       1.353403173899e-05 
       1.349261385375e+01       9.433424157537e-06 
       1.456898931416e+01       6.225154385958e-06 
       1.573123280165e+01       3.794724649862e-06 
       1.698619445202e+01       2.045125121668e-06 
       1.834127087176e+01       8.889661519472e-07 
       1.980444873285e+01       2.398838532591e-07 
       2.138435184532e+01       5.826265655485e-09 
       2.309029198506e+01       8.418826864832e-08 
       2.493232377636e+01       3.609264864911e-07 
       2.692130395282e+01       7.152060638802e-07 
       2.906895534573e+01       1.030717420684e-06 
       3.138793597714e+01       1.212846984439e-06 
       3.389191366484e+01       1.208003346313e-06 
       3.659564657905e+01       1.018997594039e-06 
       3.951507022538e+01       7.067366004578e-07 
       4.266739136701e+01       3.720720482324e-07 
       4.607118943941e+01       1.181914235361e-07 
       4.974652605557e+01       5.791878054760e-09 
       5.371506324689e+01       2.421099714721e-08 
       5.800019113685e+01       1.003938203627e-07 
       6.262716579983e+01       1.476389325256e-07 
       6.762325811764e+01       1.247462294709e-07 
