# Matter power spectrum P(k) at redshift z=99
# for k=1.04775e-05 to 134.926 h/Mpc,
# number of wavenumbers equal to 255
#    1:k (h/Mpc)              2:P (Mpc/h)^3        
       1.047750691338e-05       7.261927095260e-03 
       1.131335172818e-05       7.820332150728e-03 
       1.221587619877e-05       8.421675382301e-03 
       1.319039970550e-05       9.069257737972e-03 
       1.424266598317e-05       9.766636451092e-03 
       1.537887697396e-05       1.051763973637e-02 
       1.660572938097e-05       1.132639250748e-02 
       1.793045413791e-05       1.219733201505e-02 
       1.936085902737e-05       1.313524187199e-02 
       2.090537469909e-05       1.414527084973e-02 
       2.257310435923e-05       1.523296544488e-02 
       2.437387742372e-05       1.640429654636e-02 
       2.631830745176e-05       1.766569603282e-02 
       2.841785470091e-05       1.902408711158e-02 
       3.068489367268e-05       2.048692967440e-02 
       3.313278604643e-05       2.206225467544e-02 
       3.577595943165e-05       2.375870883848e-02 
       3.862999240274e-05       2.558560669818e-02 
       4.171170631739e-05       2.755297672503e-02 
       4.503926445983e-05       2.967161933408e-02 
       4.863227909323e-05       3.195316455651e-02 
       5.251192705226e-05       3.441013466129e-02 
       5.670107455699e-05       3.705601741697e-02 
       6.122441198393e-05       3.990533412830e-02 
       6.610859938837e-05       4.297372242524e-02 
       7.138242363583e-05       4.627802054843e-02 
       7.707696806873e-05       4.983636159879e-02 
       8.322579570814e-05       5.366826786925e-02 
       8.986514707061e-05       5.779476319724e-02 
       9.703415376577e-05       6.223848221826e-02 
       1.047750691338e-04       6.702379825011e-02 
       1.131335172818e-04       7.217695031069e-02 
       1.221587619877e-04       7.772619030351e-02 
       1.319039970550e-04       8.370193380029e-02 
       1.424266598317e-04       9.013692506656e-02 
       1.537887697396e-04       9.706641130388e-02 
       1.660572938097e-04       1.045283343110e-01 
       1.793045413791e-04       1.125635329184e-01 
       1.936085902737e-04       1.212159592309e-01 
       2.090537469909e-04       1.305329107435e-01 
       2.257310435923e-04       1.405652819360e-01 
       2.437387742372e-04       1.513678275076e-01 
       2.631830745176e-04       1.629994475133e-01 
       2.841785470091e-04       1.755234890479e-01 
       3.068489367268e-04       1.890080645300e-01 
       3.313278604643e-04       2.035263977433e-01 
       3.577595943165e-04       2.191571778046e-01 
       3.862999240274e-04       2.359849423263e-01 
       4.171170631739e-04       2.541004713005e-01 
       4.503926445983e-04       2.736012061162e-01 
       4.863227909323e-04       2.945916774647e-01 
       5.251192705226e-04       3.171839507868e-01 
       5.670107455699e-04       3.414980769113e-01 
       6.122441198393e-04       3.676625416306e-01 
       6.610859938837e-04       3.958147272871e-01 
       7.138242363583e-04       4.261013332071e-01 
       7.707696806873e-04       4.586787880857e-01 
       8.322579570814e-04       4.937136112829e-01 
       8.986514707061e-04       5.313826962085e-01 
       9.703415376577e-04       5.718735176813e-01 
       1.047750691338e-03       6.153841926259e-01 
       1.131335172818e-03       6.621233623131e-01 
       1.221587619877e-03       7.123098743662e-01 
       1.319039970550e-03       7.661721263794e-01 
       1.424266598317e-03       8.239547181306e-01 
       1.537887697396e-03       8.859012282816e-01 
       1.660572938097e-03       9.522589495745e-01 
       1.793045413791e-03       1.023280284735e+00 
       1.936085902737e-03       1.099216542124e+00 
       2.090537469909e-03       1.180313285056e+00 
       2.257310435923e-03       1.266804486828e+00 
       2.437387742372e-03       1.358905328483e+00 
       2.631830745176e-03       1.456803285970e+00 
       2.841785470091e-03       1.560647663056e+00 
       3.068489367268e-03       1.670537010594e+00 
       3.313278604643e-03       1.786505039654e+00 
       3.577595943165e-03       1.908504410129e+00 
       3.862999240274e-03       2.036389468763e+00 
       4.171170631739e-03       2.169898252797e+00 
       4.503926445983e-03       2.308634491951e+00 
       4.863227909323e-03       2.452050674739e+00 
       5.251192705226e-03       2.599434681073e+00 
       5.670107455699e-03       2.749901126374e+00 
       6.122441198393e-03       2.902390058201e+00 
       6.610859938837e-03       3.055671269658e+00 
       7.138242363583e-03       3.208360122627e+00 
       7.707696806873e-03       3.358926651090e+00 
       8.322579570814e-03       3.505726889545e+00 
       8.986514707061e-03       3.647012437494e+00 
       9.703415376577e-03       3.780926178971e+00 
       1.047750691338e-02       3.905492880328e+00 
       1.131335172818e-02       4.018589825741e+00 
       1.221587619877e-02       4.117902888595e+00 
       1.319039970550e-02       4.200917700371e+00 
       1.424266598317e-02       4.264943739244e+00 
       1.537887697392e-02       4.307219670422e+00 
       1.660572938023e-02       4.325062390995e+00 
       1.793045412706e-02       4.316060358430e+00 
       1.936085890181e-02       4.278228810717e+00 
       2.090537352463e-02       4.210204516283e+00 
       2.257309535333e-02       4.111418759720e+00 
       2.437382002918e-02       3.982420943518e+00 
       2.631799944462e-02       3.825168679335e+00 
       2.841644545389e-02       3.643282243660e+00 
       3.067933355377e-02       3.442198697653e+00 
       3.311368470740e-02       3.229241582447e+00 
       3.571840443502e-02       3.013516307209e+00 
       3.847720348444e-02       2.805283898727e+00 
       4.135335538431e-02       2.614410595185e+00 
       4.429361667738e-02       2.448132070265e+00 
       4.724366439141e-02       2.309240473783e+00 
       5.016480835311e-02       2.196114936026e+00 
       5.303989620246e-02       2.104369485979e+00 
       5.586870669566e-02       2.028462072252e+00 
       5.866042680613e-02       1.963154605026e+00 
       6.142798932958e-02       1.903778779401e+00 
       6.418496440164e-02       1.846478006091e+00 
       6.694418833788e-02       1.788195966237e+00 
       6.971731106057e-02       1.726713814934e+00 
       7.251476155766e-02       1.660652146785e+00 
       7.534587671527e-02       1.589467190037e+00 
       7.821907666265e-02       1.513433504239e+00 
       8.114203772912e-02       1.433565254926e+00 
       8.412184535029e-02       1.351488313209e+00 
       8.716512279304e-02       1.269269282803e+00 
       9.027813695930e-02       1.189188303406e+00 
       9.346688431697e-02       1.113495735170e+00 
       9.673716028276e-02       1.044168640821e+00 
       1.000946150830e-01       9.826996749690e-01 
       1.035447986537e-01       9.299302431514e-01 
       1.070931966762e-01       8.859510932689e-01 
       1.107452594425e-01       8.500631062669e-01 
       1.145064249153e-01       8.207954406904e-01 
       1.183821370918e-01       7.960147564330e-01 
       1.223778605862e-01       7.731352109612e-01 
       1.264990921987e-01       7.494402115635e-01 
       1.307513701367e-01       7.225444161353e-01 
       1.351402814784e-01       6.908948129913e-01 
       1.396714684203e-01       6.541661348632e-01 
       1.443506338194e-01       6.134106973092e-01 
       1.491835465229e-01       5.708510002817e-01 
       1.541760469708e-01       5.293467931724e-01 
       1.593340535561e-01       4.916920199592e-01 
       1.646635702297e-01       4.599003535754e-01 
       1.701706958456e-01       4.347071036183e-01 
       1.758616357459e-01       4.153859641530e-01 
       1.817427160982e-01       3.999138855711e-01 
       1.878204015065e-01       3.856568417903e-01 
       1.941013164283e-01       3.697821810580e-01 
       2.005922709503e-01       3.505173697970e-01 
       2.073002914972e-01       3.280123487732e-01 
       2.142326570816e-01       3.041812914329e-01 
       2.213969417533e-01       2.815777239767e-01 
       2.288010639706e-01       2.622209523538e-01 
       2.364533437147e-01       2.469235291386e-01 
       2.443625682930e-01       2.349728612920e-01 
       2.525380679504e-01       2.243748290042e-01 
       2.609898026346e-01       2.130481617378e-01 
       2.697284615565e-01       2.000533154011e-01 
       2.787655775689e-01       1.859686125385e-01 
       2.881136588829e-01       1.724636998482e-01 
       2.977863412677e-01       1.610097602843e-01 
       3.077985646929e-01       1.517013904547e-01 
       3.181667794071e-01       1.434962910331e-01 
       3.289091877812e-01       1.351147913962e-01 
       3.400460299658e-01       1.260940537970e-01 
       3.515999236474e-01       1.171277606027e-01 
       3.635962711085e-01       1.090989299110e-01 
       3.760637506334e-01       1.022274205616e-01 
       3.890349143879e-01       9.585097889420e-02 
       4.025469216825e-01       8.941641766417e-02 
       4.166424456376e-01       8.301557055571e-02 
       4.313708035863e-01       7.711408719330e-02 
       4.467893782977e-01       7.179379226403e-02 
       4.629654199664e-01       6.675616959879e-02 
       4.799783501994e-01       6.179856120341e-02 
       4.979227319373e-01       5.709671708309e-02 
       5.169121270864e-01       5.277025865397e-02 
       5.370841404489e-01       4.862953222018e-02 
       5.586070464571e-01       4.464248581010e-02 
       5.816885094930e-01       4.089472444101e-02 
       6.065870144995e-01       3.732321704069e-02 
       6.336266468475e-01       3.389904627026e-02 
       6.632156059511e-01       3.064570721037e-02 
       6.958678639263e-01       2.752647777185e-02 
       7.322247985589e-01       2.455085941374e-02 
       7.730680195114e-01       2.170698964390e-02 
       8.193049553677e-01       1.900501647901e-02 
       8.718988016039e-01       1.645699300687e-02 
       9.317218031082e-01       1.408795433080e-02 
       9.993660908989e-01       1.192721436918e-02 
       1.075037110174e+00       9.998978354791e-03 
       1.158653485707e+00       8.312858502868e-03 
       1.250099157308e+00       6.863373550024e-03 
       1.349432401273e+00       5.627534877670e-03 
       1.456947457397e+00       4.579076333654e-03 
       1.573135111331e+00       3.693870827790e-03 
       1.698621895592e+00       2.945920340282e-03 
       1.834127512934e+00       2.315825639376e-03 
       1.980444934528e+00       1.786348029727e-03 
       2.138435191726e+00       1.344175788446e-03 
       2.309029199186e+00       9.778293615271e-04 
       2.493232377687e+00       6.791988514362e-04 
       2.692130395285e+00       4.412854216517e-04 
       2.906895534573e+00       2.594303640989e-04 
       3.138793597714e+00       1.290733092082e-04 
       3.389191366484e+00       4.622162439241e-05 
       3.659564657905e+00       6.060770156938e-06 
       3.951507022538e+00       2.365925550539e-06 
       4.266739136701e+00       2.623078606790e-05 
       4.607118943941e+00       6.655540092327e-05 
       4.974652605557e+00       1.097936337510e-04 
       5.371506324689e+00       1.427333028379e-04 
       5.800019113685e+00       1.538759284814e-04 
       6.262716579983e+00       1.389057893991e-04 
       6.762325811764e+00       1.015884261712e-04 
       7.301791451110e+00       5.486355666484e-05 
       7.884293049406e+00       1.656533211075e-05 
       8.513263807261e+00       3.061123217585e-07 
       9.192410809424e+00       7.250638427588e-06 
       9.925736873929e+00       2.466873915249e-05 
       1.071756414427e+01       3.360958819798e-05 
       1.157255956364e+01       2.542656619614e-05 
       1.249576238137e+01       8.732385664425e-06 
       1.349261385375e+01       7.901331624594e-08 
       1.456898931416e+01       3.951813775334e-06 
       1.573123280165e+01       8.726664605921e-06 
       1.698619445202e+01       5.172504989322e-06 
       1.834127087176e+01       2.737355557278e-07 
       1.980444873285e+01       1.179413939230e-06 
       2.138435184532e+01       2.272623447200e-06 
       2.309029198506e+01       4.100499293823e-07 
       2.493232377636e+01       2.168680273626e-07 
       2.692130395282e+01       5.743114902093e-07 
       2.906895534573e+01       1.260111921039e-08 
       3.138793597714e+01       1.494233595703e-07 
       3.389191366484e+01       3.676938572539e-08 
       3.659564657905e+01       3.513729525973e-08 
       3.951507022538e+01       5.073487176004e-08 
       4.266739136701e+01       2.807627886857e-08 
       4.607118943941e+01       1.961783752039e-10 
       4.974652605557e+01       3.344858802702e-09 
       5.371506324689e+01       4.172076414695e-09 
       5.800019113685e+01       1.364462443263e-09 
       6.262716579983e+01       1.525956072890e-09 
       6.762325811764e+01       7.667167437730e-11 
       7.301791451110e+01       4.761210082205e-09 
       7.884293049406e+01       5.591757246922e-09 
       8.513263807261e+01       9.236383585776e-10 
       9.192410809424e+01       1.991186652129e-09 
       9.925736873929e+01       3.499595498789e-09 
       1.071756414427e+02       5.207984652988e-09 
       1.157255956364e+02       8.151303452896e-10 
       1.249576238137e+02       6.596964352845e-09 
       1.349261385375e+02       2.070943797979e-07 
