# Matter power spectrum P(k) at redshift z=99
# for k=1.04775e-05 to 134.926 h/Mpc,
# number of wavenumbers equal to 255
#    1:k (h/Mpc)              2:P (Mpc/h)^3        
       1.047750691338e-05       7.261927095259e-03 
       1.131335172818e-05       7.820332150727e-03 
       1.221587619877e-05       8.421675382299e-03 
       1.319039970550e-05       9.069257737970e-03 
       1.424266598317e-05       9.766636451090e-03 
       1.537887697396e-05       1.051763973637e-02 
       1.660572938097e-05       1.132639250748e-02 
       1.793045413791e-05       1.219733201504e-02 
       1.936085902737e-05       1.313524187198e-02 
       2.090537469909e-05       1.414527084973e-02 
       2.257310435923e-05       1.523296544487e-02 
       2.437387742372e-05       1.640429654636e-02 
       2.631830745176e-05       1.766569603282e-02 
       2.841785470091e-05       1.902408711158e-02 
       3.068489367268e-05       2.048692967439e-02 
       3.313278604643e-05       2.206225467544e-02 
       3.577595943165e-05       2.375870883848e-02 
       3.862999240274e-05       2.558560669817e-02 
       4.171170631739e-05       2.755297672503e-02 
       4.503926445983e-05       2.967161933408e-02 
       4.863227909323e-05       3.195316455650e-02 
       5.251192705226e-05       3.441013466129e-02 
       5.670107455699e-05       3.705601741696e-02 
       6.122441198393e-05       3.990533412829e-02 
       6.610859938837e-05       4.297372242524e-02 
       7.138242363583e-05       4.627802054842e-02 
       7.707696806873e-05       4.983636159878e-02 
       8.322579570814e-05       5.366826786924e-02 
       8.986514707061e-05       5.779476319723e-02 
       9.703415376577e-05       6.223848221825e-02 
       1.047750691338e-04       6.702379825010e-02 
       1.131335172818e-04       7.217695031068e-02 
       1.221587619877e-04       7.772619030349e-02 
       1.319039970550e-04       8.370193380027e-02 
       1.424266598317e-04       9.013692506654e-02 
       1.537887697396e-04       9.706641130386e-02 
       1.660572938097e-04       1.045283343110e-01 
       1.793045413791e-04       1.125635329184e-01 
       1.936085902737e-04       1.212159592308e-01 
       2.090537469909e-04       1.305329107435e-01 
       2.257310435923e-04       1.405652819360e-01 
       2.437387742372e-04       1.513678275075e-01 
       2.631830745176e-04       1.629994475133e-01 
       2.841785470091e-04       1.755234890478e-01 
       3.068489367268e-04       1.890080645300e-01 
       3.313278604643e-04       2.035263977432e-01 
       3.577595943165e-04       2.191571778046e-01 
       3.862999240274e-04       2.359849423262e-01 
       4.171170631739e-04       2.541004713004e-01 
       4.503926445983e-04       2.736012061162e-01 
       4.863227909323e-04       2.945916774647e-01 
       5.251192705226e-04       3.171839507868e-01 
       5.670107455699e-04       3.414980769112e-01 
       6.122441198393e-04       3.676625416306e-01 
       6.610859938837e-04       3.958147272870e-01 
       7.138242363583e-04       4.261013332071e-01 
       7.707696806873e-04       4.586787880856e-01 
       8.322579570814e-04       4.937136112828e-01 
       8.986514707061e-04       5.313826962084e-01 
       9.703415376577e-04       5.718735176812e-01 
       1.047750691338e-03       6.153841926258e-01 
       1.131335172818e-03       6.621233623131e-01 
       1.221587619877e-03       7.123098743661e-01 
       1.319039970550e-03       7.661721263793e-01 
       1.424266598317e-03       8.239547181306e-01 
       1.537887697396e-03       8.859012282816e-01 
       1.660572938097e-03       9.522589495745e-01 
       1.793045413791e-03       1.023280284735e+00 
       1.936085902737e-03       1.099216542125e+00 
       2.090537469909e-03       1.180313285056e+00 
       2.257310435923e-03       1.266804486829e+00 
       2.437387742372e-03       1.358905328484e+00 
       2.631830745176e-03       1.456803285970e+00 
       2.841785470091e-03       1.560647663057e+00 
       3.068489367268e-03       1.670537010595e+00 
       3.313278604643e-03       1.786505039655e+00 
       3.577595943165e-03       1.908504410131e+00 
       3.862999240274e-03       2.036389468766e+00 
       4.171170631739e-03       2.169898252801e+00 
       4.503926445983e-03       2.308634491956e+00 
       4.863227909323e-03       2.452050674745e+00 
       5.251192705226e-03       2.599434681081e+00 
       5.670107455699e-03       2.749901126384e+00 
       6.122441198393e-03       2.902390058214e+00 
       6.610859938837e-03       3.055671269674e+00 
       7.138242363583e-03       3.208360122647e+00 
       7.707696806873e-03       3.358926651115e+00 
       8.322579570814e-03       3.505726889576e+00 
       8.986514707061e-03       3.647012437533e+00 
       9.703415376577e-03       3.780926179020e+00 
       1.047750691338e-02       3.905492880390e+00 
       1.131335172818e-02       4.018589825817e+00 
       1.221587619877e-02       4.117902888691e+00 
       1.319039970550e-02       4.200917700494e+00 
       1.424266598317e-02       4.264943739404e+00 
       1.537887697392e-02       4.307219670631e+00 
       1.660572938023e-02       4.325062459474e+00 
       1.793045412706e-02       4.316060394579e+00 
       1.936085890181e-02       4.278228935415e+00 
       2.090537352463e-02       4.210204477186e+00 
       2.257309535333e-02       4.111418752869e+00 
       2.437382002918e-02       3.982420941190e+00 
       2.631799944462e-02       3.825168689676e+00 
       2.841644545389e-02       3.643282249683e+00 
       3.067933355377e-02       3.442198708409e+00 
       3.311368470740e-02       3.229241601545e+00 
       3.571840443502e-02       3.013516337605e+00 
       3.847720348444e-02       2.805283949133e+00 
       4.135335538431e-02       2.614410676345e+00 
       4.429361667738e-02       2.448132199162e+00 
       4.724366439141e-02       2.309240669877e+00 
       5.016480835311e-02       2.196115225040e+00 
       5.303989620246e-02       2.104369899437e+00 
       5.586870669566e-02       2.028462645345e+00 
       5.866042680613e-02       1.963155376956e+00 
       6.142798932958e-02       1.903779789239e+00 
       6.418496440164e-02       1.846479304474e+00 
       6.694418833788e-02       1.788197586429e+00 
       6.971731106057e-02       1.726715801837e+00 
       7.251476155766e-02       1.660654523803e+00 
       7.534587671527e-02       1.589469998273e+00 
       7.821907666265e-02       1.513436731473e+00 
       8.114203772912e-02       1.433568931847e+00 
       8.412184535029e-02       1.351492440815e+00 
       8.716512279304e-02       1.269273927976e+00 
       9.027813695930e-02       1.189193375746e+00 
       9.346688431697e-02       1.113501325747e+00 
       9.673716028276e-02       1.044174676449e+00 
       1.000946150830e-01       9.827062157750e-01 
       1.035447986537e-01       9.299378627027e-01 
       1.070931966762e-01       8.859587361224e-01 
       1.107452594425e-01       8.500713168204e-01 
       1.145064249153e-01       8.208035595474e-01 
       1.183821370918e-01       7.960244719263e-01 
       1.223778605862e-01       7.731458812835e-01 
       1.264990921987e-01       7.494522962045e-01 
       1.307513701367e-01       7.225577817662e-01 
       1.351402814784e-01       6.909098367183e-01 
       1.396714684203e-01       6.541826546107e-01 
       1.443506338194e-01       6.134281272229e-01 
       1.491835465229e-01       5.708688106136e-01 
       1.541760469708e-01       5.293641149314e-01 
       1.593340535561e-01       4.917106606623e-01 
       1.646635702297e-01       4.599197606552e-01 
       1.701706958456e-01       4.347276995876e-01 
       1.758616357459e-01       4.154075895849e-01 
       1.817427160982e-01       3.999359925825e-01 
       1.878204015065e-01       3.856855588413e-01 
       1.941013164283e-01       3.698138576889e-01 
       2.005922709503e-01       3.505512583036e-01 
       2.073002914972e-01       3.280461966284e-01 
       2.142326570816e-01       3.042131325472e-01 
       2.213969417533e-01       2.816112901854e-01 
       2.288010639706e-01       2.622565078358e-01 
       2.364533437147e-01       2.469614782647e-01 
       2.443625682930e-01       2.350125976040e-01 
       2.525380679504e-01       2.244200146596e-01 
       2.609898026346e-01       2.130956679681e-01 
       2.697284615565e-01       2.001022373658e-01 
       2.787655775689e-01       1.860194618533e-01 
       2.881136588829e-01       1.725167006561e-01 
       2.977863412677e-01       1.610655685636e-01 
       3.077985646929e-01       1.517602976960e-01 
       3.181667794071e-01       1.435590064431e-01 
       3.289091877812e-01       1.351813357832e-01 
       3.400460299658e-01       1.261637979073e-01 
       3.515999236474e-01       1.172014148055e-01 
       3.635962711085e-01       1.091763674586e-01 
       3.760637506334e-01       1.023089025301e-01 
       3.890349143879e-01       9.593710751524e-02 
       4.025469216825e-01       8.950717351265e-02 
       4.166424456376e-01       8.311117852402e-02 
       4.313708035863e-01       7.721500004729e-02 
       4.467893782977e-01       7.189993208015e-02 
       4.629654199664e-01       6.686839524073e-02 
       4.799783501994e-01       6.191682523484e-02 
       4.979227319373e-01       5.722164933457e-02 
       5.169121270864e-01       5.290234509799e-02 
       5.370841404489e-01       4.876919807029e-02 
       5.586070464571e-01       4.479024660021e-02 
       5.816885094930e-01       4.105128668188e-02 
       6.065870144995e-01       3.748929611277e-02 
       6.336266468475e-01       3.407571052827e-02 
       6.632156059511e-01       3.083399870310e-02 
       6.958678639263e-01       2.772767564282e-02 
       7.322247985589e-01       2.476648266206e-02 
       7.730680195114e-01       2.193896977608e-02 
       8.193049553677e-01       1.925551380218e-02 
       8.718988016039e-01       1.672863241349e-02 
       9.317218031082e-01       1.438360041318e-02 
       9.993660908989e-01       1.224999596430e-02 
       1.075037110174e+00       1.035191731071e-02 
       1.158653485707e+00       8.698995675978e-03 
       1.250099157308e+00       7.283830528176e-03 
       1.349432401273e+00       6.084706767690e-03 
       1.456947457397e+00       5.074938584526e-03 
       1.573135111331e+00       4.227476031082e-03 
       1.698621895592e+00       3.517703284866e-03 
       1.834127512934e+00       2.924102018632e-03 
       1.980444934528e+00       2.428252724286e-03 
       2.138435191726e+00       2.014562731000e-03 
       2.309029199186e+00       1.669784436630e-03 
       2.493232377687e+00       1.382769406578e-03 
       2.692130395285e+00       1.144052741134e-03 
       2.906895534573e+00       9.457261622595e-04 
       3.138793597714e+00       7.811001877586e-04 
       3.389191366484e+00       6.445713945359e-04 
       3.659564657905e+00       5.314490454694e-04 
       3.951507022538e+00       4.377907811535e-04 
       4.266739136701e+00       3.603118808558e-04 
       4.607118943941e+00       2.962586927158e-04 
       4.974652605557e+00       2.431663340114e-04 
       5.371506324689e+00       1.996684704104e-04 
       5.800019113685e+00       1.636290506974e-04 
       6.262716579983e+00       1.338925040845e-04 
       6.762325811764e+00       1.094070855480e-04 
       7.301791451110e+00       8.925329514955e-05 
       7.884293049406e+00       7.261783877017e-05 
       8.513263807261e+00       5.884879508853e-05 
       9.192410809424e+00       4.756380231272e-05 
       9.925736873929e+00       3.826987037205e-05 
       1.071756414427e+01       3.059682885657e-05 
       1.157255956364e+01       2.427741202306e-05 
       1.249576238137e+01       1.909756157989e-05 
       1.349261385375e+01       1.480658856846e-05 
       1.456898931416e+01       1.130950551681e-05 
       1.573123280165e+01       8.430278597793e-06 
       1.698619445202e+01       6.092476442885e-06 
       1.834127087176e+01       4.247418836597e-06 
       1.980444873285e+01       2.765208795025e-06 
       2.138435184532e+01       1.648735876116e-06 
       2.309029198506e+01       8.599065425253e-07 
       2.493232377636e+01       3.366882726319e-07 
       2.692130395282e+01       6.378490541850e-08 
       2.906895534573e+01       1.271565355176e-09 
       3.138793597714e+01       9.211782969998e-08 
       3.389191366484e+01       2.843796534565e-07 
       3.659564657905e+01       5.001556132405e-07 
       3.951507022538e+01       6.859578575521e-07 
       4.266739136701e+01       7.565136058106e-07 
       4.607118943941e+01       7.196580922775e-07 
       4.974652605557e+01       5.445627509731e-07 
       5.371506324689e+01       3.241332295543e-07 
       5.800019113685e+01       1.292616750742e-07 
       6.262716579983e+01       1.355809037902e-08 
       6.762325811764e+01       7.139936785107e-09 
       7.301791451110e+01       6.005226971960e-08 
       7.884293049406e+01       9.974339411520e-08 
       8.513263807261e+01       8.492963525401e-08 
       9.192410809424e+01       2.820525338740e-08 
       9.925736873929e+01       3.870625579728e-09 
       1.071756414427e+02       1.540022564931e-09 
       1.157255956364e+02       1.275214466730e-08 
       1.249576238137e+02       6.848021999616e-09 
       1.349261385375e+02       5.135400831494e-10 
