# Matter power spectrum P(k) at redshift z=99
# for k=1.04775e-05 to 67.6233 h/Mpc,
# number of wavenumbers equal to 246
#    1:k (h/Mpc)              2:P (Mpc/h)^3        
       1.047750691338e-05       7.261927673119e-03 
       1.131335172818e-05       7.820331745737e-03 
       1.221587619877e-05       8.421675986489e-03 
       1.319039970550e-05       9.069258192194e-03 
       1.424266598317e-05       9.766638404421e-03 
       1.537887697396e-05       1.051764069682e-02 
       1.660572938097e-05       1.132639105520e-02 
       1.793045413791e-05       1.219733231416e-02 
       1.936085902737e-05       1.313524224380e-02 
       2.090537469909e-05       1.414527121893e-02 
       2.257310435923e-05       1.523296272192e-02 
       2.437387742372e-05       1.640429444530e-02 
       2.631830745176e-05       1.766569582178e-02 
       2.841785470091e-05       1.902408601793e-02 
       3.068489367268e-05       2.048692970591e-02 
       3.313278604643e-05       2.206225513594e-02 
       3.577595943165e-05       2.375870704909e-02 
       3.862999240274e-05       2.558560727479e-02 
       4.171170631739e-05       2.755297763344e-02 
       4.503926445983e-05       2.967161927315e-02 
       4.863227909323e-05       3.195316450832e-02 
       5.251192705226e-05       3.441013519284e-02 
       5.670107455699e-05       3.705601722531e-02 
       6.122441198393e-05       3.990533413563e-02 
       6.610859938837e-05       4.297372168203e-02 
       7.138242363583e-05       4.627802141688e-02 
       7.707696806873e-05       4.983636194159e-02 
       8.322579570814e-05       5.366826847231e-02 
       8.986514707061e-05       5.779476394569e-02 
       9.703415376577e-05       6.223848243885e-02 
       1.047750691338e-04       6.702379865640e-02 
       1.131335172818e-04       7.217695153381e-02 
       1.221587619877e-04       7.772619073573e-02 
       1.319039970550e-04       8.370193432376e-02 
       1.424266598317e-04       9.013692507547e-02 
       1.537887697396e-04       9.706641242570e-02 
       1.660572938097e-04       1.045283354271e-01 
       1.793045413791e-04       1.125635349068e-01 
       1.936085902737e-04       1.212159614968e-01 
       2.090537469909e-04       1.305329132714e-01 
       2.257310435923e-04       1.405652846215e-01 
       2.437387742372e-04       1.513678302540e-01 
       2.631830745176e-04       1.629994504871e-01 
       2.841785470091e-04       1.755234921224e-01 
       3.068489367268e-04       1.890080670413e-01 
       3.313278604643e-04       2.035264002435e-01 
       3.577595943165e-04       2.191571803681e-01 
       3.862999240274e-04       2.359849437592e-01 
       4.171170631739e-04       2.541004741539e-01 
       4.503926445983e-04       2.736012080277e-01 
       4.863227909323e-04       2.945916790965e-01 
       5.251192705226e-04       3.171839525182e-01 
       5.670107455699e-04       3.414980764002e-01 
       6.122441198393e-04       3.676625413100e-01 
       6.610859938837e-04       3.958147252304e-01 
       7.138242363583e-04       4.261013284913e-01 
       7.707696806873e-04       4.586787792351e-01 
       8.322579570814e-04       4.937136001373e-01 
       8.986514707061e-04       5.313826801402e-01 
       9.703415376577e-04       5.718734972158e-01 
       1.047750691338e-03       6.153841629505e-01 
       1.131335172818e-03       6.621233239466e-01 
       1.221587619877e-03       7.123098220414e-01 
       1.319039970550e-03       7.661720584595e-01 
       1.424266598317e-03       8.239546297730e-01 
       1.537887697396e-03       8.859011173466e-01 
       1.660572938097e-03       9.522588006420e-01 
       1.793045413791e-03       1.023280099819e+00 
       1.936085902737e-03       1.099216304579e+00 
       2.090537469909e-03       1.180312990453e+00 
       2.257310435923e-03       1.266804115855e+00 
       2.437387742372e-03       1.358904853406e+00 
       2.631830745176e-03       1.456802683156e+00 
       2.841785470091e-03       1.560646890522e+00 
       3.068489367268e-03       1.670536062500e+00 
       3.313278604643e-03       1.786503852154e+00 
       3.577595943165e-03       1.908502930789e+00 
       3.862999240274e-03       2.036387730709e+00 
       4.171170631739e-03       2.169896177667e+00 
       4.503926445983e-03       2.308631878994e+00 
       4.863227909323e-03       2.452047290962e+00 
       5.251192705226e-03       2.599430628088e+00 
       5.670107455699e-03       2.749896931832e+00 
       6.122441198393e-03       2.902386513383e+00 
       6.610859938837e-03       3.055668713128e+00 
       7.138242363583e-03       3.208356461546e+00 
       7.707696806873e-03       3.358923892581e+00 
       8.322579570814e-03       3.505725595254e+00 
       8.986514707061e-03       3.647009602735e+00 
       9.703415376577e-03       3.780923304285e+00 
       1.047750691338e-02       3.905491225992e+00 
       1.131335172818e-02       4.018587952016e+00 
       1.221587619877e-02       4.117901583013e+00 
       1.319039970550e-02       4.200915314318e+00 
       1.424266598317e-02       4.264941643077e+00 
       1.537887697392e-02       4.307218088060e+00 
       1.660572938023e-02       4.325061668650e+00 
       1.793045412706e-02       4.316058092174e+00 
       1.936085890181e-02       4.278228176815e+00 
       2.090537352463e-02       4.210202060155e+00 
       2.257309535333e-02       4.111420047593e+00 
       2.437382002918e-02       3.982420202097e+00 
       2.631799944462e-02       3.825174147673e+00 
       2.841644545389e-02       3.643279589475e+00 
       3.067933355377e-02       3.442192096602e+00 
       3.311368470740e-02       3.229238033575e+00 
       3.571840443502e-02       3.013518044552e+00 
       3.847720348444e-02       2.805282748263e+00 
       4.135335538431e-02       2.614416063709e+00 
       4.429361667738e-02       2.448128106534e+00 
       4.724366439141e-02       2.309238223717e+00 
       5.016480835311e-02       2.196110068868e+00 
       5.303989620246e-02       2.104364877805e+00 
       5.586870669566e-02       2.028469386782e+00 
       5.866042680613e-02       1.963155055360e+00 
       6.142798932958e-02       1.903779461955e+00 
       6.418496440164e-02       1.846479310138e+00 
       6.694418833788e-02       1.788196435911e+00 
       6.971731106057e-02       1.726718383134e+00 
       7.251476155766e-02       1.660652050645e+00 
       7.534587671527e-02       1.589469866147e+00 
       7.821907666265e-02       1.513438633487e+00 
       8.114203772912e-02       1.433567620820e+00 
       8.412184535029e-02       1.351494796826e+00 
       8.716512279304e-02       1.269273319015e+00 
       9.027813695930e-02       1.189194224809e+00 
       9.346688431697e-02       1.113504059055e+00 
       9.673716028276e-02       1.044175955383e+00 
       1.000946150830e-01       9.827080196278e-01 
       1.035447986537e-01       9.299379466563e-01 
       1.070931966762e-01       8.859609202129e-01 
       1.107452594425e-01       8.500699580601e-01 
       1.145064249153e-01       8.208043909093e-01 
       1.183821370918e-01       7.960252695022e-01 
       1.223778605862e-01       7.731480882507e-01 
       1.264990921987e-01       7.494492409229e-01 
       1.307513701367e-01       7.225579639402e-01 
       1.351402814784e-01       6.909089342191e-01 
       1.396714684203e-01       6.541815366970e-01 
       1.443506338194e-01       6.134272412423e-01 
       1.491835465229e-01       5.708679963722e-01 
       1.541760469708e-01       5.293634361928e-01 
       1.593340535561e-01       4.917104307011e-01 
       1.646635702297e-01       4.599197347440e-01 
       1.701706958456e-01       4.347280111754e-01 
       1.758616357459e-01       4.154094560906e-01 
       1.817427160982e-01       3.999372264161e-01 
       1.878204015065e-01       3.856826544580e-01 
       1.941013164283e-01       3.698096789712e-01 
       2.005922709503e-01       3.505460954864e-01 
       2.073002914972e-01       3.280438266559e-01 
       2.142326570816e-01       3.042139785749e-01 
       2.213969417533e-01       2.816115018885e-01 
       2.288010639706e-01       2.622574667507e-01 
       2.364533437147e-01       2.469624683942e-01 
       2.443625682930e-01       2.350129109096e-01 
       2.525380679504e-01       2.244182025603e-01 
       2.609898026346e-01       2.130939252433e-01 
       2.697284615565e-01       2.001013460779e-01 
       2.787655775689e-01       1.860196424091e-01 
       2.881136588829e-01       1.725177031642e-01 
       2.977863412677e-01       1.610658981310e-01 
       3.077985646929e-01       1.517610962104e-01 
       3.181667794071e-01       1.435593949963e-01 
       3.289091877812e-01       1.351814837090e-01 
       3.400460299658e-01       1.261644974624e-01 
       3.515999236474e-01       1.172019555779e-01 
       3.635962711085e-01       1.091770662155e-01 
       3.760637506334e-01       1.023096918595e-01 
       3.890349143879e-01       9.593754156180e-02 
       4.025469216825e-01       8.950772914007e-02 
       4.166424456376e-01       8.311171065529e-02 
       4.313708035863e-01       7.721554600336e-02 
       4.467893782977e-01       7.190046799516e-02 
       4.629654199664e-01       6.686913949104e-02 
       4.799783501994e-01       6.191758545509e-02 
       4.979227319373e-01       5.722212287411e-02 
       5.169121270864e-01       5.290296735870e-02 
       5.370841404489e-01       4.876975692266e-02 
       5.586070464571e-01       4.479078828895e-02 
       5.816885094930e-01       4.105183153827e-02 
       6.065870144995e-01       3.748979241116e-02 
       6.336266468475e-01       3.407622197354e-02 
       6.632156059511e-01       3.083458541006e-02 
       6.958678639263e-01       2.772828972760e-02 
       7.322247985589e-01       2.476709256172e-02 
       7.730680195114e-01       2.193963210990e-02 
       8.193049553677e-01       1.925619276894e-02 
       8.718988016039e-01       1.672930075143e-02 
       9.317218031082e-01       1.438425381919e-02 
       9.993660908989e-01       1.225072854184e-02 
       1.075037110174e+00       1.035259526246e-02 
       1.158653485707e+00       8.699725171261e-03 
       1.250099157308e+00       7.284584275139e-03 
       1.349432401273e+00       6.085457294206e-03 
       1.456947457397e+00       5.075710428181e-03 
       1.573135111331e+00       4.228284539443e-03 
       1.698621895592e+00       3.518520610101e-03 
       1.834127512934e+00       2.924976870793e-03 
       1.980444934528e+00       2.429148953428e-03 
       2.138435191726e+00       2.015489125371e-03 
       2.309029199186e+00       1.670749708941e-03 
       2.493232377687e+00       1.383773683803e-03 
       2.692130395285e+00       1.145103428827e-03 
       2.906895534573e+00       9.468269747986e-04 
       3.138793597714e+00       7.822555439877e-04 
       3.389191366484e+00       6.457820769479e-04 
       3.659564657905e+00       5.327266380758e-04 
       3.951507022538e+00       4.391383498456e-04 
       4.266739136701e+00       3.617385817568e-04 
       4.607118943941e+00       2.977716582250e-04 
       4.974652605557e+00       2.449508911276e-04 
       5.371506324689e+00       2.013683159833e-04 
       5.800019113685e+00       1.654316499171e-04 
       6.262716579983e+00       1.358216768565e-04 
       6.762325811764e+00       1.114404220165e-04 
       7.301791451110e+00       9.137918683633e-05 
       7.884293049406e+00       7.488036633179e-05 
       8.513263807261e+00       6.132128863533e-05 
       9.192410809424e+00       5.018309165409e-05 
       9.925736873929e+00       4.103917297398e-05 
       1.071756414427e+01       3.353604417711e-05 
       1.157255956364e+01       2.738165984515e-05 
       1.249576238137e+01       2.233628318458e-05 
       1.349261385375e+01       1.820124504081e-05 
       1.456898931416e+01       1.481330356718e-05 
       1.573123280165e+01       1.203809840855e-05 
       1.698619445202e+01       9.765427166926e-06 
       1.834127087176e+01       7.904379778855e-06 
       1.980444873285e+01       6.380444418502e-06 
       2.138435184532e+01       5.132635433620e-06 
       2.309029198506e+01       4.110836072384e-06 
       2.493232377636e+01       3.274221311111e-06 
       2.692130395282e+01       2.589336705416e-06 
       2.906895534573e+01       2.029042474162e-06 
       3.138793597714e+01       1.571247424380e-06 
       3.389191366484e+01       1.198119902159e-06 
       3.659564657905e+01       8.953087252304e-07 
       3.951507022538e+01       6.513192744628e-07 
       4.266739136701e+01       4.569847083132e-07 
       4.607118943941e+01       3.049794555543e-07 
       4.974652605557e+01       1.894249634983e-07 
       5.371506324689e+01       1.054457378339e-07 
       5.800019113685e+01       4.878346229068e-08 
       6.262716579983e+01       1.542637601195e-08 
       6.762325811764e+01       1.272884344215e-09 
