# Matter power spectrum P(k) at redshift z=0
# for k=1.04775e-05 to 67.6233 h/Mpc,
# number of wavenumbers equal to 246
#    1:k (h/Mpc)              2:P (Mpc/h)^3        
       1.047750691338e-05       5.020964806754e+01 
       1.131335172818e-05       5.407048206553e+01 
       1.221587619877e-05       5.822819063967e+01 
       1.319039970550e-05       6.270562589683e+01 
       1.424266598317e-05       6.752731788102e+01 
       1.537887697396e-05       7.271977200258e+01 
       1.660572938097e-05       7.831147241542e+01 
       1.793045413791e-05       8.433311815128e+01 
       1.936085902737e-05       9.081778242446e+01 
       2.090537469909e-05       9.780108061339e+01 
       2.257310435923e-05       1.053213197032e+02 
       2.437387742372e-05       1.134197377001e+02 
       2.631830745176e-05       1.221408202816e+02 
       2.841785470091e-05       1.315324720916e+02 
       3.068489367268e-05       1.416462093729e+02 
       3.313278604643e-05       1.525374500691e+02 
       3.577595943165e-05       1.642660687078e+02 
       3.862999240274e-05       1.768963504868e+02 
       4.171170631739e-05       1.904975992460e+02 
       4.503926445983e-05       2.051444490305e+02 
       4.863227909323e-05       2.209171463752e+02 
       5.251192705226e-05       2.379022222314e+02 
       5.670107455699e-05       2.561927925626e+02 
       6.122441198393e-05       2.758890441790e+02 
       6.610859938837e-05       2.970989225466e+02 
       7.138242363583e-05       3.199385558200e+02 
       7.707696806873e-05       3.445329780878e+02 
       8.322579570814e-05       3.710167315928e+02 
       8.986514707061e-05       3.995346440954e+02 
       9.703415376577e-05       4.302425403884e+02 
       1.047750691338e-04       4.633080762974e+02 
       1.131335172818e-04       4.989116267507e+02 
       1.221587619877e-04       5.372471946560e+02 
       1.319039970550e-04       5.785234124628e+02 
       1.424266598317e-04       6.229645930980e+02 
       1.537887697396e-04       6.708118484951e+02 
       1.660572938097e-04       7.223242660219e+02 
       1.793045413791e-04       7.777801554464e+02 
       1.936085902737e-04       8.374783607333e+02 
       2.090537469909e-04       9.017396264495e+02 
       2.257310435923e-04       9.709080260151e+02 
       2.437387742372e-04       1.045352448644e+03 
       2.631830745176e-04       1.125468122835e+03 
       2.841785470091e-04       1.211678179510e+03 
       3.068489367268e-04       1.304435249091e+03 
       3.313278604643e-04       1.404223052541e+03 
       3.577595943165e-04       1.511558013390e+03 
       3.862999240274e-04       1.626990836475e+03 
       4.171170631739e-04       1.751108027370e+03 
       4.503926445983e-04       1.884533381345e+03 
       4.863227909323e-04       2.027929376470e+03 
       5.251192705226e-04       2.181998446367e+03 
       5.670107455699e-04       2.347484100856e+03 
       6.122441198393e-04       2.525171869335e+03 
       6.610859938837e-04       2.715889981400e+03 
       7.138242363583e-04       2.920509686090e+03 
       7.707696806873e-04       3.139945097708e+03 
       8.322579570814e-04       3.375152334394e+03 
       8.986514707061e-04       3.627127828228e+03 
       9.703415376577e-04       3.896905450012e+03 
       1.047750691338e-03       4.185552170950e+03 
       1.131335172818e-03       4.494162426784e+03 
       1.221587619877e-03       4.823850702665e+03 
       1.319039970550e-03       5.175742736510e+03 
       1.424266598317e-03       5.551019592498e+03 
       1.537887697396e-03       5.950788335862e+03 
       1.660572938097e-03       6.376123046799e+03 
       1.793045413791e-03       6.828073896099e+03 
       1.936085902737e-03       7.307625375349e+03 
       2.090537469909e-03       7.815671902879e+03 
       2.257310435923e-03       8.352990369335e+03 
       2.437387742372e-03       8.920211057460e+03 
       2.631830745176e-03       9.517783061792e+03 
       2.841785470091e-03       1.014593703659e+04 
       3.068489367268e-03       1.080464505715e+04 
       3.313278604643e-03       1.149357459440e+04 
       3.577595943165e-03       1.221203620801e+04 
       3.862999240274e-03       1.295892538474e+04 
       4.171170631739e-03       1.373266002209e+04 
       4.503926445983e-03       1.453111834545e+04 
       4.863227909323e-03       1.535154982436e+04 
       5.251192705226e-03       1.619063602836e+04 
       5.670107455699e-03       1.704431256031e+04 
       6.122441198393e-03       1.790755944593e+04 
       6.610859938837e-03       1.877460427421e+04 
       7.138242363583e-03       1.963872449083e+04 
       7.707696806873e-03       2.049215712302e+04 
       8.322579570814e-03       2.132611393285e+04 
       8.986514707061e-03       2.213054963803e+04 
       9.703415376577e-03       2.289445545215e+04 
       1.047750691338e-02       2.360548085815e+04 
       1.131335172818e-02       2.425022778149e+04 
       1.221587619877e-02       2.481423935781e+04 
       1.319039970550e-02       2.528219247703e+04 
       1.424266598317e-02       2.563815004052e+04 
       1.537887697392e-02       2.586608123353e+04 
       1.660572938023e-02       2.595027338549e+04 
       1.793045412706e-02       2.587637079754e+04 
       1.936085890181e-02       2.563220049837e+04 
       2.090537352463e-02       2.520933787114e+04 
       2.257309535333e-02       2.460449731830e+04 
       2.437382002918e-02       2.382089613893e+04 
       2.631799944462e-02       2.287037917299e+04 
       2.841644545389e-02       2.177445409946e+04 
       3.067933355377e-02       2.056553766210e+04 
       3.311368470740e-02       1.928727870947e+04 
       3.571840443502e-02       1.799403147443e+04 
       3.847720348444e-02       1.674680577447e+04 
       4.135335538431e-02       1.560460109731e+04 
       4.429361667738e-02       1.461035357712e+04 
       4.724366439141e-02       1.378050806521e+04 
       5.016480835311e-02       1.310501888255e+04 
       5.303989620246e-02       1.255718522588e+04 
       5.586870669566e-02       1.210419438180e+04 
       5.866042680613e-02       1.171470322061e+04 
       6.142798932958e-02       1.136047697535e+04 
       6.418496440164e-02       1.101858893693e+04 
       6.694418833788e-02       1.067067890335e+04 
       6.971731106057e-02       1.030352093458e+04 
       7.251476155766e-02       9.909062872032e+03 
       7.534587671527e-02       9.483711094737e+03 
       7.821907666265e-02       9.029378482955e+03 
       8.114203772912e-02       8.552208343188e+03 
       8.412184535029e-02       8.061949258322e+03 
       8.716512279304e-02       7.570776207071e+03 
       9.027813695930e-02       7.092487954312e+03 
       9.346688431697e-02       6.640512066593e+03 
       9.673716028276e-02       6.226725732100e+03 
       1.000946150830e-01       5.859954287683e+03 
       1.035447986537e-01       5.545254503427e+03 
       1.070931966762e-01       5.283160019438e+03 
       1.107452594425e-01       5.069439253463e+03 
       1.145064249153e-01       4.895262406707e+03 
       1.183821370918e-01       4.747840459574e+03 
       1.223778605862e-01       4.611739689252e+03 
       1.264990921987e-01       4.470615817094e+03 
       1.307513701367e-01       4.310255470362e+03 
       1.351402814784e-01       4.121387069212e+03 
       1.396714684203e-01       3.902057984019e+03 
       1.443506338194e-01       3.658658718478e+03 
       1.491835465229e-01       3.404474635873e+03 
       1.541760469708e-01       3.156658615759e+03 
       1.593340535561e-01       2.931928792417e+03 
       1.646635702297e-01       2.742352596207e+03 
       1.701706958456e-01       2.592233098290e+03 
       1.758616357459e-01       2.477216380978e+03 
       1.817427160982e-01       2.385157934429e+03 
       1.878204015065e-01       2.300361394667e+03 
       1.941013164283e-01       2.205760880744e+03 
       2.005922709503e-01       2.090809067661e+03 
       2.073002914972e-01       1.956457121327e+03 
       2.142326570816e-01       1.814178578520e+03 
       2.213969417533e-01       1.679263316242e+03 
       2.288010639706e-01       1.563832067615e+03 
       2.364533437147e-01       1.472664542403e+03 
       2.443625682930e-01       1.401501586448e+03 
       2.525380679504e-01       1.338414027946e+03 
       2.609898026346e-01       1.270900354856e+03 
       2.697284615565e-01       1.193370425533e+03 
       2.787655775689e-01       1.109315666288e+03 
       2.881136588829e-01       1.028750707823e+03 
       2.977863412677e-01       9.604593199703e+02 
       3.077985646929e-01       9.050041106619e+02 
       3.181667794071e-01       8.561213129998e+02 
       3.289091877812e-01       8.061678986850e+02 
       3.400460299658e-01       7.523718709601e+02 
       3.515999236474e-01       6.989020087429e+02 
       3.635962711085e-01       6.510397967174e+02 
       3.760637506334e-01       6.100975145840e+02 
       3.890349143879e-01       5.721062492504e+02 
       4.025469216825e-01       5.337579438621e+02 
       4.166424456376e-01       4.956045575290e+02 
       4.313708035863e-01       4.604404045728e+02 
       4.467893782977e-01       4.287465320171e+02 
       4.629654199664e-01       3.987431010934e+02 
       4.799783501994e-01       3.692100510908e+02 
       4.979227319373e-01       3.412058358761e+02 
       5.169121270864e-01       3.154473105587e+02 
       5.370841404489e-01       2.907991412443e+02 
       5.586070464571e-01       2.670673121700e+02 
       5.816885094930e-01       2.447676048192e+02 
       6.065870144995e-01       2.235240912235e+02 
       6.336266468475e-01       2.031625094302e+02 
       6.632156059511e-01       1.838285288736e+02 
       6.958678639263e-01       1.653013702054e+02 
       7.322247985589e-01       1.476379865332e+02 
       7.730680195114e-01       1.307714860348e+02 
       8.193049553677e-01       1.147642413871e+02 
       8.718988016039e-01       9.968952701167e+01 
       9.317218031082e-01       8.569859779803e+01 
       9.993660908989e-01       7.296729100499e+01 
       1.075037110174e+00       6.163958735396e+01 
       1.158653485707e+00       5.177281904209e+01 
       1.250099157308e+00       4.332275411460e+01 
       1.349432401273e+00       3.615971125764e+01 
       1.456947457397e+00       3.012498915055e+01 
       1.573135111331e+00       2.505709056306e+01 
       1.698621895592e+00       2.080895312788e+01 
       1.834127512934e+00       1.725233764845e+01 
       1.980444934528e+00       1.427731101506e+01 
       2.138435191726e+00       1.179089160151e+01 
       2.309029199186e+00       9.714041014323e+00 
       2.493232377687e+00       7.980361919498e+00 
       2.692130395285e+00       6.533428441790e+00 
       2.906895534573e+00       5.326316946422e+00 
       3.138793597714e+00       4.319232887307e+00 
       3.389191366484e+00       3.479181048560e+00 
       3.659564657905e+00       2.778591109431e+00 
       3.951507022538e+00       2.194690880387e+00 
       4.266739136701e+00       1.708693080857e+00 
       4.607118943941e+00       1.305287055380e+00 
       4.974652605557e+00       9.721812524329e-01 
       5.371506324689e+00       6.995989654609e-01 
       5.800019113685e+00       4.798908111414e-01 
       6.262716579983e+00       3.071736782568e-01 
       6.762325811764e+00       1.768471271245e-01 
       7.301791451110e+00       8.511860678303e-02 
       7.884293049406e+00       2.841241187358e-02 
       8.513263807261e+00       2.734710452893e-03 
       9.192410809424e+00       3.020877915505e-03 
       9.925736873929e+00       2.261317215033e-02 
       1.071756414427e+01       5.309501768266e-02 
       1.157255956364e+01       8.473466575633e-02 
       1.249576238137e+01       1.077741375848e-01 
       1.349261385375e+01       1.145557223582e-01 
       1.456898931416e+01       1.020253105040e-01 
       1.573123280165e+01       7.365106026896e-02 
       1.698619445202e+01       3.921871030068e-02 
       1.834127087176e+01       1.149536855876e-02 
       1.980444873285e+01       1.221485177727e-04 
       2.138435184532e+01       5.644036526635e-03 
       2.309029198506e+01       1.832088418651e-02 
       2.493232377636e+01       2.466988294076e-02 
       2.692130395282e+01       1.845175523507e-02 
       2.906895534573e+01       6.267578100302e-03 
       3.138793597714e+01       4.787791462039e-05 
       3.389191366484e+01       2.887043961352e-03 
       3.659564657905e+01       6.231932492502e-03 
       3.951507022538e+01       3.698947435379e-03 
       4.266739136701e+01       2.086664259495e-04 
       4.607118943941e+01       8.092249766327e-04 
       4.974652605557e+01       1.587134194982e-03 
       5.371506324689e+01       3.029292070981e-04 
       5.800019113685e+01       1.571738153271e-04 
       6.262716579983e+01       4.061056774699e-04 
       6.762325811764e+01       1.405778851285e-05 
