# Matter power spectrum P(k) at redshift z=0
# for k=1.04775e-05 to 67.6233 h/Mpc,
# number of wavenumbers equal to 246
#    1:k (h/Mpc)              2:P (Mpc/h)^3        
       1.047750691338e-05       5.020964806750e+01 
       1.131335172818e-05       5.407048206553e+01 
       1.221587619877e-05       5.822819063952e+01 
       1.319039970550e-05       6.270562589682e+01 
       1.424266598317e-05       6.752731788102e+01 
       1.537887697396e-05       7.271977200258e+01 
       1.660572938097e-05       7.831147241542e+01 
       1.793045413791e-05       8.433311815128e+01 
       1.936085902737e-05       9.081778242446e+01 
       2.090537469909e-05       9.780108061339e+01 
       2.257310435923e-05       1.053213197032e+02 
       2.437387742372e-05       1.134197377001e+02 
       2.631830745176e-05       1.221408202816e+02 
       2.841785470091e-05       1.315324720916e+02 
       3.068489367268e-05       1.416462093730e+02 
       3.313278604643e-05       1.525374500691e+02 
       3.577595943165e-05       1.642660687078e+02 
       3.862999240274e-05       1.768963504868e+02 
       4.171170631739e-05       1.904975992460e+02 
       4.503926445983e-05       2.051444490305e+02 
       4.863227909323e-05       2.209171463752e+02 
       5.251192705226e-05       2.379022222314e+02 
       5.670107455699e-05       2.561927925619e+02 
       6.122441198393e-05       2.758890441791e+02 
       6.610859938837e-05       2.970989225465e+02 
       7.138242363583e-05       3.199385558200e+02 
       7.707696806873e-05       3.445329780878e+02 
       8.322579570814e-05       3.710167315928e+02 
       8.986514707061e-05       3.995346440954e+02 
       9.703415376577e-05       4.302425403884e+02 
       1.047750691338e-04       4.633080762974e+02 
       1.131335172818e-04       4.989116267507e+02 
       1.221587619877e-04       5.372471946561e+02 
       1.319039970550e-04       5.785234124634e+02 
       1.424266598317e-04       6.229645930980e+02 
       1.537887697396e-04       6.708118484951e+02 
       1.660572938097e-04       7.223242660220e+02 
       1.793045413791e-04       7.777801557589e+02 
       1.936085902737e-04       8.374783607333e+02 
       2.090537469909e-04       9.017396264495e+02 
       2.257310435923e-04       9.709080260152e+02 
       2.437387742372e-04       1.045352448644e+03 
       2.631830745176e-04       1.125468122836e+03 
       2.841785470091e-04       1.211678179511e+03 
       3.068489367268e-04       1.304435249091e+03 
       3.313278604643e-04       1.404223052541e+03 
       3.577595943165e-04       1.511558013390e+03 
       3.862999240274e-04       1.626990836473e+03 
       4.171170631739e-04       1.751108027370e+03 
       4.503926445983e-04       1.884533381345e+03 
       4.863227909323e-04       2.027929376471e+03 
       5.251192705226e-04       2.181998446367e+03 
       5.670107455699e-04       2.347484100857e+03 
       6.122441198393e-04       2.525171869337e+03 
       6.610859938837e-04       2.715889981401e+03 
       7.138242363583e-04       2.920509686081e+03 
       7.707696806873e-04       3.139945097711e+03 
       8.322579570814e-04       3.375152334396e+03 
       8.986514707061e-04       3.627127828230e+03 
       9.703415376577e-04       3.896905450016e+03 
       1.047750691338e-03       4.185552170949e+03 
       1.131335172818e-03       4.494162426790e+03 
       1.221587619877e-03       4.823850702662e+03 
       1.319039970550e-03       5.175742734623e+03 
       1.424266598317e-03       5.551019592518e+03 
       1.537887697396e-03       5.950788335875e+03 
       1.660572938097e-03       6.376123046799e+03 
       1.793045413791e-03       6.828073896111e+03 
       1.936085902737e-03       7.307625375384e+03 
       2.090537469909e-03       7.815671847453e+03 
       2.257310435923e-03       8.352990369385e+03 
       2.437387742372e-03       8.920211057512e+03 
       2.631830745176e-03       9.517783061882e+03 
       2.841785470091e-03       1.014593703670e+04 
       3.068489367268e-03       1.080464505730e+04 
       3.313278604643e-03       1.149357459542e+04 
       3.577595943165e-03       1.221203620824e+04 
       3.862999240274e-03       1.295892538503e+04 
       4.171170631739e-03       1.373266002142e+04 
       4.503926445983e-03       1.453111834591e+04 
       4.863227909323e-03       1.535154984086e+04 
       5.251192705226e-03       1.619063612603e+04 
       5.670107455699e-03       1.704431256578e+04 
       6.122441198393e-03       1.790755938937e+04 
       6.610859938837e-03       1.877460416698e+04 
       7.138242363583e-03       1.963872430692e+04 
       7.707696806873e-03       2.049215713149e+04 
       8.322579570814e-03       2.132606358852e+04 
       8.986514707061e-03       2.213055523264e+04 
       9.703415376577e-03       2.289445477187e+04 
       1.047750691338e-02       2.360548717289e+04 
       1.131335172818e-02       2.425022844020e+04 
       1.221587619877e-02       2.481423926041e+04 
       1.319039970550e-02       2.528218845927e+04 
       1.424266598317e-02       2.563814376682e+04 
       1.537887697392e-02       2.586607920914e+04 
       1.660572938023e-02       2.595026832380e+04 
       1.793045412706e-02       2.587634588003e+04 
       1.936085890181e-02       2.563221732927e+04 
       2.090537352463e-02       2.520936964977e+04 
       2.257309535333e-02       2.460447522507e+04 
       2.437382002918e-02       2.382089901334e+04 
       2.631799944462e-02       2.287043706196e+04 
       2.841644545389e-02       2.177452278618e+04 
       3.067933355377e-02       2.056553495975e+04 
       3.311368470740e-02       1.928729865847e+04 
       3.571840443502e-02       1.799398649216e+04 
       3.847720348444e-02       1.674682937728e+04 
       4.135335538431e-02       1.560459974697e+04 
       4.429361667738e-02       1.461036450381e+04 
       4.724366439141e-02       1.378052799324e+04 
       5.016480835311e-02       1.310503121096e+04 
       5.303989620246e-02       1.255713857434e+04 
       5.586870669566e-02       1.210428008997e+04 
       5.866042680613e-02       1.171467866423e+04 
       6.142798932958e-02       1.136049279942e+04 
       6.418496440164e-02       1.101859586572e+04 
       6.694418833788e-02       1.067075927357e+04 
       6.971731106057e-02       1.030366963561e+04 
       7.251476155766e-02       9.909066892935e+03 
       7.534587671527e-02       9.483825506006e+03 
       7.821907666265e-02       9.029536430556e+03 
       8.114203772912e-02       8.552362468685e+03 
       8.412184535029e-02       8.062002582125e+03 
       8.716512279304e-02       7.570797320260e+03 
       9.027813695930e-02       7.092531200187e+03 
       9.346688431697e-02       6.640554986205e+03 
       9.673716028276e-02       6.226732201161e+03 
       1.000946150830e-01       5.859971493326e+03 
       1.035447986537e-01       5.545282165888e+03 
       1.070931966762e-01       5.283178598749e+03 
       1.107452594425e-01       5.069444211293e+03 
       1.145064249153e-01       4.895255086836e+03 
       1.183821370918e-01       4.747852099656e+03 
       1.223778605862e-01       4.611746557483e+03 
       1.264990921987e-01       4.470609316711e+03 
       1.307513701367e-01       4.310266289214e+03 
       1.351402814784e-01       4.121373908906e+03 
       1.396714684203e-01       3.902066080624e+03 
       1.443506338194e-01       3.658649716175e+03 
       1.491835465229e-01       3.404477825793e+03 
       1.541760469708e-01       3.156655933632e+03 
       1.593340535561e-01       2.931947893529e+03 
       1.646635702297e-01       2.742357853005e+03 
       1.701706958456e-01       2.592253630403e+03 
       1.758616357459e-01       2.477226878603e+03 
       1.817427160982e-01       2.385169671772e+03 
       1.878204015065e-01       2.300350618020e+03 
       1.941013164283e-01       2.205710023310e+03 
       2.005922709503e-01       2.090798412145e+03 
       2.073002914972e-01       1.956478231710e+03 
       2.142326570816e-01       1.814192468742e+03 
       2.213969417533e-01       1.679273243814e+03 
       2.288010639706e-01       1.563841881198e+03 
       2.364533437147e-01       1.472673907752e+03 
       2.443625682930e-01       1.401513172297e+03 
       2.525380679504e-01       1.338422603849e+03 
       2.609898026346e-01       1.270913133018e+03 
       2.697284615565e-01       1.193382334656e+03 
       2.787655775689e-01       1.109333367521e+03 
       2.881136588829e-01       1.028765871973e+03 
       2.977863412677e-01       9.604749282675e+02 
       3.077985646929e-01       9.050095359479e+02 
       3.181667794071e-01       8.561319305548e+02 
       3.289091877812e-01       8.061794681958e+02 
       3.400460299658e-01       7.523853531213e+02 
       3.515999236474e-01       6.989166546201e+02 
       3.635962711085e-01       6.510506641448e+02 
       3.760637506334e-01       6.101180259804e+02 
       3.890349143879e-01       5.721274919943e+02 
       4.025469216825e-01       5.337759480265e+02 
       4.166424456376e-01       4.956241282824e+02 
       4.313708035863e-01       4.604642541726e+02 
       4.467893782977e-01       4.287704649565e+02 
       4.629654199664e-01       3.987705456167e+02 
       4.799783501994e-01       3.692356945870e+02 
       4.979227319373e-01       3.412367822880e+02 
       5.169121270864e-01       3.154792129331e+02 
       5.370841404489e-01       2.908323625560e+02 
       5.586070464571e-01       2.671022124001e+02 
       5.816885094930e-01       2.448061045707e+02 
       6.065870144995e-01       2.235661819483e+02 
       6.336266468475e-01       2.032082219767e+02 
       6.632156059511e-01       1.838777559679e+02 
       6.958678639263e-01       1.653538062544e+02 
       7.322247985589e-01       1.476943217395e+02 
       7.730680195114e-01       1.308336697870e+02 
       8.193049553677e-01       1.148307463412e+02 
       8.718988016039e-01       9.976247812283e+01 
       9.317218031082e-01       8.577742588621e+01 
       9.993660908989e-01       7.305454836399e+01 
       1.075037110174e+00       6.173576771629e+01 
       1.158653485707e+00       5.187877998070e+01 
       1.250099157308e+00       4.343988825568e+01 
       1.349432401273e+00       3.628880135338e+01 
       1.456947457397e+00       3.026779344764e+01 
       1.573135111331e+00       2.521437968825e+01 
       1.698621895592e+00       2.098189257712e+01 
       1.834127512934e+00       1.744219561679e+01 
       1.980444934528e+00       1.448547483593e+01 
       2.138435191726e+00       1.201877224919e+01 
       2.309029199186e+00       9.962987617400e+00 
       2.493232377687e+00       8.251679288746e+00 
       2.692130395285e+00       6.828392571315e+00 
       2.906895534573e+00       5.646111134430e+00 
       3.138793597714e+00       4.664708814320e+00 
       3.389191366484e+00       3.850974713480e+00 
       3.659564657905e+00       3.176799818974e+00 
       3.951507022538e+00       2.618726479777e+00 
       4.266739136701e+00       2.157197733370e+00 
       4.607118943941e+00       1.775792573341e+00 
       4.974652605557e+00       1.460860002111e+00 
       5.371506324689e+00       1.201003134428e+00 
       5.800019113685e+00       9.867389757193e-01 
       6.262716579983e+00       8.102012057710e-01 
       6.762325811764e+00       6.648590851554e-01 
       7.301791451110e+00       5.452702333015e-01 
       7.884293049406e+00       4.469367742262e-01 
       8.513263807261e+00       3.661309505653e-01 
       9.192410809424e+00       2.997699581779e-01 
       9.925736873929e+00       2.453019567676e-01 
       1.071756414427e+01       2.006239498968e-01 
       1.157255956364e+01       1.639908491497e-01 
       1.249576238137e+01       1.339752832940e-01 
       1.349261385375e+01       1.093906294425e-01 
       1.456898931416e+01       8.926605330578e-02 
       1.573123280165e+01       7.279857905600e-02 
       1.698619445202e+01       5.932993902407e-02 
       1.834127087176e+01       4.831787549401e-02 
       1.980444873285e+01       3.931840833775e-02 
       2.138435184532e+01       3.196523628395e-02 
       2.309029198506e+01       2.595922147218e-02 
       2.493232377636e+01       2.105433688818e-02 
       2.692130395282e+01       1.704956118213e-02 
       2.906895534573e+01       1.377963129029e-02 
       3.138793597714e+01       1.110981211904e-02 
       3.389191366484e+01       8.929618463444e-03 
       3.659564657905e+01       7.149108278870e-03 
       3.951507022538e+01       5.694566958384e-03 
       4.266739136701e+01       4.506207239518e-03 
       4.607118943941e+01       3.535390964405e-03 
       4.974652605557e+01       2.742866145702e-03 
       5.371506324689e+01       2.096593840266e-03 
       5.800019113685e+01       1.571333146894e-03 
       6.262716579983e+01       1.146800962437e-03 
       6.762325811764e+01       8.070327599781e-04 
