# Matter power spectrum P(k) at redshift z=0
# for k=1.04775e-05 to 67.6233 h/Mpc,
# number of wavenumbers equal to 246
#    1:k (h/Mpc)              2:P (Mpc/h)^3        
       1.047750691338e-05       5.020964806749e+01 
       1.131335172818e-05       5.407048206553e+01 
       1.221587619877e-05       5.822819063862e+01 
       1.319039970550e-05       6.270562589678e+01 
       1.424266598317e-05       6.752731788102e+01 
       1.537887697396e-05       7.271977200258e+01 
       1.660572938097e-05       7.831147241542e+01 
       1.793045413791e-05       8.433311815128e+01 
       1.936085902737e-05       9.081778242446e+01 
       2.090537469909e-05       9.780108061338e+01 
       2.257310435923e-05       1.053213197032e+02 
       2.437387742372e-05       1.134197377001e+02 
       2.631830745176e-05       1.221408202815e+02 
       2.841785470091e-05       1.315324720916e+02 
       3.068489367268e-05       1.416462093730e+02 
       3.313278604643e-05       1.525374500691e+02 
       3.577595943165e-05       1.642660687078e+02 
       3.862999240274e-05       1.768963504868e+02 
       4.171170631739e-05       1.904975992460e+02 
       4.503926445983e-05       2.051444490305e+02 
       4.863227909323e-05       2.209171463752e+02 
       5.251192705226e-05       2.379022222314e+02 
       5.670107455699e-05       2.561927925527e+02 
       6.122441198393e-05       2.758890441790e+02 
       6.610859938837e-05       2.970989225466e+02 
       7.138242363583e-05       3.199385558200e+02 
       7.707696806873e-05       3.445329780878e+02 
       8.322579570814e-05       3.710167315928e+02 
       8.986514707061e-05       3.995346440954e+02 
       9.703415376577e-05       4.302425403884e+02 
       1.047750691338e-04       4.633080762974e+02 
       1.131335172818e-04       4.989116267507e+02 
       1.221587619877e-04       5.372471946561e+02 
       1.319039970550e-04       5.785234124635e+02 
       1.424266598317e-04       6.229645930980e+02 
       1.537887697396e-04       6.708118484951e+02 
       1.660572938097e-04       7.223242660220e+02 
       1.793045413791e-04       7.777801554363e+02 
       1.936085902737e-04       8.374783607333e+02 
       2.090537469909e-04       9.017396264495e+02 
       2.257310435923e-04       9.709080260152e+02 
       2.437387742372e-04       1.045352448644e+03 
       2.631830745176e-04       1.125468122836e+03 
       2.841785470091e-04       1.211678179511e+03 
       3.068489367268e-04       1.304435249091e+03 
       3.313278604643e-04       1.404223052541e+03 
       3.577595943165e-04       1.511558013390e+03 
       3.862999240274e-04       1.626990836445e+03 
       4.171170631739e-04       1.751108027371e+03 
       4.503926445983e-04       1.884533381345e+03 
       4.863227909323e-04       2.027929376471e+03 
       5.251192705226e-04       2.181998446367e+03 
       5.670107455699e-04       2.347484100857e+03 
       6.122441198393e-04       2.525171869335e+03 
       6.610859938837e-04       2.715889981401e+03 
       7.138242363583e-04       2.920509686088e+03 
       7.707696806873e-04       3.139945097711e+03 
       8.322579570814e-04       3.375152334397e+03 
       8.986514707061e-04       3.627127828231e+03 
       9.703415376577e-04       3.896905450016e+03 
       1.047750691338e-03       4.185552170958e+03 
       1.131335172818e-03       4.494162426791e+03 
       1.221587619877e-03       4.823850702674e+03 
       1.319039970550e-03       5.175742739869e+03 
       1.424266598317e-03       5.551019592517e+03 
       1.537887697396e-03       5.950788335878e+03 
       1.660572938097e-03       6.376123046807e+03 
       1.793045413791e-03       6.828073896114e+03 
       1.936085902737e-03       7.307625375386e+03 
       2.090537469909e-03       7.815671858943e+03 
       2.257310435923e-03       8.352990369403e+03 
       2.437387742372e-03       8.920211057545e+03 
       2.631830745176e-03       9.517783061890e+03 
       2.841785470091e-03       1.014593703671e+04 
       3.068489367268e-03       1.080464505736e+04 
       3.313278604643e-03       1.149357459458e+04 
       3.577595943165e-03       1.221203620826e+04 
       3.862999240274e-03       1.295892538505e+04 
       4.171170631739e-03       1.373266000078e+04 
       4.503926445983e-03       1.453111834595e+04 
       4.863227909323e-03       1.535154984226e+04 
       5.251192705226e-03       1.619063613427e+04 
       5.670107455699e-03       1.704431256582e+04 
       6.122441198393e-03       1.790755938459e+04 
       6.610859938837e-03       1.877460414348e+04 
       7.138242363583e-03       1.963872429114e+04 
       7.707696806873e-03       2.049215711968e+04 
       8.322579570814e-03       2.132607230414e+04 
       8.986514707061e-03       2.213055001742e+04 
       9.703415376577e-03       2.289445470845e+04 
       1.047750691338e-02       2.360548729941e+04 
       1.131335172818e-02       2.425023369868e+04 
       1.221587619877e-02       2.481423920436e+04 
       1.319039970550e-02       2.528218637550e+04 
       1.424266598317e-02       2.563814325172e+04 
       1.537887697392e-02       2.586607368651e+04 
       1.660572938023e-02       2.595027170634e+04 
       1.793045412706e-02       2.587632122618e+04 
       1.936085890181e-02       2.563221597872e+04 
       2.090537352463e-02       2.520932926085e+04 
       2.257309535333e-02       2.460445413748e+04 
       2.437382002918e-02       2.382089040023e+04 
       2.631799944462e-02       2.287046357781e+04 
       2.841644545389e-02       2.177450148080e+04 
       3.067933355377e-02       2.056560707941e+04 
       3.311368470740e-02       1.928725795423e+04 
       3.571840443502e-02       1.799398566167e+04 
       3.847720348444e-02       1.674686108161e+04 
       4.135335538431e-02       1.560455917389e+04 
       4.429361667738e-02       1.461037086751e+04 
       4.724366439141e-02       1.378056346356e+04 
       5.016480835311e-02       1.310508424235e+04 
       5.303989620246e-02       1.255716699685e+04 
       5.586870669566e-02       1.210426770406e+04 
       5.866042680613e-02       1.171464463580e+04 
       6.142798932958e-02       1.136048397599e+04 
       6.418496440164e-02       1.101859871489e+04 
       6.694418833788e-02       1.067068605800e+04 
       6.971731106057e-02       1.030358469487e+04 
       7.251476155766e-02       9.909023375174e+03 
       7.534587671527e-02       9.483782361912e+03 
       7.821907666265e-02       9.029502431217e+03 
       8.114203772912e-02       8.552322233802e+03 
       8.412184535029e-02       8.061962781493e+03 
       8.716512279304e-02       7.570768871857e+03 
       9.027813695930e-02       7.092510107552e+03 
       9.346688431697e-02       6.640525424003e+03 
       9.673716028276e-02       6.226713455370e+03 
       1.000946150830e-01       5.859941302805e+03 
       1.035447986537e-01       5.545225715983e+03 
       1.070931966762e-01       5.283137580802e+03 
       1.107452594425e-01       5.069415695287e+03 
       1.145064249153e-01       4.895245193129e+03 
       1.183821370918e-01       4.747879355383e+03 
       1.223778605862e-01       4.611739235441e+03 
       1.264990921987e-01       4.470604746752e+03 
       1.307513701367e-01       4.310236452689e+03 
       1.351402814784e-01       4.121389863755e+03 
       1.396714684203e-01       3.902047313582e+03 
       1.443506338194e-01       3.658641487956e+03 
       1.491835465229e-01       3.404484293914e+03 
       1.541760469708e-01       3.156670983402e+03 
       1.593340535561e-01       2.931979487519e+03 
       1.646635702297e-01       2.742371290053e+03 
       1.701706958456e-01       2.592258676195e+03 
       1.758616357459e-01       2.477248337999e+03 
       1.817427160982e-01       2.385187604935e+03 
       1.878204015065e-01       2.300363991597e+03 
       1.941013164283e-01       2.205760396604e+03 
       2.005922709503e-01       2.090814109810e+03 
       2.073002914972e-01       1.956467119349e+03 
       2.142326570816e-01       1.814194579072e+03 
       2.213969417533e-01       1.679294772170e+03 
       2.288010639706e-01       1.563845880477e+03 
       2.364533437147e-01       1.472686728328e+03 
       2.443625682930e-01       1.401511654739e+03 
       2.525380679504e-01       1.338416284433e+03 
       2.609898026346e-01       1.270897624489e+03 
       2.697284615565e-01       1.193383077484e+03 
       2.787655775689e-01       1.109343087025e+03 
       2.881136588829e-01       1.028771021080e+03 
       2.977863412677e-01       9.604808304157e+02 
       3.077985646929e-01       9.050251236390e+02 
       3.181667794071e-01       8.561463298595e+02 
       3.289091877812e-01       8.061881697166e+02 
       3.400460299658e-01       7.523928491182e+02 
       3.515999236474e-01       6.989212614079e+02 
       3.635962711085e-01       6.510648705063e+02 
       3.760637506334e-01       6.101217292488e+02 
       3.890349143879e-01       5.721323692266e+02 
       4.025469216825e-01       5.337820980183e+02 
       4.166424456376e-01       4.956333066885e+02 
       4.313708035863e-01       4.604697259041e+02 
       4.467893782977e-01       4.287760924545e+02 
       4.629654199664e-01       3.987721420125e+02 
       4.799783501994e-01       3.692406848597e+02 
       4.979227319373e-01       3.412389693134e+02 
       5.169121270864e-01       3.154843112214e+02 
       5.370841404489e-01       2.908352609105e+02 
       5.586070464571e-01       2.671064862281e+02 
       5.816885094930e-01       2.448096972842e+02 
       6.065870144995e-01       2.235681266196e+02 
       6.336266468475e-01       2.032102180140e+02 
       6.632156059511e-01       1.838793286870e+02 
       6.958678639263e-01       1.653547534992e+02 
       7.322247985589e-01       1.476954284319e+02 
       7.730680195114e-01       1.308336612193e+02 
       8.193049553677e-01       1.148312978748e+02 
       8.718988016039e-01       9.976281489136e+01 
       9.317218031082e-01       8.577812587203e+01 
       9.993660908989e-01       7.305490878909e+01 
       1.075037110174e+00       6.173576427134e+01 
       1.158653485707e+00       5.187928997903e+01 
       1.250099157308e+00       4.344002383161e+01 
       1.349432401273e+00       3.628928225608e+01 
       1.456947457397e+00       3.026799244890e+01 
       1.573135111331e+00       2.521439388887e+01 
       1.698621895592e+00       2.098201331138e+01 
       1.834127512934e+00       1.744237113436e+01 
       1.980444934528e+00       1.448559937892e+01 
       2.138435191726e+00       1.201893155903e+01 
       2.309029199186e+00       9.963159815289e+00 
       2.493232377687e+00       8.251802860212e+00 
       2.692130395285e+00       6.828576100837e+00 
       2.906895534573e+00       5.646220788220e+00 
       3.138793597714e+00       4.664898335697e+00 
       3.389191366484e+00       3.851098094814e+00 
       3.659564657905e+00       3.176924343812e+00 
       3.951507022538e+00       2.618871664114e+00 
       4.266739136701e+00       2.157349515960e+00 
       4.607118943941e+00       1.775918927070e+00 
       4.974652605557e+00       1.460978252682e+00 
       5.371506324689e+00       1.201104185031e+00 
       5.800019113685e+00       9.868597049879e-01 
       6.262716579983e+00       8.103345807330e-01 
       6.762325811764e+00       6.649923953623e-01 
       7.301791451110e+00       5.454073930572e-01 
       7.884293049406e+00       4.470766556647e-01 
       8.513263807261e+00       3.662749772828e-01 
       9.192410809424e+00       2.999119779814e-01 
       9.925736873929e+00       2.454496359856e-01 
       1.071756414427e+01       2.007740678881e-01 
       1.157255956364e+01       1.641483888087e-01 
       1.249576238137e+01       1.341365338304e-01 
       1.349261385375e+01       1.095595972571e-01 
       1.456898931416e+01       8.944161105930e-02 
       1.573123280165e+01       7.298110645884e-02 
       1.698619445202e+01       5.952097658536e-02 
       1.834127087176e+01       4.851907191143e-02 
       1.980444873285e+01       3.952978444889e-02 
       2.138435184532e+01       3.218828761905e-02 
       2.309029198506e+01       2.619448336339e-02 
       2.493232377636e+01       2.130337393023e-02 
       2.692130395282e+01       1.731269530725e-02 
       2.906895534573e+01       1.405804104493e-02 
       3.138793597714e+01       1.140434728700e-02 
       3.389191366484e+01       9.240998426523e-03 
       3.659564657905e+01       7.477830822517e-03 
       3.951507022538e+01       6.040895736236e-03 
       4.266739136701e+01       4.869902603753e-03 
       4.607118943941e+01       3.915619198826e-03 
       4.974652605557e+01       3.138022782262e-03 
       5.371506324689e+01       2.504375700206e-03 
       5.800019113685e+01       1.987970634314e-03 
       6.262716579983e+01       1.567340515669e-03 
       6.762325811764e+01       1.224853190538e-03 
