# Matter power spectrum P(k) at redshift z=0
# for k=1.04775e-05 to 67.6233 h/Mpc,
# number of wavenumbers equal to 246
#    1:k (h/Mpc)              2:P (Mpc/h)^3        
       1.047750691338e-05       5.020964806750e+01 
       1.131335172818e-05       5.407048206553e+01 
       1.221587619877e-05       5.822819063723e+01 
       1.319039970550e-05       6.270562589668e+01 
       1.424266598317e-05       6.752731788102e+01 
       1.537887697396e-05       7.271977200258e+01 
       1.660572938097e-05       7.831147241542e+01 
       1.793045413791e-05       8.433311815128e+01 
       1.936085902737e-05       9.081778242446e+01 
       2.090537469909e-05       9.780108061341e+01 
       2.257310435923e-05       1.053213197032e+02 
       2.437387742372e-05       1.134197377001e+02 
       2.631830745176e-05       1.221408202815e+02 
       2.841785470091e-05       1.315324720917e+02 
       3.068489367268e-05       1.416462093729e+02 
       3.313278604643e-05       1.525374500691e+02 
       3.577595943165e-05       1.642660687078e+02 
       3.862999240274e-05       1.768963504868e+02 
       4.171170631739e-05       1.904975992460e+02 
       4.503926445983e-05       2.051444490306e+02 
       4.863227909323e-05       2.209171463752e+02 
       5.251192705226e-05       2.379022222314e+02 
       5.670107455699e-05       2.561927925905e+02 
       6.122441198393e-05       2.758890441791e+02 
       6.610859938837e-05       2.970989225465e+02 
       7.138242363583e-05       3.199385558200e+02 
       7.707696806873e-05       3.445329780878e+02 
       8.322579570814e-05       3.710167315928e+02 
       8.986514707061e-05       3.995346440954e+02 
       9.703415376577e-05       4.302425403884e+02 
       1.047750691338e-04       4.633080762974e+02 
       1.131335172818e-04       4.989116267507e+02 
       1.221587619877e-04       5.372471946561e+02 
       1.319039970550e-04       5.785234124636e+02 
       1.424266598317e-04       6.229645929806e+02 
       1.537887697396e-04       6.708118484951e+02 
       1.660572938097e-04       7.223242660220e+02 
       1.793045413791e-04       7.777801553757e+02 
       1.936085902737e-04       8.374783607333e+02 
       2.090537469909e-04       9.017396264495e+02 
       2.257310435923e-04       9.709080260152e+02 
       2.437387742372e-04       1.045352448644e+03 
       2.631830745176e-04       1.125468122836e+03 
       2.841785470091e-04       1.211678179511e+03 
       3.068489367268e-04       1.304435249091e+03 
       3.313278604643e-04       1.404223052541e+03 
       3.577595943165e-04       1.511558013390e+03 
       3.862999240274e-04       1.626990836532e+03 
       4.171170631739e-04       1.751108027370e+03 
       4.503926445983e-04       1.884533381345e+03 
       4.863227909323e-04       2.027929376471e+03 
       5.251192705226e-04       2.181998446367e+03 
       5.670107455699e-04       2.347484100857e+03 
       6.122441198393e-04       2.525171869337e+03 
       6.610859938837e-04       2.715889981402e+03 
       7.138242363583e-04       2.920509686088e+03 
       7.707696806873e-04       3.139945097711e+03 
       8.322579570814e-04       3.375152334396e+03 
       8.986514707061e-04       3.627127828231e+03 
       9.703415376577e-04       3.896905450016e+03 
       1.047750691338e-03       4.185552170954e+03 
       1.131335172818e-03       4.494162426791e+03 
       1.221587619877e-03       4.823850702667e+03 
       1.319039970550e-03       5.175742738887e+03 
       1.424266598317e-03       5.551019592525e+03 
       1.537887697396e-03       5.950788335878e+03 
       1.660572938097e-03       6.376123046809e+03 
       1.793045413791e-03       6.828073896119e+03 
       1.936085902737e-03       7.307625375386e+03 
       2.090537469909e-03       7.815671908211e+03 
       2.257310435923e-03       8.352990369402e+03 
       2.437387742372e-03       8.920211057531e+03 
       2.631830745176e-03       9.517783061890e+03 
       2.841785470091e-03       1.014593703671e+04 
       3.068489367268e-03       1.080464505727e+04 
       3.313278604643e-03       1.149357459544e+04 
       3.577595943165e-03       1.221203620826e+04 
       3.862999240274e-03       1.295892538505e+04 
       4.171170631739e-03       1.373266002280e+04 
       4.503926445983e-03       1.453111834595e+04 
       4.863227909323e-03       1.535154984227e+04 
       5.251192705226e-03       1.619063613436e+04 
       5.670107455699e-03       1.704431256573e+04 
       6.122441198393e-03       1.790755938454e+04 
       6.610859938837e-03       1.877460421241e+04 
       7.138242363583e-03       1.963872429096e+04 
       7.707696806873e-03       2.049215713096e+04 
       8.322579570814e-03       2.132607230573e+04 
       8.986514707061e-03       2.213055129787e+04 
       9.703415376577e-03       2.289445470787e+04 
       1.047750691338e-02       2.360548324868e+04 
       1.131335172818e-02       2.425022856720e+04 
       1.221587619877e-02       2.481423921412e+04 
       1.319039970550e-02       2.528218680703e+04 
       1.424266598317e-02       2.563814465883e+04 
       1.537887697392e-02       2.586607581647e+04 
       1.660572938023e-02       2.595027471414e+04 
       1.793045412706e-02       2.587633548274e+04 
       1.936085890181e-02       2.563218529909e+04 
       2.090537352463e-02       2.520936803455e+04 
       2.257309535333e-02       2.460447802538e+04 
       2.437382002918e-02       2.382092375950e+04 
       2.631799944462e-02       2.287045246334e+04 
       2.841644545389e-02       2.177450785018e+04 
       3.067933355377e-02       2.056557138034e+04 
       3.311368470740e-02       1.928724530900e+04 
       3.571840443502e-02       1.799400695694e+04 
       3.847720348444e-02       1.674682136845e+04 
       4.135335538431e-02       1.560464548908e+04 
       4.429361667738e-02       1.461038150165e+04 
       4.724366439141e-02       1.378057073642e+04 
       5.016480835311e-02       1.310509570379e+04 
       5.303989620246e-02       1.255714702851e+04 
       5.586870669566e-02       1.210424362946e+04 
       5.866042680613e-02       1.171467529889e+04 
       6.142798932958e-02       1.136047226930e+04 
       6.418496440164e-02       1.101859304730e+04 
       6.694418833788e-02       1.067069612309e+04 
       6.971731106057e-02       1.030359370434e+04 
       7.251476155766e-02       9.909008903410e+03 
       7.534587671527e-02       9.483772029086e+03 
       7.821907666265e-02       9.029483389625e+03 
       8.114203772912e-02       8.552321016244e+03 
       8.412184535029e-02       8.061977828279e+03 
       8.716512279304e-02       7.570799154477e+03 
       9.027813695930e-02       7.092497377141e+03 
       9.346688431697e-02       6.640504649325e+03 
       9.673716028276e-02       6.226705945703e+03 
       1.000946150830e-01       5.859935033827e+03 
       1.035447986537e-01       5.545250426656e+03 
       1.070931966762e-01       5.283113767939e+03 
       1.107452594425e-01       5.069415704136e+03 
       1.145064249153e-01       4.895249106445e+03 
       1.183821370918e-01       4.747831581041e+03 
       1.223778605862e-01       4.611741516294e+03 
       1.264990921987e-01       4.470626733828e+03 
       1.307513701367e-01       4.310273768268e+03 
       1.351402814784e-01       4.121394796539e+03 
       1.396714684203e-01       3.902062706106e+03 
       1.443506338194e-01       3.658639758807e+03 
       1.491835465229e-01       3.404492400173e+03 
       1.541760469708e-01       3.156677320622e+03 
       1.593340535561e-01       2.931977028795e+03 
       1.646635702297e-01       2.742374141473e+03 
       1.701706958456e-01       2.592262030368e+03 
       1.758616357459e-01       2.477241799366e+03 
       1.817427160982e-01       2.385184179404e+03 
       1.878204015065e-01       2.300362281786e+03 
       1.941013164283e-01       2.205761643755e+03 
       2.005922709503e-01       2.090813236291e+03 
       2.073002914972e-01       1.956469613083e+03 
       2.142326570816e-01       1.814192968110e+03 
       2.213969417533e-01       1.679294514303e+03 
       2.288010639706e-01       1.563848806031e+03 
       2.364533437147e-01       1.472686977172e+03 
       2.443625682930e-01       1.401517119427e+03 
       2.525380679504e-01       1.338416762484e+03 
       2.609898026346e-01       1.270903244488e+03 
       2.697284615565e-01       1.193385249632e+03 
       2.787655775689e-01       1.109339764832e+03 
       2.881136588829e-01       1.028772038032e+03 
       2.977863412677e-01       9.604832215006e+02 
       3.077985646929e-01       9.050244478714e+02 
       3.181667794071e-01       8.561443403646e+02 
       3.289091877812e-01       8.061894317182e+02 
       3.400460299658e-01       7.523913223186e+02 
       3.515999236474e-01       6.989238804379e+02 
       3.635962711085e-01       6.510625886117e+02 
       3.760637506334e-01       6.101252069416e+02 
       3.890349143879e-01       5.721320336484e+02 
       4.025469216825e-01       5.337825767759e+02 
       4.166424456376e-01       4.956312733742e+02 
       4.313708035863e-01       4.604703522619e+02 
       4.467893782977e-01       4.287778234670e+02 
       4.629654199664e-01       3.987727679375e+02 
       4.799783501994e-01       3.692435313844e+02 
       4.979227319373e-01       3.412402721336e+02 
       5.169121270864e-01       3.154848375496e+02 
       5.370841404489e-01       2.908362095258e+02 
       5.586070464571e-01       2.671061401949e+02 
       5.816885094930e-01       2.448103078292e+02 
       6.065870144995e-01       2.235690265795e+02 
       6.336266468475e-01       2.032110674311e+02 
       6.632156059511e-01       1.838794903331e+02 
       6.958678639263e-01       1.653546683989e+02 
       7.322247985589e-01       1.476963380971e+02 
       7.730680195114e-01       1.308344273777e+02 
       8.193049553677e-01       1.148315773606e+02 
       8.718988016039e-01       9.976258133222e+01 
       9.317218031082e-01       8.577823692930e+01 
       9.993660908989e-01       7.305531741180e+01 
       1.075037110174e+00       6.173643332743e+01 
       1.158653485707e+00       5.187956707780e+01 
       1.250099157308e+00       4.344058481057e+01 
       1.349432401273e+00       3.628961952860e+01 
       1.456947457397e+00       3.026817891829e+01 
       1.573135111331e+00       2.521472741868e+01 
       1.698621895592e+00       2.098205194514e+01 
       1.834127512934e+00       1.744241821078e+01 
       1.980444934528e+00       1.448577897899e+01 
       2.138435191726e+00       1.201897484261e+01 
       2.309029199186e+00       9.963228344789e+00 
       2.493232377687e+00       8.251844841580e+00 
       2.692130395285e+00       6.828653711127e+00 
       2.906895534573e+00       5.646270348306e+00 
       3.138793597714e+00       4.664930871919e+00 
       3.389191366484e+00       3.851131470055e+00 
       3.659564657905e+00       3.176939255937e+00 
       3.951507022538e+00       2.618900623262e+00 
       4.266739136701e+00       2.157374888736e+00 
       4.607118943941e+00       1.775955793921e+00 
       4.974652605557e+00       1.461002360559e+00 
       5.371506324689e+00       1.201140138225e+00 
       5.800019113685e+00       9.868821001045e-01 
       6.262716579983e+00       8.103598745271e-01 
       6.762325811764e+00       6.650129592221e-01 
       7.301791451110e+00       5.454293321110e-01 
       7.884293049406e+00       4.471011581783e-01 
       8.513263807261e+00       3.663012459176e-01 
       9.192410809424e+00       2.999418450386e-01 
       9.925736873929e+00       2.454815821852e-01 
       1.071756414427e+01       2.008091256586e-01 
       1.157255956364e+01       1.641853503374e-01 
       1.249576238137e+01       1.341775782322e-01 
       1.349261385375e+01       1.096038703840e-01 
       1.456898931416e+01       8.948962285460e-02 
       1.573123280165e+01       7.303382131032e-02 
       1.698619445202e+01       5.957845620296e-02 
       1.834127087176e+01       4.858112394949e-02 
       1.980444873285e+01       3.959703949943e-02 
       2.138435184532e+01       3.226113102271e-02 
       2.309029198506e+01       2.627345245471e-02 
       2.493232377636e+01       2.138857051937e-02 
       2.692130395282e+01       1.740490553519e-02 
       2.906895534573e+01       1.415741041497e-02 
       3.138793597714e+01       1.151136766403e-02 
       3.389191366484e+01       9.356069787767e-03 
       3.659564657905e+01       7.601337523965e-03 
       3.951507022538e+01       6.173099185099e-03 
       4.266739136701e+01       5.011223957258e-03 
       4.607118943941e+01       4.066174769775e-03 
       4.974652605557e+01       3.298010767909e-03 
       5.371506324689e+01       2.673707271648e-03 
       5.800019113685e+01       2.166583324732e-03 
       6.262716579983e+01       1.754753326193e-03 
       6.762325811764e+01       1.420486702354e-03 
