# Matter power spectrum P(k) at redshift z=99
# for k=1.04775e-05 to 67.6233 h/Mpc,
# number of wavenumbers equal to 246
#    1:k (h/Mpc)              2:P (Mpc/h)^3        
       1.047750691338e-05       7.261927673120e-03 
       1.131335172818e-05       7.820331745738e-03 
       1.221587619877e-05       8.421675986490e-03 
       1.319039970550e-05       9.069258192195e-03 
       1.424266598317e-05       9.766638404422e-03 
       1.537887697396e-05       1.051764069682e-02 
       1.660572938097e-05       1.132639105520e-02 
       1.793045413791e-05       1.219733231417e-02 
       1.936085902737e-05       1.313524224381e-02 
       2.090537469909e-05       1.414527121894e-02 
       2.257310435923e-05       1.523296272192e-02 
       2.437387742372e-05       1.640429444530e-02 
       2.631830745176e-05       1.766569582178e-02 
       2.841785470091e-05       1.902408601793e-02 
       3.068489367268e-05       2.048692970592e-02 
       3.313278604643e-05       2.206225513594e-02 
       3.577595943165e-05       2.375870704909e-02 
       3.862999240274e-05       2.558560727479e-02 
       4.171170631739e-05       2.755297763344e-02 
       4.503926445983e-05       2.967161927315e-02 
       4.863227909323e-05       3.195316450832e-02 
       5.251192705226e-05       3.441013519285e-02 
       5.670107455699e-05       3.705601722527e-02 
       6.122441198393e-05       3.990533413564e-02 
       6.610859938837e-05       4.297372168204e-02 
       7.138242363583e-05       4.627802141689e-02 
       7.707696806873e-05       4.983636194160e-02 
       8.322579570814e-05       5.366826847232e-02 
       8.986514707061e-05       5.779476394570e-02 
       9.703415376577e-05       6.223848243885e-02 
       1.047750691338e-04       6.702379865641e-02 
       1.131335172818e-04       7.217695153381e-02 
       1.221587619877e-04       7.772619073573e-02 
       1.319039970550e-04       8.370193432377e-02 
       1.424266598317e-04       9.013692507547e-02 
       1.537887697396e-04       9.706641242571e-02 
       1.660572938097e-04       1.045283354272e-01 
       1.793045413791e-04       1.125635349068e-01 
       1.936085902737e-04       1.212159614968e-01 
       2.090537469909e-04       1.305329132715e-01 
       2.257310435923e-04       1.405652846215e-01 
       2.437387742372e-04       1.513678302540e-01 
       2.631830745176e-04       1.629994504871e-01 
       2.841785470091e-04       1.755234921225e-01 
       3.068489367268e-04       1.890080670413e-01 
       3.313278604643e-04       2.035264002436e-01 
       3.577595943165e-04       2.191571803681e-01 
       3.862999240274e-04       2.359849437592e-01 
       4.171170631739e-04       2.541004741539e-01 
       4.503926445983e-04       2.736012080278e-01 
       4.863227909323e-04       2.945916790965e-01 
       5.251192705226e-04       3.171839525183e-01 
       5.670107455699e-04       3.414980764002e-01 
       6.122441198393e-04       3.676625413101e-01 
       6.610859938837e-04       3.958147252304e-01 
       7.138242363583e-04       4.261013284907e-01 
       7.707696806873e-04       4.586787792352e-01 
       8.322579570814e-04       4.937136001367e-01 
       8.986514707061e-04       5.313826801402e-01 
       9.703415376577e-04       5.718734972158e-01 
       1.047750691338e-03       6.153841629505e-01 
       1.131335172818e-03       6.621233239466e-01 
       1.221587619877e-03       7.123098220412e-01 
       1.319039970550e-03       7.661720584264e-01 
       1.424266598317e-03       8.239546297733e-01 
       1.537887697396e-03       8.859011173466e-01 
       1.660572938097e-03       9.522588006424e-01 
       1.793045413791e-03       1.023280099819e+00 
       1.936085902737e-03       1.099216304579e+00 
       2.090537469909e-03       1.180312990453e+00 
       2.257310435923e-03       1.266804115847e+00 
       2.437387742372e-03       1.358904853402e+00 
       2.631830745176e-03       1.456802683156e+00 
       2.841785470091e-03       1.560646890521e+00 
       3.068489367268e-03       1.670536062498e+00 
       3.313278604643e-03       1.786503852158e+00 
       3.577595943165e-03       1.908502930786e+00 
       3.862999240274e-03       2.036387730707e+00 
       4.171170631739e-03       2.169896178715e+00 
       4.503926445983e-03       2.308631878991e+00 
       4.863227909323e-03       2.452047290958e+00 
       5.251192705226e-03       2.599430628082e+00 
       5.670107455699e-03       2.749896931806e+00 
       6.122441198393e-03       2.902386513376e+00 
       6.610859938837e-03       3.055668673549e+00 
       7.138242363583e-03       3.208356461530e+00 
       7.707696806873e-03       3.358923892779e+00 
       8.322579570814e-03       3.505725594981e+00 
       8.986514707061e-03       3.647009640017e+00 
       9.703415376577e-03       3.780923304282e+00 
       1.047750691338e-02       3.905490039379e+00 
       1.131335172818e-02       4.018587641240e+00 
       1.221587619877e-02       4.117901582603e+00 
       1.319039970550e-02       4.200915363519e+00 
       1.424266598317e-02       4.264942374946e+00 
       1.537887697392e-02       4.307216699157e+00 
       1.660572938023e-02       4.325061930385e+00 
       1.793045412706e-02       4.316057725617e+00 
       1.936085890181e-02       4.278228113650e+00 
       2.090537352463e-02       4.210203116774e+00 
       2.257309535333e-02       4.111419850351e+00 
       2.437382002918e-02       3.982417275060e+00 
       2.631799944462e-02       3.825170651646e+00 
       2.841644545389e-02       3.643284654977e+00 
       3.067933355377e-02       3.442197364756e+00 
       3.311368470740e-02       3.229237959487e+00 
       3.571840443502e-02       3.013501744782e+00 
       3.847720348444e-02       2.805286229128e+00 
       4.135335538431e-02       2.614405785107e+00 
       4.429361667738e-02       2.448128246928e+00 
       4.724366439141e-02       2.309237746760e+00 
       5.016480835311e-02       2.196107167313e+00 
       5.303989620246e-02       2.104370130708e+00 
       5.586870669566e-02       2.028466210673e+00 
       5.866042680613e-02       1.963152374173e+00 
       6.142798932958e-02       1.903781224795e+00 
       6.418496440164e-02       1.846479343364e+00 
       6.694418833788e-02       1.788195626127e+00 
       6.971731106057e-02       1.726715875635e+00 
       7.251476155766e-02       1.660661218508e+00 
       7.534587671527e-02       1.589469161242e+00 
       7.821907666265e-02       1.513437497352e+00 
       8.114203772912e-02       1.433570804290e+00 
       8.412184535029e-02       1.351494881992e+00 
       8.716512279304e-02       1.269271730542e+00 
       9.027813695930e-02       1.189192626593e+00 
       9.346688431697e-02       1.113502991518e+00 
       9.673716028276e-02       1.044177999555e+00 
       1.000946150830e-01       9.827080037413e-01 
       1.035447986537e-01       9.299377295288e-01 
       1.070931966762e-01       8.859601431262e-01 
       1.107452594425e-01       8.500729172137e-01 
       1.145064249153e-01       8.208034137110e-01 
       1.183821370918e-01       7.960253906326e-01 
       1.223778605862e-01       7.731453302084e-01 
       1.264990921987e-01       7.494524060285e-01 
       1.307513701367e-01       7.225568731820e-01 
       1.351402814784e-01       6.909085860117e-01 
       1.396714684203e-01       6.541795602780e-01 
       1.443506338194e-01       6.134269605701e-01 
       1.491835465229e-01       5.708675167666e-01 
       1.541760469708e-01       5.293651175740e-01 
       1.593340535561e-01       4.917113055709e-01 
       1.646635702297e-01       4.599201954748e-01 
       1.701706958456e-01       4.347277758127e-01 
       1.758616357459e-01       4.154079699947e-01 
       1.817427160982e-01       3.999370104315e-01 
       1.878204015065e-01       3.856824057574e-01 
       1.941013164283e-01       3.698097965454e-01 
       2.005922709503e-01       3.505453141653e-01 
       2.073002914972e-01       3.280438641380e-01 
       2.142326570816e-01       3.042144847155e-01 
       2.213969417533e-01       2.816113741468e-01 
       2.288010639706e-01       2.622563307128e-01 
       2.364533437147e-01       2.469610370564e-01 
       2.443625682930e-01       2.350133245839e-01 
       2.525380679504e-01       2.244178451633e-01 
       2.609898026346e-01       2.130955121967e-01 
       2.697284615565e-01       2.001020971066e-01 
       2.787655775689e-01       1.860199254174e-01 
       2.881136588829e-01       1.725165991264e-01 
       2.977863412677e-01       1.610657685249e-01 
       3.077985646929e-01       1.517606338749e-01 
       3.181667794071e-01       1.435596486508e-01 
       3.289091877812e-01       1.351819740401e-01 
       3.400460299658e-01       1.261644799644e-01 
       3.515999236474e-01       1.172020139357e-01 
       3.635962711085e-01       1.091764814150e-01 
       3.760637506334e-01       1.023091259822e-01 
       3.890349143879e-01       9.593755683829e-02 
       4.025469216825e-01       8.950756285221e-02 
       4.166424456376e-01       8.311173462912e-02 
       4.313708035863e-01       7.721530281779e-02 
       4.467893782977e-01       7.190047398984e-02 
       4.629654199664e-01       6.686873128575e-02 
       4.799783501994e-01       6.191760960928e-02 
       4.979227319373e-01       5.722218592625e-02 
       5.169121270864e-01       5.290282410315e-02 
       5.370841404489e-01       4.876972582789e-02 
       5.586070464571e-01       4.479083322367e-02 
       5.816885094930e-01       4.105181646213e-02 
       6.065870144995e-01       3.748983782937e-02 
       6.336266468475e-01       3.407631260855e-02 
       6.632156059511e-01       3.083461147737e-02 
       6.958678639263e-01       2.772830108701e-02 
       7.322247985589e-01       2.476703928260e-02 
       7.730680195114e-01       2.193955642901e-02 
       8.193049553677e-01       1.925610365518e-02 
       8.718988016039e-01       1.672928255196e-02 
       9.317218031082e-01       1.438416371688e-02 
       9.993660908989e-01       1.225060804916e-02 
       1.075037110174e+00       1.035261285157e-02 
       1.158653485707e+00       8.699679276710e-03 
       1.250099157308e+00       7.284571063930e-03 
       1.349432401273e+00       6.085453549048e-03 
       1.456947457397e+00       5.075708456591e-03 
       1.573135111331e+00       4.228297851061e-03 
       1.698621895592e+00       3.518532828977e-03 
       1.834127512934e+00       2.924961607352e-03 
       1.980444934528e+00       2.429147661826e-03 
       2.138435191726e+00       2.015489958841e-03 
       2.309029199186e+00       1.670758982291e-03 
       2.493232377687e+00       1.383785484506e-03 
       2.692130395285e+00       1.145118195141e-03 
       2.906895534573e+00       9.468451428090e-04 
       3.138793597714e+00       7.822798555423e-04 
       3.389191366484e+00       6.458134213407e-04 
       3.659564657905e+00       5.327578815571e-04 
       3.951507022538e+00       4.391737967615e-04 
       4.266739136701e+00       3.617783708656e-04 
       4.607118943941e+00       2.978152885600e-04 
       4.974652605557e+00       2.450028287364e-04 
       5.371506324689e+00       2.014253782942e-04 
       5.800019113685e+00       1.654955583640e-04 
       6.262716579983e+00       1.358930878433e-04 
       6.762325811764e+00       1.115194133465e-04 
       7.301791451110e+00       9.146520098247e-05 
       7.884293049406e+00       7.497600728474e-05 
       8.513263807261e+00       6.142577313215e-05 
       9.192410809424e+00       5.029763499786e-05 
       9.925736873929e+00       4.116467564418e-05 
       1.071756414427e+01       3.367257179792e-05 
       1.157255956364e+01       2.753060685533e-05 
       1.249576238137e+01       2.249807259620e-05 
       1.349261385375e+01       1.837651923272e-05 
       1.456898931416e+01       1.500300679523e-05 
       1.573123280165e+01       1.224304648429e-05 
       1.698619445202e+01       9.986019039643e-06 
       1.834127087176e+01       8.141313536891e-06 
       1.980444873285e+01       6.634145620988e-06 
       2.138435184532e+01       5.403298127904e-06 
       2.309029198506e+01       4.398539106433e-06 
       2.493232377636e+01       3.578652054977e-06 
       2.692130395282e+01       2.909866991820e-06 
       2.906895534573e+01       2.364495896215e-06 
       3.138793597714e+01       1.919940987519e-06 
       3.389191366484e+01       1.557639467635e-06 
       3.659564657905e+01       1.262442177035e-06 
       3.951507022538e+01       1.021962993232e-06 
       4.266739136701e+01       8.260811551328e-07 
       4.607118943941e+01       6.665315545090e-07 
       4.974652605557e+01       5.365748799167e-07 
       5.371506324689e+01       4.307193943567e-07 
       5.800019113685e+01       3.444644725973e-07 
       6.262716579983e+01       2.741797295139e-07 
       6.762325811764e+01       2.168987088385e-07 
