# Matter power spectrum P(k) at redshift z=0
# for k=1.04775e-05 to 67.6233 h/Mpc,
# number of wavenumbers equal to 246
#    1:k (h/Mpc)              2:P (Mpc/h)^3        
       1.047750691338e-05       5.020964806749e+01 
       1.131335172818e-05       5.407048206554e+01 
       1.221587619877e-05       5.822819064195e+01 
       1.319039970550e-05       6.270562589680e+01 
       1.424266598317e-05       6.752731788102e+01 
       1.537887697396e-05       7.271977200258e+01 
       1.660572938097e-05       7.831147241542e+01 
       1.793045413791e-05       8.433311815128e+01 
       1.936085902737e-05       9.081778242446e+01 
       2.090537469909e-05       9.780108061338e+01 
       2.257310435923e-05       1.053213197032e+02 
       2.437387742372e-05       1.134197377001e+02 
       2.631830745176e-05       1.221408202816e+02 
       2.841785470091e-05       1.315324720916e+02 
       3.068489367268e-05       1.416462093730e+02 
       3.313278604643e-05       1.525374500691e+02 
       3.577595943165e-05       1.642660687078e+02 
       3.862999240274e-05       1.768963504868e+02 
       4.171170631739e-05       1.904975992460e+02 
       4.503926445983e-05       2.051444490305e+02 
       4.863227909323e-05       2.209171463751e+02 
       5.251192705226e-05       2.379022222313e+02 
       5.670107455699e-05       2.561927925631e+02 
       6.122441198393e-05       2.758890441791e+02 
       6.610859938837e-05       2.970989225466e+02 
       7.138242363583e-05       3.199385558199e+02 
       7.707696806873e-05       3.445329780876e+02 
       8.322579570814e-05       3.710167315927e+02 
       8.986514707061e-05       3.995346440952e+02 
       9.703415376577e-05       4.302425403882e+02 
       1.047750691338e-04       4.633080762972e+02 
       1.131335172818e-04       4.989116267505e+02 
       1.221587619877e-04       5.372471946558e+02 
       1.319039970550e-04       5.785234124629e+02 
       1.424266598317e-04       6.229645930976e+02 
       1.537887697396e-04       6.708118484945e+02 
       1.660572938097e-04       7.223242660213e+02 
       1.793045413791e-04       7.777801554321e+02 
       1.936085902737e-04       8.374783607321e+02 
       2.090537469909e-04       9.017396264481e+02 
       2.257310435923e-04       9.709080260133e+02 
       2.437387742372e-04       1.045352448642e+03 
       2.631830745176e-04       1.125468122833e+03 
       2.841785470091e-04       1.211678179507e+03 
       3.068489367268e-04       1.304435249086e+03 
       3.313278604643e-04       1.404223052536e+03 
       3.577595943165e-04       1.511558013383e+03 
       3.862999240274e-04       1.626990836412e+03 
       4.171170631739e-04       1.751108027359e+03 
       4.503926445983e-04       1.884533381331e+03 
       4.863227909323e-04       2.027929376452e+03 
       5.251192705226e-04       2.181998446345e+03 
       5.670107455699e-04       2.347484100828e+03 
       6.122441198393e-04       2.525171869299e+03 
       6.610859938837e-04       2.715889981356e+03 
       7.138242363583e-04       2.920509686035e+03 
       7.707696806873e-04       3.139945097640e+03 
       8.322579570814e-04       3.375152334304e+03 
       8.986514707061e-04       3.627127828119e+03 
       9.703415376577e-04       3.896905449875e+03 
       1.047750691338e-03       4.185552170784e+03 
       1.131335172818e-03       4.494162426569e+03 
       1.221587619877e-03       4.823850702380e+03 
       1.319039970550e-03       5.175742739257e+03 
       1.424266598317e-03       5.551019592102e+03 
       1.537887697396e-03       5.950788335294e+03 
       1.660572938097e-03       6.376123045986e+03 
       1.793045413791e-03       6.828073895160e+03 
       1.936085902737e-03       7.307625374148e+03 
       2.090537469909e-03       7.815671858085e+03 
       2.257310435923e-03       8.352990367368e+03 
       2.437387742372e-03       8.920211054954e+03 
       2.631830745176e-03       9.517783058605e+03 
       2.841785470091e-03       1.014593703254e+04 
       3.068489367268e-03       1.080464505203e+04 
       3.313278604643e-03       1.149357458876e+04 
       3.577595943165e-03       1.221203619983e+04 
       3.862999240274e-03       1.295892537443e+04 
       4.171170631739e-03       1.373265998461e+04 
       4.503926445983e-03       1.453111832918e+04 
       4.863227909323e-03       1.535154923791e+04 
       5.251192705226e-03       1.619063242720e+04 
       5.670107455699e-03       1.704431221825e+04 
       6.122441198393e-03       1.790756126439e+04 
       6.610859938837e-03       1.877460507595e+04 
       7.138242363583e-03       1.963872820020e+04 
       7.707696806873e-03       2.049215458652e+04 
       8.322579570814e-03       2.132609753035e+04 
       8.986514707061e-03       2.213055341698e+04 
       9.703415376577e-03       2.289442038230e+04 
       1.047750691338e-02       2.360545707911e+04 
       1.131335172818e-02       2.425022752423e+04 
       1.221587619877e-02       2.481419626589e+04 
       1.319039970550e-02       2.528228177992e+04 
       1.424266598317e-02       2.563806412624e+04 
       1.537887697392e-02       2.586599444737e+04 
       1.660572938023e-02       2.595021131308e+04 
       1.793045412706e-02       2.587611071559e+04 
       1.936085890181e-02       2.563225305594e+04 
       2.090537352463e-02       2.520929249721e+04 
       2.257309535333e-02       2.460434362090e+04 
       2.437382002918e-02       2.382078203527e+04 
       2.631799944462e-02       2.287025472748e+04 
       2.841644545389e-02       2.177438549211e+04 
       3.067933355377e-02       2.056536372720e+04 
       3.311368470740e-02       1.928715989623e+04 
       3.571840443502e-02       1.799381955102e+04 
       3.847720348444e-02       1.674675986109e+04 
       4.135335538431e-02       1.560449668876e+04 
       4.429361667738e-02       1.461027439265e+04 
       4.724366439141e-02       1.378047698919e+04 
       5.016480835311e-02       1.310499694026e+04 
       5.303989620246e-02       1.255714891546e+04 
       5.586870669566e-02       1.210422365082e+04 
       5.866042680613e-02       1.171465968340e+04 
       6.142798932958e-02       1.136012747939e+04 
       6.418496440164e-02       1.101861269482e+04 
       6.694418833788e-02       1.067067943683e+04 
       6.971731106057e-02       1.030364583893e+04 
       7.251476155766e-02       9.909050594004e+03 
       7.534587671527e-02       9.483596531331e+03 
       7.821907666265e-02       9.029305738335e+03 
       8.114203772912e-02       8.552117423621e+03 
       8.412184535029e-02       8.061940397314e+03 
       8.716512279304e-02       7.570766057622e+03 
       9.027813695930e-02       7.092456410578e+03 
       9.346688431697e-02       6.640512424442e+03 
       9.673716028276e-02       6.226706997277e+03 
       1.000946150830e-01       5.859932553786e+03 
       1.035447986537e-01       5.545238558048e+03 
       1.070931966762e-01       5.283148718367e+03 
       1.107452594425e-01       5.069447296632e+03 
       1.145064249153e-01       4.895255962101e+03 
       1.183821370918e-01       4.747819434142e+03 
       1.223778605862e-01       4.611715162268e+03 
       1.264990921987e-01       4.470598827638e+03 
       1.307513701367e-01       4.310268562236e+03 
       1.351402814784e-01       4.121376014554e+03 
       1.396714684203e-01       3.902045173169e+03 
       1.443506338194e-01       3.658643449635e+03 
       1.491835465229e-01       3.404460421356e+03 
       1.541760469708e-01       3.156623284855e+03 
       1.593340535561e-01       2.931913593466e+03 
       1.646635702297e-01       2.742332782426e+03 
       1.701706958456e-01       2.592219220457e+03 
       1.758616357459e-01       2.477194563107e+03 
       1.817427160982e-01       2.385139763351e+03 
       1.878204015065e-01       2.300320957408e+03 
       1.941013164283e-01       2.205754029033e+03 
       2.005922709503e-01       2.090817867999e+03 
       2.073002914972e-01       1.956439406324e+03 
       2.142326570816e-01       1.814154405894e+03 
       2.213969417533e-01       1.679250510172e+03 
       2.288010639706e-01       1.563821891542e+03 
       2.364533437147e-01       1.472644000525e+03 
       2.443625682930e-01       1.401486590667e+03 
       2.525380679504e-01       1.338393313206e+03 
       2.609898026346e-01       1.270871153560e+03 
       2.697284615565e-01       1.193324977465e+03 
       2.787655775689e-01       1.109301150722e+03 
       2.881136588829e-01       1.028733977261e+03 
       2.977863412677e-01       9.604456926370e+02 
       3.077985646929e-01       9.049858449157e+02 
       3.181667794071e-01       8.561047299254e+02 
       3.289091877812e-01       8.061445420511e+02 
       3.400460299658e-01       7.523481728304e+02 
       3.515999236474e-01       6.988810488274e+02 
       3.635962711085e-01       6.510216094864e+02 
       3.760637506334e-01       6.100831654003e+02 
       3.890349143879e-01       5.720909652756e+02 
       4.025469216825e-01       5.337382356651e+02 
       4.166424456376e-01       4.955846190549e+02 
       4.313708035863e-01       4.604274820345e+02 
       4.467893782977e-01       4.287312084142e+02 
       4.629654199664e-01       3.987284819191e+02 
       4.799783501994e-01       3.691954831924e+02 
       4.979227319373e-01       3.411950172947e+02 
       5.169121270864e-01       3.154358493146e+02 
       5.370841404489e-01       2.907877095683e+02 
       5.586070464571e-01       2.670587459396e+02 
       5.816885094930e-01       2.447610340563e+02 
       6.065870144995e-01       2.235212108844e+02 
       6.336266468475e-01       2.031625854606e+02 
       6.632156059511e-01       1.838304268071e+02 
       6.958678639263e-01       1.653051084063e+02 
       7.322247985589e-01       1.476452270103e+02 
       7.730680195114e-01       1.307824989091e+02 
       8.193049553677e-01       1.147792951350e+02 
       8.718988016039e-01       9.970971393814e+01 
       9.317218031082e-01       8.572298235179e+01 
       9.993660908989e-01       7.299838394627e+01 
       1.075037110174e+00       6.167811725098e+01 
       1.158653485707e+00       5.181967482596e+01 
       1.250099157308e+00       4.337872702403e+01 
       1.349432401273e+00       3.622612590943e+01 
       1.456947457397e+00       3.020284823852e+01 
       1.573135111331e+00       2.514714494584e+01 
       1.698621895592e+00       2.091232136132e+01 
       1.834127512934e+00       1.737022957142e+01 
       1.980444934528e+00       1.441096292501e+01 
       2.138435191726e+00       1.194142920493e+01 
       2.309029199186e+00       9.882654293302e+00 
       2.493232377687e+00       8.168174501304e+00 
       2.692130395285e+00       6.741533358567e+00 
       2.906895534573e+00       5.555437217894e+00 
       3.138793597714e+00       4.570144883906e+00 
       3.389191366484e+00       3.752183989849e+00 
       3.659564657905e+00       3.073530817448e+00 
       3.951507022538e+00       2.510695054342e+00 
       4.266739136701e+00       2.044294119937e+00 
       4.607118943941e+00       1.657722587232e+00 
       4.974652605557e+00       1.337572954971e+00 
       5.371506324689e+00       1.072439840034e+00 
       5.800019113685e+00       8.530088748856e-01 
       6.262716579983e+00       6.715602382667e-01 
       6.762325811764e+00       5.217714589267e-01 
       7.301791451110e+00       3.984758952404e-01 
       7.884293049406e+00       2.974966285327e-01 
       8.513263807261e+00       2.154790657123e-01 
       9.192410809424e+00       1.497650615121e-01 
       9.925736873929e+00       9.823465605375e-02 
       1.071756414427e+01       5.918764519164e-02 
       1.157255956364e+01       3.119144819623e-02 
       1.249576238137e+01       1.293016445951e-02 
       1.349261385375e+01       3.047841463950e-03 
       1.456898931416e+01       4.230931342176e-06 
       1.573123280165e+01       1.977993013081e-03 
       1.698619445202e+01       6.867216617008e-03 
       1.834127087176e+01       1.243287308070e-02 
       1.980444873285e+01       1.660850500577e-02 
       2.138435184532e+01       1.793752740026e-02 
       2.309029198506e+01       1.599362967102e-02 
       2.493232377636e+01       1.156266115774e-02 
       2.692130395282e+01       6.356733680296e-03 
       2.906895534573e+01       2.233146099214e-03 
       3.138793597714e+01       2.395971724471e-04 
       3.389191366484e+01       1.007086524981e-04 
       3.659564657905e+01       6.235417179758e-04 
       3.951507022538e+01       7.732682714040e-04 
       4.266739136701e+01       4.309521820645e-04 
       4.607118943941e+01       8.643092892529e-05 
       4.974652605557e+01       1.125186644316e-08 
       5.371506324689e+01       1.081693043456e-05 
       5.800019113685e+01       6.431643971798e-07 
       6.262716579983e+01       8.000267890524e-06 
       6.762325811764e+01       1.024571679827e-05 
