# Matter power spectrum P(k) at redshift z=99
# for k=1.04775e-05 to 134.926 h/Mpc,
# number of wavenumbers equal to 255
#    1:k (h/Mpc)              2:P (Mpc/h)^3        
       1.047750691338e-05       7.261927095487e-03 
       1.131335172818e-05       7.820332150972e-03 
       1.221587619877e-05       8.421675382564e-03 
       1.319039970550e-05       9.069257738255e-03 
       1.424266598317e-05       9.766636451397e-03 
       1.537887697396e-05       1.051763973670e-02 
       1.660572938097e-05       1.132639250783e-02 
       1.793045413791e-05       1.219733201543e-02 
       1.936085902737e-05       1.313524187240e-02 
       2.090537469909e-05       1.414527085017e-02 
       2.257310435923e-05       1.523296544535e-02 
       2.437387742372e-05       1.640429654687e-02 
       2.631830745176e-05       1.766569603337e-02 
       2.841785470091e-05       1.902408711218e-02 
       3.068489367268e-05       2.048692967504e-02 
       3.313278604643e-05       2.206225467613e-02 
       3.577595943165e-05       2.375870883922e-02 
       3.862999240274e-05       2.558560669898e-02 
       4.171170631739e-05       2.755297672589e-02 
       4.503926445983e-05       2.967161933501e-02 
       4.863227909323e-05       3.195316455751e-02 
       5.251192705226e-05       3.441013466237e-02 
       5.670107455699e-05       3.705601741812e-02 
       6.122441198393e-05       3.990533412954e-02 
       6.610859938837e-05       4.297372242659e-02 
       7.138242363583e-05       4.627802054987e-02 
       7.707696806873e-05       4.983636160035e-02 
       8.322579570814e-05       5.366826787092e-02 
       8.986514707061e-05       5.779476319904e-02 
       9.703415376577e-05       6.223848222020e-02 
       1.047750691338e-04       6.702379825219e-02 
       1.131335172818e-04       7.217695031293e-02 
       1.221587619877e-04       7.772619030592e-02 
       1.319039970550e-04       8.370193380288e-02 
       1.424266598317e-04       9.013692506935e-02 
       1.537887697396e-04       9.706641130688e-02 
       1.660572938097e-04       1.045283343142e-01 
       1.793045413791e-04       1.125635329219e-01 
       1.936085902737e-04       1.212159592346e-01 
       2.090537469909e-04       1.305329107475e-01 
       2.257310435923e-04       1.405652819403e-01 
       2.437387742372e-04       1.513678275122e-01 
       2.631830745176e-04       1.629994475183e-01 
       2.841785470091e-04       1.755234890532e-01 
       3.068489367268e-04       1.890080645357e-01 
       3.313278604643e-04       2.035263977493e-01 
       3.577595943165e-04       2.191571778111e-01 
       3.862999240274e-04       2.359849423332e-01 
       4.171170631739e-04       2.541004713078e-01 
       4.503926445983e-04       2.736012061241e-01 
       4.863227909323e-04       2.945916774730e-01 
       5.251192705226e-04       3.171839507956e-01 
       5.670107455699e-04       3.414980769205e-01 
       6.122441198393e-04       3.676625416403e-01 
       6.610859938837e-04       3.958147272972e-01 
       7.138242363583e-04       4.261013332176e-01 
       7.707696806873e-04       4.586787880964e-01 
       8.322579570814e-04       4.937136112938e-01 
       8.986514707061e-04       5.313826962194e-01 
       9.703415376577e-04       5.718735176921e-01 
       1.047750691338e-03       6.153841926362e-01 
       1.131335172818e-03       6.621233623227e-01 
       1.221587619877e-03       7.123098743744e-01 
       1.319039970550e-03       7.661721263858e-01 
       1.424266598317e-03       8.239547181338e-01 
       1.537887697396e-03       8.859012282801e-01 
       1.660572938097e-03       9.522589495664e-01 
       1.793045413791e-03       1.023280284718e+00 
       1.936085902737e-03       1.099216542096e+00 
       2.090537469909e-03       1.180313285012e+00 
       2.257310435923e-03       1.266804486764e+00 
       2.437387742372e-03       1.358905328393e+00 
       2.631830745176e-03       1.456803285847e+00 
       2.841785470091e-03       1.560647662890e+00 
       3.068489367268e-03       1.670537010373e+00 
       3.313278604643e-03       1.786505039363e+00 
       3.577595943165e-03       1.908504409750e+00 
       3.862999240274e-03       2.036389468272e+00 
       4.171170631739e-03       2.169898252166e+00 
       4.503926445983e-03       2.308634491143e+00 
       4.863227909323e-03       2.452050673710e+00 
       5.251192705226e-03       2.599434679766e+00 
       5.670107455699e-03       2.749901124722e+00 
       6.122441198393e-03       2.902390056119e+00 
       6.610859938837e-03       3.055671267043e+00 
       7.138242363583e-03       3.208360119354e+00 
       7.707696806873e-03       3.358926647005e+00 
       8.322579570814e-03       3.505726884462e+00 
       8.986514707061e-03       3.647012431189e+00 
       9.703415376577e-03       3.780926171174e+00 
       1.047750691338e-02       3.905492870718e+00 
       1.131335172818e-02       4.018589813933e+00 
       1.221587619877e-02       4.117902874139e+00 
       1.319039970550e-02       4.200917682737e+00 
       1.424266598317e-02       4.264943717820e+00 
       1.537887697392e-02       4.307219644494e+00 
       1.660572938023e-02       4.325062427962e+00 
       1.793045412706e-02       4.316060356757e+00 
       1.936085890181e-02       4.278228890267e+00 
       2.090537352463e-02       4.210204423494e+00 
       2.257309535333e-02       4.111418689404e+00 
       2.437382002918e-02       3.982420866577e+00 
       2.631799944462e-02       3.825168602435e+00 
       2.841644545389e-02       3.643282149108e+00 
       3.067933355377e-02       3.442198590970e+00 
       3.311368470740e-02       3.229241464308e+00 
       3.571840443502e-02       3.013516181956e+00 
       3.847720348444e-02       2.805283770655e+00 
       4.135335538431e-02       2.614410472190e+00 
       4.429361667738e-02       2.448131963973e+00 
       4.724366439141e-02       2.309240401391e+00 
       5.016480835311e-02       2.196114916927e+00 
       5.303989620246e-02       2.104369545242e+00 
       5.586870669566e-02       2.028462237264e+00 
       5.866042680613e-02       1.963154905515e+00 
       6.142798932958e-02       1.903779242635e+00 
       6.418496440164e-02       1.846478671305e+00 
       6.694418833788e-02       1.788196846646e+00 
       6.971731106057e-02       1.726714936923e+00 
       7.251476155766e-02       1.660653524104e+00 
       7.534587671527e-02       1.589468831454e+00 
       7.821907666265e-02       1.513435383066e+00 
       8.114203772912e-02       1.433567380947e+00 
       8.412184535029e-02       1.351490667248e+00 
       8.716512279304e-02       1.269271923057e+00 
       9.027813695930e-02       1.189191126369e+00 
       9.346688431697e-02       1.113498741051e+00 
       9.673716028276e-02       1.044171936369e+00 
       1.000946150830e-01       9.827032033830e-01 
       1.035447986537e-01       9.299380795935e-01 
       1.070931966762e-01       8.859551561424e-01 
       1.107452594425e-01       8.500674459887e-01 
       1.145064249153e-01       8.207993228959e-01 
       1.183821370918e-01       7.960198612245e-01 
       1.223778605862e-01       7.731408763483e-01 
       1.264990921987e-01       7.494471341222e-01 
       1.307513701367e-01       7.225518779660e-01 
       1.351402814784e-01       6.909034655191e-01 
       1.396714684203e-01       6.541758094393e-01 
       1.443506338194e-01       6.134207522653e-01 
       1.491835465229e-01       5.708610307608e-01 
       1.541760469708e-01       5.293559029182e-01 
       1.593340535561e-01       4.917019844790e-01 
       1.646635702297e-01       4.599106039886e-01 
       1.701706958456e-01       4.347179982053e-01 
       1.758616357459e-01       4.153972683255e-01 
       1.817427160982e-01       3.999249601791e-01 
       1.878204015065e-01       3.856737404961e-01 
       1.941013164283e-01       3.697992387241e-01 
       2.005922709503e-01       3.505352347613e-01 
       2.073002914972e-01       3.280313378651e-01 
       2.142326570816e-01       3.041986698792e-01 
       2.213969417533e-01       2.815955598121e-01 
       2.288010639706e-01       2.622398987594e-01 
       2.364533437147e-01       2.469440519087e-01 
       2.443625682930e-01       2.349941008421e-01 
       2.525380679504e-01       2.244003866353e-01 
       2.609898026346e-01       2.130745758461e-01 
       2.697284615565e-01       2.000805008984e-01 
       2.787655775689e-01       1.859964931416e-01 
       2.881136588829e-01       1.724922637438e-01 
       2.977863412677e-01       1.610401512160e-01 
       3.077985646929e-01       1.517334739092e-01 
       3.181667794071e-01       1.435306035712e-01 
       3.289091877812e-01       1.351517984874e-01 
       3.400460299658e-01       1.261327268270e-01 
       3.515999236474e-01       1.171683127039e-01 
       3.635962711085e-01       1.091415364305e-01 
       3.760637506334e-01       1.022723284672e-01 
       3.890349143879e-01       9.589871683793e-02 
       4.025469216825e-01       8.946666685881e-02 
       4.166424456376e-01       8.306838488909e-02 
       4.313708035863e-01       7.716997572945e-02 
       4.467893782977e-01       7.185263866523e-02 
       4.629654199664e-01       6.681857767089e-02 
       4.799783501994e-01       6.186431085660e-02 
       4.979227319373e-01       5.716608957403e-02 
       5.169121270864e-01       5.284357819619e-02 
       5.370841404489e-01       4.870729317689e-02 
       5.586070464571e-01       4.472476853679e-02 
       5.816885094930e-01       4.098196327799e-02 
       6.065870144995e-01       3.741592156105e-02 
       6.336266468475e-01       3.399772204724e-02 
       6.632156059511e-01       3.075083255222e-02 
       6.958678639263e-01       2.763881390549e-02 
       7.322247985589e-01       2.467129800658e-02 
       7.730680195114e-01       2.183661072930e-02 
       8.193049553677e-01       1.914493116602e-02 
       8.718988016039e-01       1.660844905857e-02 
       9.317218031082e-01       1.425271737938e-02 
       9.993660908989e-01       1.210681857927e-02 
       1.075037110174e+00       1.019488800058e-02 
       1.158653485707e+00       8.526792132466e-03 
       1.250099157308e+00       7.095141512430e-03 
       1.349432401273e+00       5.877945014637e-03 
       1.456947457397e+00       4.849590562818e-03 
       1.573135111331e+00       3.982164324493e-03 
       1.698621895592e+00       3.251731789348e-03 
       1.834127512934e+00       2.636781187010e-03 
       1.980444934528e+00       2.119405948930e-03 
       2.138435191726e+00       1.684544518513e-03 
       2.309029199186e+00       1.319555056281e-03 
       2.493232377687e+00       1.013957937870e-03 
       2.692130395285e+00       7.597513555452e-04 
       2.906895534573e+00       5.498976328068e-04 
       3.138793597714e+00       3.798153563565e-04 
       3.389191366484e+00       2.447761970130e-04 
       3.659564657905e+00       1.423044006196e-04 
       3.951507022538e+00       6.943596580523e-05 
       4.266739136701e+00       2.386152111159e-05 
       4.607118943941e+00       2.614151947975e-06 
       4.974652605557e+00       1.979705712442e-06 
       5.371506324689e+00       1.681753706177e-05 
       5.800019113685e+00       4.048093353223e-05 
       6.262716579983e+00       6.532499203787e-05 
       6.762325811764e+00       8.372879264599e-05 
       7.301791451110e+00       8.920524438236e-05 
       7.884293049406e+00       7.947164386626e-05 
       8.513263807261e+00       5.713820076716e-05 
       9.192410809424e+00       3.017163615805e-05 
       9.925736873929e+00       8.546590951186e-06 
       1.071756414427e+01       4.707876739331e-08 
       1.157255956364e+01       4.720249984133e-06 
       1.249576238137e+01       1.476439885005e-05 
       1.349261385375e+01       1.952361123834e-05 
       1.456898931416e+01       1.399100811502e-05 
       1.573123280165e+01       4.441599923551e-06 
       1.698619445202e+01       3.573379621209e-09 
       1.834127087176e+01       2.500790718856e-06 
       1.980444873285e+01       4.979195041694e-06 
       2.138435184532e+01       2.576701301646e-06 
       2.309029198506e+01       8.300731170934e-08 
       2.493232377636e+01       7.202099938046e-07 
       2.692130395282e+01       1.143826764261e-06 
       2.906895534573e+01       1.659365870903e-07 
       3.138793597714e+01       1.643990009955e-07 
       3.389191366484e+01       3.047177110328e-07 
       3.659564657905e+01       8.989939220691e-10 
       3.951507022538e+01       6.948425374088e-08 
       4.266739136701e+01       4.402922798861e-09 
       4.607118943941e+01       1.954386833276e-08 
       4.974652605557e+01       9.003217682156e-09 
       5.371506324689e+01       4.151771980708e-09 
       5.800019113685e+01       5.469227394273e-09 
       6.262716579983e+01       3.024795848191e-11 
       6.762325811764e+01       2.910365201423e-11 
       7.301791451110e+01       1.402806734642e-09 
       7.884293049406e+01       2.117651341345e-10 
       8.513263807261e+01       1.573068362414e-09 
       9.192410809424e+01       1.695668647578e-09 
       9.925736873929e+01       2.419184572843e-10 
       1.071756414427e+02       8.104416202691e-11 
       1.157255956364e+02       7.016064814195e-12 
       1.249576238137e+02       2.195600049795e-12 
       1.349261385375e+02       2.128479904723e-14 
