# Matter power spectrum P(k) at redshift z=0
# for k=1.04775e-05 to 67.6233 h/Mpc,
# number of wavenumbers equal to 246
#    1:k (h/Mpc)              2:P (Mpc/h)^3        
       1.047750691338e-05       5.020964806754e+01 
       1.131335172818e-05       5.407048206553e+01 
       1.221587619877e-05       5.822819063814e+01 
       1.319039970550e-05       6.270562589681e+01 
       1.424266598317e-05       6.752731788102e+01 
       1.537887697396e-05       7.271977200258e+01 
       1.660572938097e-05       7.831147241542e+01 
       1.793045413791e-05       8.433311815128e+01 
       1.936085902737e-05       9.081778242446e+01 
       2.090537469909e-05       9.780108061340e+01 
       2.257310435923e-05       1.053213197032e+02 
       2.437387742372e-05       1.134197377001e+02 
       2.631830745176e-05       1.221408202816e+02 
       2.841785470091e-05       1.315324720916e+02 
       3.068489367268e-05       1.416462093729e+02 
       3.313278604643e-05       1.525374500691e+02 
       3.577595943165e-05       1.642660687078e+02 
       3.862999240274e-05       1.768963504868e+02 
       4.171170631739e-05       1.904975992460e+02 
       4.503926445983e-05       2.051444490305e+02 
       4.863227909323e-05       2.209171463752e+02 
       5.251192705226e-05       2.379022222314e+02 
       5.670107455699e-05       2.561927925439e+02 
       6.122441198393e-05       2.758890441791e+02 
       6.610859938837e-05       2.970989225465e+02 
       7.138242363583e-05       3.199385558200e+02 
       7.707696806873e-05       3.445329780878e+02 
       8.322579570814e-05       3.710167315928e+02 
       8.986514707061e-05       3.995346440953e+02 
       9.703415376577e-05       4.302425403884e+02 
       1.047750691338e-04       4.633080762974e+02 
       1.131335172818e-04       4.989116267507e+02 
       1.221587619877e-04       5.372471946561e+02 
       1.319039970550e-04       5.785234124633e+02 
       1.424266598317e-04       6.229645930980e+02 
       1.537887697396e-04       6.708118484951e+02 
       1.660572938097e-04       7.223242660219e+02 
       1.793045413791e-04       7.777801554343e+02 
       1.936085902737e-04       8.374783607332e+02 
       2.090537469909e-04       9.017396264494e+02 
       2.257310435923e-04       9.709080260151e+02 
       2.437387742372e-04       1.045352448644e+03 
       2.631830745176e-04       1.125468122836e+03 
       2.841785470091e-04       1.211678179510e+03 
       3.068489367268e-04       1.304435249090e+03 
       3.313278604643e-04       1.404223052541e+03 
       3.577595943165e-04       1.511558013389e+03 
       3.862999240274e-04       1.626990836472e+03 
       4.171170631739e-04       1.751108027369e+03 
       4.503926445983e-04       1.884533381344e+03 
       4.863227909323e-04       2.027929376470e+03 
       5.251192705226e-04       2.181998446366e+03 
       5.670107455699e-04       2.347484100855e+03 
       6.122441198393e-04       2.525171869334e+03 
       6.610859938837e-04       2.715889981398e+03 
       7.138242363583e-04       2.920509686089e+03 
       7.707696806873e-04       3.139945097705e+03 
       8.322579570814e-04       3.375152334390e+03 
       8.986514707061e-04       3.627127828224e+03 
       9.703415376577e-04       3.896905450007e+03 
       1.047750691338e-03       4.185552170974e+03 
       1.131335172818e-03       4.494162426777e+03 
       1.221587619877e-03       4.823850702647e+03 
       1.319039970550e-03       5.175742739608e+03 
       1.424266598317e-03       5.551019592490e+03 
       1.537887697396e-03       5.950788335831e+03 
       1.660572938097e-03       6.376123046745e+03 
       1.793045413791e-03       6.828073896055e+03 
       1.936085902737e-03       7.307625375307e+03 
       2.090537469909e-03       7.815671897526e+03 
       2.257310435923e-03       8.352990369259e+03 
       2.437387742372e-03       8.920211057372e+03 
       2.631830745176e-03       9.517783061680e+03 
       2.841785470091e-03       1.014593703645e+04 
       3.068489367268e-03       1.080464505697e+04 
       3.313278604643e-03       1.149357459501e+04 
       3.577595943165e-03       1.221203620773e+04 
       3.862999240274e-03       1.295892538438e+04 
       4.171170631739e-03       1.373265985289e+04 
       4.503926445983e-03       1.453111834488e+04 
       4.863227909323e-03       1.535154980399e+04 
       5.251192705226e-03       1.619063590746e+04 
       5.670107455699e-03       1.704431255332e+04 
       6.122441198393e-03       1.790755951543e+04 
       6.610859938837e-03       1.877460423623e+04 
       7.138242363583e-03       1.963872471059e+04 
       7.707696806873e-03       2.049215709807e+04 
       8.322579570814e-03       2.132611384174e+04 
       8.986514707061e-03       2.213054909827e+04 
       9.703415376577e-03       2.289445612715e+04 
       1.047750691338e-02       2.360548978840e+04 
       1.131335172818e-02       2.425022833008e+04 
       1.221587619877e-02       2.481423909163e+04 
       1.319039970550e-02       2.528219530592e+04 
       1.424266598317e-02       2.563815162571e+04 
       1.537887697392e-02       2.586607766368e+04 
       1.660572938023e-02       2.595029021185e+04 
       1.793045412706e-02       2.587639162605e+04 
       1.936085890181e-02       2.563223142984e+04 
       2.090537352463e-02       2.520936450167e+04 
       2.257309535333e-02       2.460462738209e+04 
       2.437382002918e-02       2.382085257749e+04 
       2.631799944462e-02       2.287037752291e+04 
       2.841644545389e-02       2.177444217489e+04 
       3.067933355377e-02       2.056553567841e+04 
       3.311368470740e-02       1.928720938472e+04 
       3.571840443502e-02       1.799395516290e+04 
       3.847720348444e-02       1.674682970701e+04 
       4.135335538431e-02       1.560455471019e+04 
       4.429361667738e-02       1.461031433785e+04 
       4.724366439141e-02       1.378046773007e+04 
       5.016480835311e-02       1.310504181022e+04 
       5.303989620246e-02       1.255717954625e+04 
       5.586870669566e-02       1.210424414622e+04 
       5.866042680613e-02       1.171467409540e+04 
       6.142798932958e-02       1.136048608433e+04 
       6.418496440164e-02       1.101860690217e+04 
       6.694418833788e-02       1.067068755359e+04 
       6.971731106057e-02       1.030342574851e+04 
       7.251476155766e-02       9.909055395972e+03 
       7.534587671527e-02       9.483673349254e+03 
       7.821907666265e-02       9.029353889673e+03 
       8.114203772912e-02       8.552165851280e+03 
       8.412184535029e-02       8.061948549488e+03 
       8.716512279304e-02       7.570772983886e+03 
       9.027813695930e-02       7.092491529675e+03 
       9.346688431697e-02       6.640528065496e+03 
       9.673716028276e-02       6.226714711309e+03 
       1.000946150830e-01       5.859944919140e+03 
       1.035447986537e-01       5.545263795931e+03 
       1.070931966762e-01       5.283188926182e+03 
       1.107452594425e-01       5.069458391802e+03 
       1.145064249153e-01       4.895263097668e+03 
       1.183821370918e-01       4.747842257093e+03 
       1.223778605862e-01       4.611733259124e+03 
       1.264990921987e-01       4.470613285899e+03 
       1.307513701367e-01       4.310285257331e+03 
       1.351402814784e-01       4.121397845266e+03 
       1.396714684203e-01       3.902057605564e+03 
       1.443506338194e-01       3.658661261575e+03 
       1.491835465229e-01       3.404472470942e+03 
       1.541760469708e-01       3.156646683542e+03 
       1.593340535561e-01       2.931932675856e+03 
       1.646635702297e-01       2.742354198421e+03 
       1.701706958456e-01       2.592236787393e+03 
       1.758616357459e-01       2.477218276228e+03 
       1.817427160982e-01       2.385157797006e+03 
       1.878204015065e-01       2.300344543866e+03 
       1.941013164283e-01       2.205779002483e+03 
       2.005922709503e-01       2.090841118712e+03 
       2.073002914972e-01       1.956457189056e+03 
       2.142326570816e-01       1.814173535260e+03 
       2.213969417533e-01       1.679275492620e+03 
       2.288010639706e-01       1.563848450227e+03 
       2.364533437147e-01       1.472667207665e+03 
       2.443625682930e-01       1.401512865305e+03 
       2.525380679504e-01       1.338417419926e+03 
       2.609898026346e-01       1.270896200164e+03 
       2.697284615565e-01       1.193355251382e+03 
       2.787655775689e-01       1.109331745072e+03 
       2.881136588829e-01       1.028760977617e+03 
       2.977863412677e-01       9.604728119409e+02 
       3.077985646929e-01       9.050150639218e+02 
       3.181667794071e-01       8.561347276255e+02 
       3.289091877812e-01       8.061767547996e+02 
       3.400460299658e-01       7.523801676578e+02 
       3.515999236474e-01       6.989112946216e+02 
       3.635962711085e-01       6.510557842405e+02 
       3.760637506334e-01       6.101172407268e+02 
       3.890349143879e-01       5.721263570611e+02 
       4.025469216825e-01       5.337746842834e+02 
       4.166424456376e-01       4.956227132725e+02 
       4.313708035863e-01       4.604636224118e+02 
       4.467893782977e-01       4.287678626797e+02 
       4.629654199664e-01       3.987671487804e+02 
       4.799783501994e-01       3.692341720493e+02 
       4.979227319373e-01       3.412352653799e+02 
       5.169121270864e-01       3.154767502185e+02 
       5.370841404489e-01       2.908286228960e+02 
       5.586070464571e-01       2.671004148186e+02 
       5.816885094930e-01       2.448031851217e+02 
       6.065870144995e-01       2.235636034728e+02 
       6.336266468475e-01       2.032062068634e+02 
       6.632156059511e-01       1.838754915311e+02 
       6.958678639263e-01       1.653512956284e+02 
       7.322247985589e-01       1.476921830000e+02 
       7.730680195114e-01       1.308309042525e+02 
       8.193049553677e-01       1.148285232565e+02 
       8.718988016039e-01       9.975966029741e+01 
       9.317218031082e-01       8.577469579805e+01 
       9.993660908989e-01       7.305171295614e+01 
       1.075037110174e+00       6.173307912066e+01 
       1.158653485707e+00       5.187606979698e+01 
       1.250099157308e+00       4.343700571698e+01 
       1.349432401273e+00       3.628598398638e+01 
       1.456947457397e+00       3.026505154297e+01 
       1.573135111331e+00       2.521160276539e+01 
       1.698621895592e+00       2.097908677998e+01 
       1.834127512934e+00       1.743945247071e+01 
       1.980444934528e+00       1.448273152276e+01 
       2.138435191726e+00       1.201605705796e+01 
       2.309029199186e+00       9.960356586636e+00 
       2.493232377687e+00       8.249016191589e+00 
       2.692130395285e+00       6.825756048076e+00 
       2.906895534573e+00       5.643458717953e+00 
       3.138793597714e+00       4.662117781180e+00 
       3.389191366484e+00       3.848394020726e+00 
       3.659564657905e+00       3.174251305127e+00 
       3.951507022538e+00       2.616217709553e+00 
       4.266739136701e+00       2.154729887657e+00 
       4.607118943941e+00       1.773346470587e+00 
       4.974652605557e+00       1.458446714515e+00 
       5.371506324689e+00       1.198635365674e+00 
       5.800019113685e+00       9.844306138826e-01 
       6.262716579983e+00       8.079482987731e-01 
       6.762325811764e+00       6.626466926403e-01 
       7.301791451110e+00       5.431151370320e-01 
       7.884293049406e+00       4.448362536552e-01 
       8.513263807261e+00       3.640879482131e-01 
       9.192410809424e+00       2.977784068327e-01 
       9.925736873929e+00       2.433676330944e-01 
       1.071756414427e+01       1.987458113133e-01 
       1.157255956364e+01       1.621749579293e-01 
       1.249576238137e+01       1.322181341770e-01 
       1.349261385375e+01       1.076955043877e-01 
       1.456898931416e+01       8.763354895361e-02 
       1.573123280165e+01       7.122936830365e-02 
       1.698619445202e+01       5.782638702572e-02 
       1.834127087176e+01       4.688165906811e-02 
       1.980444873285e+01       3.795005317774e-02 
       2.138435184532e+01       3.066638396404e-02 
       2.309029198506e+01       2.473127068851e-02 
       2.493232377636e+01       1.989897923402e-02 
       2.692130395282e+01       1.596813781890e-02 
       2.906895534573e+01       1.277392435395e-02 
       3.138793597714e+01       1.018120732027e-02 
       3.389191366484e+01       8.079858457171e-03 
       3.659564657905e+01       6.379588983979e-03 
       3.951507022538e+01       5.006628506614e-03 
       4.266739136701e+01       3.900710977002e-03 
       4.607118943941e+01       3.012732242558e-03 
       4.974652605557e+01       2.302627870984e-03 
       5.371506324689e+01       1.737720184166e-03 
       5.800019113685e+01       1.291271894374e-03 
       6.262716579983e+01       9.414922986148e-04 
       6.762325811764e+01       6.705854924515e-04 
