# Matter power spectrum P(k) at redshift z=99
# for k=1.04775e-05 to 67.6233 h/Mpc,
# number of wavenumbers equal to 246
#    1:k (h/Mpc)              2:P (Mpc/h)^3        
       1.047750691338e-05       7.261927673119e-03 
       1.131335172818e-05       7.820331745737e-03 
       1.221587619877e-05       8.421675986489e-03 
       1.319039970550e-05       9.069258192194e-03 
       1.424266598317e-05       9.766638404421e-03 
       1.537887697396e-05       1.051764069682e-02 
       1.660572938097e-05       1.132639105520e-02 
       1.793045413791e-05       1.219733231416e-02 
       1.936085902737e-05       1.313524224380e-02 
       2.090537469909e-05       1.414527121893e-02 
       2.257310435923e-05       1.523296272192e-02 
       2.437387742372e-05       1.640429444530e-02 
       2.631830745176e-05       1.766569582177e-02 
       2.841785470091e-05       1.902408601793e-02 
       3.068489367268e-05       2.048692970591e-02 
       3.313278604643e-05       2.206225513594e-02 
       3.577595943165e-05       2.375870704909e-02 
       3.862999240274e-05       2.558560727479e-02 
       4.171170631739e-05       2.755297763344e-02 
       4.503926445983e-05       2.967161927314e-02 
       4.863227909323e-05       3.195316450832e-02 
       5.251192705226e-05       3.441013519284e-02 
       5.670107455699e-05       3.705601722527e-02 
       6.122441198393e-05       3.990533413563e-02 
       6.610859938837e-05       4.297372168203e-02 
       7.138242363583e-05       4.627802141688e-02 
       7.707696806873e-05       4.983636194159e-02 
       8.322579570814e-05       5.366826847231e-02 
       8.986514707061e-05       5.779476394569e-02 
       9.703415376577e-05       6.223848243885e-02 
       1.047750691338e-04       6.702379865640e-02 
       1.131335172818e-04       7.217695153381e-02 
       1.221587619877e-04       7.772619073572e-02 
       1.319039970550e-04       8.370193432376e-02 
       1.424266598317e-04       9.013692507549e-02 
       1.537887697396e-04       9.706641242570e-02 
       1.660572938097e-04       1.045283354271e-01 
       1.793045413791e-04       1.125635349068e-01 
       1.936085902737e-04       1.212159614968e-01 
       2.090537469909e-04       1.305329132714e-01 
       2.257310435923e-04       1.405652846215e-01 
       2.437387742372e-04       1.513678302540e-01 
       2.631830745176e-04       1.629994504870e-01 
       2.841785470091e-04       1.755234921224e-01 
       3.068489367268e-04       1.890080670413e-01 
       3.313278604643e-04       2.035264002435e-01 
       3.577595943165e-04       2.191571803681e-01 
       3.862999240274e-04       2.359849437593e-01 
       4.171170631739e-04       2.541004741539e-01 
       4.503926445983e-04       2.736012080277e-01 
       4.863227909323e-04       2.945916790965e-01 
       5.251192705226e-04       3.171839525183e-01 
       5.670107455699e-04       3.414980764002e-01 
       6.122441198393e-04       3.676625413100e-01 
       6.610859938837e-04       3.958147252304e-01 
       7.138242363583e-04       4.261013284915e-01 
       7.707696806873e-04       4.586787792353e-01 
       8.322579570814e-04       4.937136001348e-01 
       8.986514707061e-04       5.313826801402e-01 
       9.703415376577e-04       5.718734972157e-01 
       1.047750691338e-03       6.153841629505e-01 
       1.131335172818e-03       6.621233239465e-01 
       1.221587619877e-03       7.123098220431e-01 
       1.319039970550e-03       7.661720584799e-01 
       1.424266598317e-03       8.239546297731e-01 
       1.537887697396e-03       8.859011173466e-01 
       1.660572938097e-03       9.522588006420e-01 
       1.793045413791e-03       1.023280099819e+00 
       1.936085902737e-03       1.099216304579e+00 
       2.090537469909e-03       1.180312990453e+00 
       2.257310435923e-03       1.266804115851e+00 
       2.437387742372e-03       1.358904853407e+00 
       2.631830745176e-03       1.456802683156e+00 
       2.841785470091e-03       1.560646890522e+00 
       3.068489367268e-03       1.670536062500e+00 
       3.313278604643e-03       1.786503852163e+00 
       3.577595943165e-03       1.908502930788e+00 
       3.862999240274e-03       2.036387730709e+00 
       4.171170631739e-03       2.169896178834e+00 
       4.503926445983e-03       2.308631878994e+00 
       4.863227909323e-03       2.452047290962e+00 
       5.251192705226e-03       2.599430628088e+00 
       5.670107455699e-03       2.749896931811e+00 
       6.122441198393e-03       2.902386513385e+00 
       6.610859938837e-03       3.055668702331e+00 
       7.138242363583e-03       3.208356461546e+00 
       7.707696806873e-03       3.358923892814e+00 
       8.322579570814e-03       3.505724704914e+00 
       8.986514707061e-03       3.647010069026e+00 
       9.703415376577e-03       3.780923304292e+00 
       1.047750691338e-02       3.905491022842e+00 
       1.131335172818e-02       4.018588051906e+00 
       1.221587619877e-02       4.117901585699e+00 
       1.319039970550e-02       4.200915351853e+00 
       1.424266598317e-02       4.264942269300e+00 
       1.537887697392e-02       4.307219000731e+00 
       1.660572938023e-02       4.325060592215e+00 
       1.793045412706e-02       4.316057565292e+00 
       1.936085890181e-02       4.278230123926e+00 
       2.090537352463e-02       4.210197281889e+00 
       2.257309535333e-02       4.111420234547e+00 
       2.437382002918e-02       3.982426003521e+00 
       2.631799944462e-02       3.825169473115e+00 
       2.841644545389e-02       3.643284044953e+00 
       3.067933355377e-02       3.442192429644e+00 
       3.311368470740e-02       3.229240733683e+00 
       3.571840443502e-02       3.013519808897e+00 
       3.847720348444e-02       2.805284596155e+00 
       4.135335538431e-02       2.614414661697e+00 
       4.429361667738e-02       2.448130682987e+00 
       4.724366439141e-02       2.309237847821e+00 
       5.016480835311e-02       2.196116045128e+00 
       5.303989620246e-02       2.104366309233e+00 
       5.586870669566e-02       2.028463191988e+00 
       5.866042680613e-02       1.963150559705e+00 
       6.142798932958e-02       1.903783979564e+00 
       6.418496440164e-02       1.846479552204e+00 
       6.694418833788e-02       1.788195750648e+00 
       6.971731106057e-02       1.726717508403e+00 
       7.251476155766e-02       1.660652593173e+00 
       7.534587671527e-02       1.589472229949e+00 
       7.821907666265e-02       1.513436930202e+00 
       8.114203772912e-02       1.433569651397e+00 
       8.412184535029e-02       1.351491933458e+00 
       8.716512279304e-02       1.269271342383e+00 
       9.027813695930e-02       1.189193593623e+00 
       9.346688431697e-02       1.113502727643e+00 
       9.673716028276e-02       1.044183502933e+00 
       1.000946150830e-01       9.827066082277e-01 
       1.035447986537e-01       9.299381699819e-01 
       1.070931966762e-01       8.859591962365e-01 
       1.107452594425e-01       8.500690607020e-01 
       1.145064249153e-01       8.208027662752e-01 
       1.183821370918e-01       7.960240015615e-01 
       1.223778605862e-01       7.731440983571e-01 
       1.264990921987e-01       7.494507441806e-01 
       1.307513701367e-01       7.225575744954e-01 
       1.351402814784e-01       6.909077251696e-01 
       1.396714684203e-01       6.541814840331e-01 
       1.443506338194e-01       6.134268875149e-01 
       1.491835465229e-01       5.708681905642e-01 
       1.541760469708e-01       5.293643069926e-01 
       1.593340535561e-01       4.917104363775e-01 
       1.646635702297e-01       4.599199478496e-01 
       1.701706958456e-01       4.347285731691e-01 
       1.758616357459e-01       4.154080486285e-01 
       1.817427160982e-01       3.999377173526e-01 
       1.878204015065e-01       3.856825346507e-01 
       1.941013164283e-01       3.698083923883e-01 
       2.005922709503e-01       3.505461830023e-01 
       2.073002914972e-01       3.280432594563e-01 
       2.142326570816e-01       3.042139620969e-01 
       2.213969417533e-01       2.816125201311e-01 
       2.288010639706e-01       2.622571000245e-01 
       2.364533437147e-01       2.469619361183e-01 
       2.443625682930e-01       2.350134444925e-01 
       2.525380679504e-01       2.244179776742e-01 
       2.609898026346e-01       2.130939196122e-01 
       2.697284615565e-01       2.001021622641e-01 
       2.787655775689e-01       1.860199447804e-01 
       2.881136588829e-01       1.725173460722e-01 
       2.977863412677e-01       1.610661975007e-01 
       3.077985646929e-01       1.517608113769e-01 
       3.181667794071e-01       1.435592989005e-01 
       3.289091877812e-01       1.351817736296e-01 
       3.400460299658e-01       1.261643267149e-01 
       3.515999236474e-01       1.172019243107e-01 
       3.635962711085e-01       1.091771940430e-01 
       3.760637506334e-01       1.023091889660e-01 
       3.890349143879e-01       9.593778248385e-02 
       4.025469216825e-01       8.950761431891e-02 
       4.166424456376e-01       8.311176907954e-02 
       4.313708035863e-01       7.721558750011e-02 
       4.467893782977e-01       7.190046837568e-02 
       4.629654199664e-01       6.686893896390e-02 
       4.799783501994e-01       6.191763936949e-02 
       4.979227319373e-01       5.722209124520e-02 
       5.169121270864e-01       5.290300310706e-02 
       5.370841404489e-01       4.876988269935e-02 
       5.586070464571e-01       4.479081547736e-02 
       5.816885094930e-01       4.105198412555e-02 
       6.065870144995e-01       3.748989222106e-02 
       6.336266468475e-01       3.407633101312e-02 
       6.632156059511e-01       3.083465366912e-02 
       6.958678639263e-01       2.772831087559e-02 
       7.322247985589e-01       2.476710336883e-02 
       7.730680195114e-01       2.193956288272e-02 
       8.193049553677e-01       1.925612718414e-02 
       8.718988016039e-01       1.672933734785e-02 
       9.317218031082e-01       1.438421743412e-02 
       9.993660908989e-01       1.225071670434e-02 
       1.075037110174e+00       1.035260245449e-02 
       1.158653485707e+00       8.699720741282e-03 
       1.250099157308e+00       7.284592165361e-03 
       1.349432401273e+00       6.085475046553e-03 
       1.456947457397e+00       5.075732805199e-03 
       1.573135111331e+00       4.228316677545e-03 
       1.698621895592e+00       3.518533623758e-03 
       1.834127512934e+00       2.924984812233e-03 
       1.980444934528e+00       2.429158935809e-03 
       2.138435191726e+00       2.015516502761e-03 
       2.309029199186e+00       1.670773273727e-03 
       2.493232377687e+00       1.383794105014e-03 
       2.692130395285e+00       1.145127438625e-03 
       2.906895534573e+00       9.468583841037e-04 
       3.138793597714e+00       7.822908123663e-04 
       3.389191366484e+00       6.458219012931e-04 
       3.659564657905e+00       5.327698760594e-04 
       3.951507022538e+00       4.391875689916e-04 
       4.266739136701e+00       3.617907730219e-04 
       4.607118943941e+00       2.978280421077e-04 
       4.974652605557e+00       2.450143518134e-04 
       5.371506324689e+00       2.014373260933e-04 
       5.800019113685e+00       1.655058241439e-04 
       6.262716579983e+00       1.359033931781e-04 
       6.762325811764e+00       1.115304521031e-04 
       7.301791451110e+00       9.147589513152e-05 
       7.884293049406e+00       7.498621992345e-05 
       8.513263807261e+00       6.143571234744e-05 
       9.192410809424e+00       5.030796173163e-05 
       9.925736873929e+00       4.117510760560e-05 
       1.071756414427e+01       3.368325000284e-05 
       1.157255956364e+01       2.754142503101e-05 
       1.249576238137e+01       2.250884764214e-05 
       1.349261385375e+01       1.838757504556e-05 
       1.456898931416e+01       1.501407228703e-05 
       1.573123280165e+01       1.225438420561e-05 
       1.698619445202e+01       9.997621267359e-06 
       1.834127087176e+01       8.153056987251e-06 
       1.980444873285e+01       6.646188331847e-06 
       2.138435184532e+01       5.415707046423e-06 
       2.309029198506e+01       4.411299316150e-06 
       2.493232377636e+01       3.591861280657e-06 
       2.692130395282e+01       2.923543175027e-06 
       2.906895534573e+01       2.378710792507e-06 
       3.138793597714e+01       1.934755468265e-06 
       3.389191366484e+01       1.573084174397e-06 
       3.659564657905e+01       1.278594421794e-06 
       3.951507022538e+01       1.038894185458e-06 
       4.266739136701e+01       8.438377684650e-07 
       4.607118943941e+01       6.851838488229e-07 
       4.974652605557e+01       5.561786065131e-07 
       5.371506324689e+01       4.513112583632e-07 
       5.800019113685e+01       3.661013738064e-07 
       6.262716579983e+01       2.968806963150e-07 
       6.762325811764e+01       2.406687638913e-07 
