# Matter power spectrum P(k) at redshift z=99
# for k=1.04775e-05 to 67.6233 h/Mpc,
# number of wavenumbers equal to 246
#    1:k (h/Mpc)              2:P (Mpc/h)^3        
       1.047750691338e-05       7.261927673119e-03 
       1.131335172818e-05       7.820331745737e-03 
       1.221587619877e-05       8.421675986488e-03 
       1.319039970550e-05       9.069258192194e-03 
       1.424266598317e-05       9.766638404421e-03 
       1.537887697396e-05       1.051764069682e-02 
       1.660572938097e-05       1.132639105520e-02 
       1.793045413791e-05       1.219733231416e-02 
       1.936085902737e-05       1.313524224381e-02 
       2.090537469909e-05       1.414527121893e-02 
       2.257310435923e-05       1.523296272192e-02 
       2.437387742372e-05       1.640429444530e-02 
       2.631830745176e-05       1.766569582178e-02 
       2.841785470091e-05       1.902408601793e-02 
       3.068489367268e-05       2.048692970592e-02 
       3.313278604643e-05       2.206225513594e-02 
       3.577595943165e-05       2.375870704909e-02 
       3.862999240274e-05       2.558560727479e-02 
       4.171170631739e-05       2.755297763344e-02 
       4.503926445983e-05       2.967161927316e-02 
       4.863227909323e-05       3.195316450832e-02 
       5.251192705226e-05       3.441013519284e-02 
       5.670107455699e-05       3.705601722526e-02 
       6.122441198393e-05       3.990533413561e-02 
       6.610859938837e-05       4.297372168203e-02 
       7.138242363583e-05       4.627802141688e-02 
       7.707696806873e-05       4.983636194159e-02 
       8.322579570814e-05       5.366826847231e-02 
       8.986514707061e-05       5.779476394569e-02 
       9.703415376577e-05       6.223848243885e-02 
       1.047750691338e-04       6.702379865640e-02 
       1.131335172818e-04       7.217695153381e-02 
       1.221587619877e-04       7.772619073571e-02 
       1.319039970550e-04       8.370193432376e-02 
       1.424266598317e-04       9.013692507547e-02 
       1.537887697396e-04       9.706641242570e-02 
       1.660572938097e-04       1.045283354271e-01 
       1.793045413791e-04       1.125635349068e-01 
       1.936085902737e-04       1.212159614968e-01 
       2.090537469909e-04       1.305329132714e-01 
       2.257310435923e-04       1.405652846215e-01 
       2.437387742372e-04       1.513678302540e-01 
       2.631830745176e-04       1.629994504871e-01 
       2.841785470091e-04       1.755234921224e-01 
       3.068489367268e-04       1.890080670413e-01 
       3.313278604643e-04       2.035264002435e-01 
       3.577595943165e-04       2.191571803681e-01 
       3.862999240274e-04       2.359849437592e-01 
       4.171170631739e-04       2.541004741539e-01 
       4.503926445983e-04       2.736012080277e-01 
       4.863227909323e-04       2.945916790965e-01 
       5.251192705226e-04       3.171839525183e-01 
       5.670107455699e-04       3.414980764002e-01 
       6.122441198393e-04       3.676625413100e-01 
       6.610859938837e-04       3.958147252304e-01 
       7.138242363583e-04       4.261013284910e-01 
       7.707696806873e-04       4.586787792350e-01 
       8.322579570814e-04       4.937136001354e-01 
       8.986514707061e-04       5.313826801401e-01 
       9.703415376577e-04       5.718734972158e-01 
       1.047750691338e-03       6.153841629505e-01 
       1.131335172818e-03       6.621233239466e-01 
       1.221587619877e-03       7.123098220427e-01 
       1.319039970550e-03       7.661720584663e-01 
       1.424266598317e-03       8.239546297729e-01 
       1.537887697396e-03       8.859011173466e-01 
       1.660572938097e-03       9.522588006422e-01 
       1.793045413791e-03       1.023280099819e+00 
       1.936085902737e-03       1.099216304579e+00 
       2.090537469909e-03       1.180312990454e+00 
       2.257310435923e-03       1.266804115851e+00 
       2.437387742372e-03       1.358904853404e+00 
       2.631830745176e-03       1.456802683156e+00 
       2.841785470091e-03       1.560646890521e+00 
       3.068489367268e-03       1.670536062499e+00 
       3.313278604643e-03       1.786503852158e+00 
       3.577595943165e-03       1.908502930787e+00 
       3.862999240274e-03       2.036387730709e+00 
       4.171170631739e-03       2.169896177241e+00 
       4.503926445983e-03       2.308631878993e+00 
       4.863227909323e-03       2.452047290961e+00 
       5.251192705226e-03       2.599430628087e+00 
       5.670107455699e-03       2.749896931849e+00 
       6.122441198393e-03       2.902386513385e+00 
       6.610859938837e-03       3.055668690392e+00 
       7.138242363583e-03       3.208356461542e+00 
       7.707696806873e-03       3.358923892213e+00 
       8.322579570814e-03       3.505725595312e+00 
       8.986514707061e-03       3.647009252682e+00 
       9.703415376577e-03       3.780923304304e+00 
       1.047750691338e-02       3.905490610125e+00 
       1.131335172818e-02       4.018587641141e+00 
       1.221587619877e-02       4.117901585196e+00 
       1.319039970550e-02       4.200915339627e+00 
       1.424266598317e-02       4.264942325400e+00 
       1.537887697392e-02       4.307218598907e+00 
       1.660572938023e-02       4.325060144018e+00 
       1.793045412706e-02       4.316059976575e+00 
       1.936085890181e-02       4.278229761729e+00 
       2.090537352463e-02       4.210201778725e+00 
       2.257309535333e-02       4.111421317261e+00 
       2.437382002918e-02       3.982421681514e+00 
       2.631799944462e-02       3.825169490054e+00 
       2.841644545389e-02       3.643280890920e+00 
       3.067933355377e-02       3.442193327086e+00 
       3.311368470740e-02       3.229247212758e+00 
       3.571840443502e-02       3.013517087558e+00 
       3.847720348444e-02       2.805281783524e+00 
       4.135335538431e-02       2.614412239046e+00 
       4.429361667738e-02       2.448134066712e+00 
       4.724366439141e-02       2.309236463710e+00 
       5.016480835311e-02       2.196115920607e+00 
       5.303989620246e-02       2.104367399500e+00 
       5.586870669566e-02       2.028465927422e+00 
       5.866042680613e-02       1.963158088433e+00 
       6.142798932958e-02       1.903777958525e+00 
       6.418496440164e-02       1.846474467146e+00 
       6.694418833788e-02       1.788198635644e+00 
       6.971731106057e-02       1.726715773862e+00 
       7.251476155766e-02       1.660655551591e+00 
       7.534587671527e-02       1.589471291762e+00 
       7.821907666265e-02       1.513437371581e+00 
       8.114203772912e-02       1.433569109012e+00 
       8.412184535029e-02       1.351489763187e+00 
       8.716512279304e-02       1.269270322236e+00 
       9.027813695930e-02       1.189192816793e+00 
       9.346688431697e-02       1.113500785825e+00 
       9.673716028276e-02       1.044174093318e+00 
       1.000946150830e-01       9.827065018869e-01 
       1.035447986537e-01       9.299400783850e-01 
       1.070931966762e-01       8.859587067153e-01 
       1.107452594425e-01       8.500710494549e-01 
       1.145064249153e-01       8.208041767749e-01 
       1.183821370918e-01       7.960258030996e-01 
       1.223778605862e-01       7.731469520315e-01 
       1.264990921987e-01       7.494523797815e-01 
       1.307513701367e-01       7.225574736875e-01 
       1.351402814784e-01       6.909093930688e-01 
       1.396714684203e-01       6.541802394734e-01 
       1.443506338194e-01       6.134273204839e-01 
       1.491835465229e-01       5.708664461662e-01 
       1.541760469708e-01       5.293649746140e-01 
       1.593340535561e-01       4.917111753445e-01 
       1.646635702297e-01       4.599196010119e-01 
       1.701706958456e-01       4.347283381319e-01 
       1.758616357459e-01       4.154084273621e-01 
       1.817427160982e-01       3.999365334494e-01 
       1.878204015065e-01       3.856818177166e-01 
       1.941013164283e-01       3.698096325170e-01 
       2.005922709503e-01       3.505457094537e-01 
       2.073002914972e-01       3.280429388295e-01 
       2.142326570816e-01       3.042143001559e-01 
       2.213969417533e-01       2.816122912681e-01 
       2.288010639706e-01       2.622570932176e-01 
       2.364533437147e-01       2.469617804692e-01 
       2.443625682930e-01       2.350130361020e-01 
       2.525380679504e-01       2.244173242707e-01 
       2.609898026346e-01       2.130931687326e-01 
       2.697284615565e-01       2.001013574172e-01 
       2.787655775689e-01       1.860196856504e-01 
       2.881136588829e-01       1.725167856067e-01 
       2.977863412677e-01       1.610659149090e-01 
       3.077985646929e-01       1.517607244208e-01 
       3.181667794071e-01       1.435590707770e-01 
       3.289091877812e-01       1.351810330079e-01 
       3.400460299658e-01       1.261638700511e-01 
       3.515999236474e-01       1.172013257988e-01 
       3.635962711085e-01       1.091764045375e-01 
       3.760637506334e-01       1.023092063844e-01 
       3.890349143879e-01       9.593708467696e-02 
       4.025469216825e-01       8.950670406340e-02 
       4.166424456376e-01       8.311106223835e-02 
       4.313708035863e-01       7.721447243929e-02 
       4.467893782977e-01       7.189987007708e-02 
       4.629654199664e-01       6.686810022131e-02 
       4.799783501994e-01       6.191674168605e-02 
       4.979227319373e-01       5.722123394781e-02 
       5.169121270864e-01       5.290173368466e-02 
       5.370841404489e-01       4.876853961873e-02 
       5.586070464571e-01       4.478964544650e-02 
       5.816885094930e-01       4.105054214708e-02 
       6.065870144995e-01       3.748848666809e-02 
       6.336266468475e-01       3.407466107245e-02 
       6.632156059511e-01       3.083293327903e-02 
       6.958678639263e-01       2.772657772755e-02 
       7.322247985589e-01       2.476524281637e-02 
       7.730680195114e-01       2.193761341635e-02 
       8.193049553677e-01       1.925399081331e-02 
       8.718988016039e-01       1.672698558168e-02 
       9.317218031082e-01       1.438157240955e-02 
       9.993660908989e-01       1.224780476322e-02 
       1.075037110174e+00       1.034940699155e-02 
       1.158653485707e+00       8.696209954922e-03 
       1.250099157308e+00       7.280733251010e-03 
       1.349432401273e+00       6.081209712649e-03 
       1.456947457397e+00       5.071046993421e-03 
       1.573135111331e+00       4.223167670924e-03 
       1.698621895592e+00       3.512875875615e-03 
       1.834127512934e+00       2.918754315755e-03 
       1.980444934528e+00       2.422336463865e-03 
       2.138435191726e+00       2.008030214815e-03 
       2.309029199186e+00       1.662603966189e-03 
       2.493232377687e+00       1.374870179752e-03 
       2.692130395285e+00       1.135405714524e-03 
       2.906895534573e+00       9.362774437094e-04 
       3.138793597714e+00       7.708023907139e-04 
       3.389191366484e+00       6.333773266143e-04 
       3.659564657905e+00       5.193126049768e-04 
       3.951507022538e+00       4.246786582502e-04 
       4.266739136701e+00       3.461918947367e-04 
       4.607118943941e+00       2.811159150113e-04 
       4.974652605557e+00       2.271746447831e-04 
       5.371506324689e+00       1.824776456932e-04 
       5.800019113685e+00       1.454562876594e-04 
       6.262716579983e+00       1.148225478017e-04 
       6.762325811764e+00       8.951558859399e-05 
       7.301791451110e+00       6.867024666665e-05 
       7.884293049406e+00       5.158169292207e-05 
       8.513263807261e+00       3.768314027718e-05 
       9.192410809424e+00       2.651922667206e-05 
       9.925736873929e+00       1.772391123163e-05 
       1.071756414427e+01       1.099965928906e-05 
       1.157255956364e+01       6.095773133692e-06 
       1.249576238137e+01       2.787272690037e-06 
       1.349261385375e+01       8.529431835966e-07 
       1.456898931416e+01       5.742864436269e-08 
       1.573123280165e+01       1.372404982583e-07 
       1.698619445202e+01       7.964440368721e-07 
       1.834127087176e+01       1.716811146569e-06 
       1.980444873285e+01       2.585127552684e-06 
       2.138435184532e+01       3.136958722770e-06 
       2.309029198506e+01       3.209047431377e-06 
       2.493232377636e+01       2.782598934046e-06 
       2.692130395282e+01       1.995934492450e-06 
       2.906895534573e+01       1.104912495207e-06 
       3.138793597714e+01       3.896170565577e-07 
       3.389191366484e+01       3.451600499432e-08 
       3.659564657905e+01       4.128419074041e-08 
       3.951507022538e+01       2.352102782263e-07 
       4.266739136701e+01       3.818882069536e-07 
       4.607118943941e+01       3.476157356256e-07 
       4.974652605557e+01       1.803543445481e-07 
       5.371506324689e+01       3.386456552622e-08 
       5.800019113685e+01       2.550041747969e-09 
       6.262716579983e+01       4.102465924060e-08 
       6.762325811764e+01       5.356444378636e-08 
