# Matter power spectrum P(k) at redshift z=0
# for k=1.04775e-05 to 67.6233 h/Mpc,
# number of wavenumbers equal to 246
#    1:k (h/Mpc)              2:P (Mpc/h)^3        
       1.047750691338e-05       5.020964806749e+01 
       1.131335172818e-05       5.407048206554e+01 
       1.221587619877e-05       5.822819064035e+01 
       1.319039970550e-05       6.270562589681e+01 
       1.424266598317e-05       6.752731788102e+01 
       1.537887697396e-05       7.271977200258e+01 
       1.660572938097e-05       7.831147241541e+01 
       1.793045413791e-05       8.433311815128e+01 
       1.936085902737e-05       9.081778242446e+01 
       2.090537469909e-05       9.780108061340e+01 
       2.257310435923e-05       1.053213197032e+02 
       2.437387742372e-05       1.134197377001e+02 
       2.631830745176e-05       1.221408202816e+02 
       2.841785470091e-05       1.315324720916e+02 
       3.068489367268e-05       1.416462093730e+02 
       3.313278604643e-05       1.525374500691e+02 
       3.577595943165e-05       1.642660687078e+02 
       3.862999240274e-05       1.768963504868e+02 
       4.171170631739e-05       1.904975992460e+02 
       4.503926445983e-05       2.051444490305e+02 
       4.863227909323e-05       2.209171463752e+02 
       5.251192705226e-05       2.379022222314e+02 
       5.670107455699e-05       2.561927925882e+02 
       6.122441198393e-05       2.758890441791e+02 
       6.610859938837e-05       2.970989225466e+02 
       7.138242363583e-05       3.199385558200e+02 
       7.707696806873e-05       3.445329780878e+02 
       8.322579570814e-05       3.710167315928e+02 
       8.986514707061e-05       3.995346440954e+02 
       9.703415376577e-05       4.302425403884e+02 
       1.047750691338e-04       4.633080762974e+02 
       1.131335172818e-04       4.989116267507e+02 
       1.221587619877e-04       5.372471946561e+02 
       1.319039970550e-04       5.785234124634e+02 
       1.424266598317e-04       6.229645930980e+02 
       1.537887697396e-04       6.708118484951e+02 
       1.660572938097e-04       7.223242660220e+02 
       1.793045413791e-04       7.777801553417e+02 
       1.936085902737e-04       8.374783607333e+02 
       2.090537469909e-04       9.017396264495e+02 
       2.257310435923e-04       9.709080260152e+02 
       2.437387742372e-04       1.045352448644e+03 
       2.631830745176e-04       1.125468122836e+03 
       2.841785470091e-04       1.211678179511e+03 
       3.068489367268e-04       1.304435249091e+03 
       3.313278604643e-04       1.404223052541e+03 
       3.577595943165e-04       1.511558013390e+03 
       3.862999240274e-04       1.626990836550e+03 
       4.171170631739e-04       1.751108027370e+03 
       4.503926445983e-04       1.884533381345e+03 
       4.863227909323e-04       2.027929376470e+03 
       5.251192705226e-04       2.181998446367e+03 
       5.670107455699e-04       2.347484100857e+03 
       6.122441198393e-04       2.525171869337e+03 
       6.610859938837e-04       2.715889981400e+03 
       7.138242363583e-04       2.920509686084e+03 
       7.707696806873e-04       3.139945097711e+03 
       8.322579570814e-04       3.375152334395e+03 
       8.986514707061e-04       3.627127828231e+03 
       9.703415376577e-04       3.896905450016e+03 
       1.047750691338e-03       4.185552170958e+03 
       1.131335172818e-03       4.494162426791e+03 
       1.221587619877e-03       4.823850702666e+03 
       1.319039970550e-03       5.175742738816e+03 
       1.424266598317e-03       5.551019592515e+03 
       1.537887697396e-03       5.950788335876e+03 
       1.660572938097e-03       6.376123046807e+03 
       1.793045413791e-03       6.828073896123e+03 
       1.936085902737e-03       7.307625375386e+03 
       2.090537469909e-03       7.815671865172e+03 
       2.257310435923e-03       8.352990369397e+03 
       2.437387742372e-03       8.920211057521e+03 
       2.631830745176e-03       9.517783061890e+03 
       2.841785470091e-03       1.014593703671e+04 
       3.068489367268e-03       1.080464505751e+04 
       3.313278604643e-03       1.149357459431e+04 
       3.577595943165e-03       1.221203620826e+04 
       3.862999240274e-03       1.295892538505e+04 
       4.171170631739e-03       1.373266001078e+04 
       4.503926445983e-03       1.453111834595e+04 
       4.863227909323e-03       1.535154984222e+04 
       5.251192705226e-03       1.619063613405e+04 
       5.670107455699e-03       1.704431256586e+04 
       6.122441198393e-03       1.790755938475e+04 
       6.610859938837e-03       1.877460414890e+04 
       7.138242363583e-03       1.963872429155e+04 
       7.707696806873e-03       2.049215713496e+04 
       8.322579570814e-03       2.132607230752e+04 
       8.986514707061e-03       2.213055193897e+04 
       9.703415376577e-03       2.289445471037e+04 
       1.047750691338e-02       2.360548871069e+04 
       1.131335172818e-02       2.425022856293e+04 
       1.221587619877e-02       2.481423920712e+04 
       1.319039970550e-02       2.528218644640e+04 
       1.424266598317e-02       2.563814163449e+04 
       1.537887697392e-02       2.586606396137e+04 
       1.660572938023e-02       2.595026895578e+04 
       1.793045412706e-02       2.587633904152e+04 
       1.936085890181e-02       2.563219017140e+04 
       2.090537352463e-02       2.520934138236e+04 
       2.257309535333e-02       2.460447653009e+04 
       2.437382002918e-02       2.382088085973e+04 
       2.631799944462e-02       2.287047867804e+04 
       2.841644545389e-02       2.177451037468e+04 
       3.067933355377e-02       2.056552700416e+04 
       3.311368470740e-02       1.928728064382e+04 
       3.571840443502e-02       1.799400114841e+04 
       3.847720348444e-02       1.674683355480e+04 
       4.135335538431e-02       1.560459707683e+04 
       4.429361667738e-02       1.461039639396e+04 
       4.724366439141e-02       1.378054538527e+04 
       5.016480835311e-02       1.310508627179e+04 
       5.303989620246e-02       1.255716316689e+04 
       5.586870669566e-02       1.210427338754e+04 
       5.866042680613e-02       1.171463327840e+04 
       6.142798932958e-02       1.136046669020e+04 
       6.418496440164e-02       1.101854088666e+04 
       6.694418833788e-02       1.067068770264e+04 
       6.971731106057e-02       1.030357292865e+04 
       7.251476155766e-02       9.909012072077e+03 
       7.534587671527e-02       9.483767988015e+03 
       7.821907666265e-02       9.029509755884e+03 
       8.114203772912e-02       8.552331506162e+03 
       8.412184535029e-02       8.061892616475e+03 
       8.716512279304e-02       7.570773474748e+03 
       9.027813695930e-02       7.092494214059e+03 
       9.346688431697e-02       6.640526364495e+03 
       9.673716028276e-02       6.226690038956e+03 
       1.000946150830e-01       5.859954418208e+03 
       1.035447986537e-01       5.545235506500e+03 
       1.070931966762e-01       5.283137562500e+03 
       1.107452594425e-01       5.069419822544e+03 
       1.145064249153e-01       4.895246589183e+03 
       1.183821370918e-01       4.747847487421e+03 
       1.223778605862e-01       4.611730816838e+03 
       1.264990921987e-01       4.470622987226e+03 
       1.307513701367e-01       4.310271420735e+03 
       1.351402814784e-01       4.121390794516e+03 
       1.396714684203e-01       3.902078215958e+03 
       1.443506338194e-01       3.658636298467e+03 
       1.491835465229e-01       3.404484437057e+03 
       1.541760469708e-01       3.156674940266e+03 
       1.593340535561e-01       2.931979722222e+03 
       1.646635702297e-01       2.742376194932e+03 
       1.701706958456e-01       2.592267809937e+03 
       1.758616357459e-01       2.477232247045e+03 
       1.817427160982e-01       2.385185292464e+03 
       1.878204015065e-01       2.300356455497e+03 
       1.941013164283e-01       2.205755505677e+03 
       2.005922709503e-01       2.090815734612e+03 
       2.073002914972e-01       1.956463785076e+03 
       2.142326570816e-01       1.814192774876e+03 
       2.213969417533e-01       1.679285800315e+03 
       2.288010639706e-01       1.563845559743e+03 
       2.364533437147e-01       1.472688072708e+03 
       2.443625682930e-01       1.401512726856e+03 
       2.525380679504e-01       1.338413850033e+03 
       2.609898026346e-01       1.270907177870e+03 
       2.697284615565e-01       1.193382327511e+03 
       2.787655775689e-01       1.109340713972e+03 
       2.881136588829e-01       1.028769167178e+03 
       2.977863412677e-01       9.604801737301e+02 
       3.077985646929e-01       9.050203900953e+02 
       3.181667794071e-01       8.561451491222e+02 
       3.289091877812e-01       8.061856641428e+02 
       3.400460299658e-01       7.523899290029e+02 
       3.515999236474e-01       6.989222569353e+02 
       3.635962711085e-01       6.510616833031e+02 
       3.760637506334e-01       6.101223645254e+02 
       3.890349143879e-01       5.721329080499e+02 
       4.025469216825e-01       5.337808330443e+02 
       4.166424456376e-01       4.956297528889e+02 
       4.313708035863e-01       4.604682478610e+02 
       4.467893782977e-01       4.287777365893e+02 
       4.629654199664e-01       3.987719942907e+02 
       4.799783501994e-01       3.692407933926e+02 
       4.979227319373e-01       3.412407553815e+02 
       5.169121270864e-01       3.154829540716e+02 
       5.370841404489e-01       2.908340824121e+02 
       5.586070464571e-01       2.671059424870e+02 
       5.816885094930e-01       2.448094363164e+02 
       6.065870144995e-01       2.235667299760e+02 
       6.336266468475e-01       2.032103109810e+02 
       6.632156059511e-01       1.838782628564e+02 
       6.958678639263e-01       1.653540981248e+02 
       7.322247985589e-01       1.476954016845e+02 
       7.730680195114e-01       1.308336200382e+02 
       8.193049553677e-01       1.148313568243e+02 
       8.718988016039e-01       9.976247572766e+01 
       9.317218031082e-01       8.577775233352e+01 
       9.993660908989e-01       7.305452282624e+01 
       1.075037110174e+00       6.173592960591e+01 
       1.158653485707e+00       5.187896901667e+01 
       1.250099157308e+00       4.343994690799e+01 
       1.349432401273e+00       3.628925987401e+01 
       1.456947457397e+00       3.026776797961e+01 
       1.573135111331e+00       2.521442312408e+01 
       1.698621895592e+00       2.098175921330e+01 
       1.834127512934e+00       1.744206646244e+01 
       1.980444934528e+00       1.448536876171e+01 
       2.138435191726e+00       1.201856631957e+01 
       2.309029199186e+00       9.962698072961e+00 
       2.493232377687e+00       8.251305462090e+00 
       2.692130395285e+00       6.828044498965e+00 
       2.906895534573e+00       5.645650287046e+00 
       3.138793597714e+00       4.664183320107e+00 
       3.389191366484e+00       3.850344748438e+00 
       3.659564657905e+00       3.176099423247e+00 
       3.951507022538e+00       2.617931748676e+00 
       4.266739136701e+00       2.156326458842e+00 
       4.607118943941e+00       1.774799296239e+00 
       4.974652605557e+00       1.459743148493e+00 
       5.371506324689e+00       1.199775281924e+00 
       5.800019113685e+00       9.853925339959e-01 
       6.262716579983e+00       8.087272648889e-01 
       6.762325811764e+00       6.632433931874e-01 
       7.301791451110e+00       5.435074552594e-01 
       7.884293049406e+00       4.450115651495e-01 
       8.513263807261e+00       3.640392247807e-01 
       9.192410809424e+00       2.974918268521e-01 
       9.925736873929e+00       2.428338641263e-01 
       1.071756414427e+01       1.979517262384e-01 
       1.157255956364e+01       1.611091221497e-01 
       1.249576238137e+01       1.308725869783e-01 
       1.349261385375e+01       1.060596877107e-01 
       1.456898931416e+01       8.570161514215e-02 
       1.573123280165e+01       6.899756630387e-02 
       1.698619445202e+01       5.529306090726e-02 
       1.834127087176e+01       4.405047288700e-02 
       1.980444873285e+01       3.483094005716e-02 
       2.138435184532e+01       2.727577656551e-02 
       2.309029198506e+01       2.109392849789e-02 
       2.493232377636e+01       1.605036556057e-02 
       2.692130395282e+01       1.195463684842e-02 
       2.906895534573e+01       8.655197459821e-03 
       3.138793597714e+01       6.030670073388e-03 
       3.389191366484e+01       3.983962247609e-03 
       3.659564657905e+01       2.436634788807e-03 
       3.951507022538e+01       1.322863059476e-03 
       4.266739136701e+01       5.843619347751e-04 
       4.607118943941e+01       1.650058188859e-04 
       4.974652605557e+01       6.308196322403e-06 
       5.371506324689e+01       4.432368372035e-05 
       5.800019113685e+01       2.087631641676e-04 
       6.262716579983e+01       4.255325903309e-04 
       6.762325811764e+01       6.230164387081e-04 
