# Matter power spectrum P(k) at redshift z=0
# for k=1.04775e-05 to 67.6233 h/Mpc,
# number of wavenumbers equal to 246
#    1:k (h/Mpc)              2:P (Mpc/h)^3        
       1.047750691338e-05       5.020964806751e+01 
       1.131335172818e-05       5.407048206554e+01 
       1.221587619877e-05       5.822819063763e+01 
       1.319039970550e-05       6.270562589675e+01 
       1.424266598317e-05       6.752731788102e+01 
       1.537887697396e-05       7.271977200258e+01 
       1.660572938097e-05       7.831147241542e+01 
       1.793045413791e-05       8.433311815128e+01 
       1.936085902737e-05       9.081778242446e+01 
       2.090537469909e-05       9.780108061341e+01 
       2.257310435923e-05       1.053213197032e+02 
       2.437387742372e-05       1.134197377001e+02 
       2.631830745176e-05       1.221408202816e+02 
       2.841785470091e-05       1.315324720916e+02 
       3.068489367268e-05       1.416462093730e+02 
       3.313278604643e-05       1.525374500691e+02 
       3.577595943165e-05       1.642660687078e+02 
       3.862999240274e-05       1.768963504868e+02 
       4.171170631739e-05       1.904975992460e+02 
       4.503926445983e-05       2.051444490305e+02 
       4.863227909323e-05       2.209171463752e+02 
       5.251192705226e-05       2.379022222314e+02 
       5.670107455699e-05       2.561927926133e+02 
       6.122441198393e-05       2.758890441791e+02 
       6.610859938837e-05       2.970989225465e+02 
       7.138242363583e-05       3.199385558200e+02 
       7.707696806873e-05       3.445329780878e+02 
       8.322579570814e-05       3.710167315928e+02 
       8.986514707061e-05       3.995346440954e+02 
       9.703415376577e-05       4.302425403884e+02 
       1.047750691338e-04       4.633080762974e+02 
       1.131335172818e-04       4.989116267507e+02 
       1.221587619877e-04       5.372471946561e+02 
       1.319039970550e-04       5.785234124633e+02 
       1.424266598317e-04       6.229645930980e+02 
       1.537887697396e-04       6.708118484951e+02 
       1.660572938097e-04       7.223242660219e+02 
       1.793045413791e-04       7.777801554491e+02 
       1.936085902737e-04       8.374783607333e+02 
       2.090537469909e-04       9.017396264495e+02 
       2.257310435923e-04       9.709080260151e+02 
       2.437387742372e-04       1.045352448644e+03 
       2.631830745176e-04       1.125468122836e+03 
       2.841785470091e-04       1.211678179510e+03 
       3.068489367268e-04       1.304435249091e+03 
       3.313278604643e-04       1.404223052541e+03 
       3.577595943165e-04       1.511558013390e+03 
       3.862999240274e-04       1.626990836444e+03 
       4.171170631739e-04       1.751108027370e+03 
       4.503926445983e-04       1.884533381345e+03 
       4.863227909323e-04       2.027929376470e+03 
       5.251192705226e-04       2.181998446367e+03 
       5.670107455699e-04       2.347484100856e+03 
       6.122441198393e-04       2.525171869336e+03 
       6.610859938837e-04       2.715889981399e+03 
       7.138242363583e-04       2.920509686084e+03 
       7.707696806873e-04       3.139945097708e+03 
       8.322579570814e-04       3.375152334393e+03 
       8.986514707061e-04       3.627127828227e+03 
       9.703415376577e-04       3.896905450011e+03 
       1.047750691338e-03       4.185552170969e+03 
       1.131335172818e-03       4.494162426784e+03 
       1.221587619877e-03       4.823850702652e+03 
       1.319039970550e-03       5.175742737714e+03 
       1.424266598317e-03       5.551019592500e+03 
       1.537887697396e-03       5.950788335859e+03 
       1.660572938097e-03       6.376123046743e+03 
       1.793045413791e-03       6.828073896096e+03 
       1.936085902737e-03       7.307625375346e+03 
       2.090537469909e-03       7.815671859970e+03 
       2.257310435923e-03       8.352990369324e+03 
       2.437387742372e-03       8.920211057439e+03 
       2.631830745176e-03       9.517783061783e+03 
       2.841785470091e-03       1.014593703658e+04 
       3.068489367268e-03       1.080464505718e+04 
       3.313278604643e-03       1.149357459427e+04 
       3.577595943165e-03       1.221203620799e+04 
       3.862999240274e-03       1.295892538471e+04 
       4.171170631739e-03       1.373266000051e+04 
       4.503926445983e-03       1.453111834541e+04 
       4.863227909323e-03       1.535154982276e+04 
       5.251192705226e-03       1.619063601884e+04 
       5.670107455699e-03       1.704431255954e+04 
       6.122441198393e-03       1.790755945138e+04 
       6.610859938837e-03       1.877460421494e+04 
       7.138242363583e-03       1.963872450845e+04 
       7.707696806873e-03       2.049215712296e+04 
       8.322579570814e-03       2.132611392593e+04 
       8.986514707061e-03       2.213054835643e+04 
       9.703415376577e-03       2.289445551173e+04 
       1.047750691338e-02       2.360548505364e+04 
       1.131335172818e-02       2.425022763163e+04 
       1.221587619877e-02       2.481423936482e+04 
       1.319039970550e-02       2.528219172623e+04 
       1.424266598317e-02       2.563814302539e+04 
       1.537887697392e-02       2.586608801363e+04 
       1.660572938023e-02       2.595028332803e+04 
       1.793045412706e-02       2.587635277411e+04 
       1.936085890181e-02       2.563215785903e+04 
       2.090537352463e-02       2.520936096515e+04 
       2.257309535333e-02       2.460448486353e+04 
       2.437382002918e-02       2.382100542736e+04 
       2.631799944462e-02       2.287038504954e+04 
       2.841644545389e-02       2.177446922734e+04 
       3.067933355377e-02       2.056554545306e+04 
       3.311368470740e-02       1.928729887467e+04 
       3.571840443502e-02       1.799400739222e+04 
       3.847720348444e-02       1.674680303404e+04 
       4.135335538431e-02       1.560455103969e+04 
       4.429361667738e-02       1.461033776236e+04 
       4.724366439141e-02       1.378053099461e+04 
       5.016480835311e-02       1.310504185410e+04 
       5.303989620246e-02       1.255717391177e+04 
       5.586870669566e-02       1.210420523266e+04 
       5.866042680613e-02       1.171466066383e+04 
       6.142798932958e-02       1.136048496055e+04 
       6.418496440164e-02       1.101861196057e+04 
       6.694418833788e-02       1.067066017849e+04 
       6.971731106057e-02       1.030352863877e+04 
       7.251476155766e-02       9.909053632018e+03 
       7.534587671527e-02       9.483680904845e+03 
       7.821907666265e-02       9.029382559635e+03 
       8.114203772912e-02       8.552192682831e+03 
       8.412184535029e-02       8.061960482195e+03 
       8.716512279304e-02       7.570790622327e+03 
       9.027813695930e-02       7.092481360311e+03 
       9.346688431697e-02       6.640513792383e+03 
       9.673716028276e-02       6.226712998096e+03 
       1.000946150830e-01       5.859932768100e+03 
       1.035447986537e-01       5.545252791448e+03 
       1.070931966762e-01       5.283162151601e+03 
       1.107452594425e-01       5.069432559720e+03 
       1.145064249153e-01       4.895245764536e+03 
       1.183821370918e-01       4.747838202831e+03 
       1.223778605862e-01       4.611745705580e+03 
       1.264990921987e-01       4.470606935060e+03 
       1.307513701367e-01       4.310254328784e+03 
       1.351402814784e-01       4.121379491552e+03 
       1.396714684203e-01       3.902055954414e+03 
       1.443506338194e-01       3.658651277264e+03 
       1.491835465229e-01       3.404482364042e+03 
       1.541760469708e-01       3.156661532199e+03 
       1.593340535561e-01       2.931933184452e+03 
       1.646635702297e-01       2.742354423424e+03 
       1.701706958456e-01       2.592233707361e+03 
       1.758616357459e-01       2.477218221403e+03 
       1.817427160982e-01       2.385158079124e+03 
       1.878204015065e-01       2.300349980546e+03 
       1.941013164283e-01       2.205734235516e+03 
       2.005922709503e-01       2.090789845073e+03 
       2.073002914972e-01       1.956468975622e+03 
       2.142326570816e-01       1.814171604638e+03 
       2.213969417533e-01       1.679260298557e+03 
       2.288010639706e-01       1.563826213829e+03 
       2.364533437147e-01       1.472668215744e+03 
       2.443625682930e-01       1.401497463967e+03 
       2.525380679504e-01       1.338398192352e+03 
       2.609898026346e-01       1.270895449968e+03 
       2.697284615565e-01       1.193371593540e+03 
       2.787655775689e-01       1.109319506995e+03 
       2.881136588829e-01       1.028745085168e+03 
       2.977863412677e-01       9.604569623779e+02 
       3.077985646929e-01       9.049978053126e+02 
       3.181667794071e-01       8.561227192272e+02 
       3.289091877812e-01       8.061602931749e+02 
       3.400460299658e-01       7.523627206636e+02 
       3.515999236474e-01       6.988933537594e+02 
       3.635962711085e-01       6.510293924266e+02 
       3.760637506334e-01       6.100887510164e+02 
       3.890349143879e-01       5.721004222037e+02 
       4.025469216825e-01       5.337503595487e+02 
       4.166424456376e-01       4.955945294518e+02 
       4.313708035863e-01       4.604315099579e+02 
       4.467893782977e-01       4.287377542047e+02 
       4.629654199664e-01       3.987319819585e+02 
       4.799783501994e-01       3.691973082868e+02 
       4.979227319373e-01       3.411933908055e+02 
       5.169121270864e-01       3.154344842536e+02 
       5.370841404489e-01       2.907842753456e+02 
       5.586070464571e-01       2.670524917895e+02 
       5.816885094930e-01       2.447523226230e+02 
       6.065870144995e-01       2.235077659987e+02 
       6.336266468475e-01       2.031463134171e+02 
       6.632156059511e-01       1.838102454813e+02 
       6.958678639263e-01       1.652813124537e+02 
       7.322247985589e-01       1.476168346916e+02 
       7.730680195114e-01       1.307488891659e+02 
       8.193049553677e-01       1.147395767015e+02 
       8.718988016039e-01       9.966288531620e+01 
       9.317218031082e-01       8.566866691981e+01 
       9.993660908989e-01       7.293473059526e+01 
       1.075037110174e+00       6.160355155889e+01 
       1.158653485707e+00       5.173329208433e+01 
       1.250099157308e+00       4.327911559165e+01 
       1.349432401273e+00       3.611172881969e+01 
       1.456947457397e+00       3.007207977161e+01 
       1.573135111331e+00       2.499910052886e+01 
       1.698621895592e+00       2.074525035129e+01 
       1.834127512934e+00       1.718264079068e+01 
       1.980444934528e+00       1.420121895082e+01 
       2.138435191726e+00       1.170817526516e+01 
       2.309029199186e+00       9.624337243428e+00 
       2.493232377687e+00       7.883279580144e+00 
       2.692130395285e+00       6.429040400126e+00 
       2.906895534573e+00       5.214532760798e+00 
       3.138793597714e+00       4.200259423112e+00 
       3.389191366484e+00       3.353558673525e+00 
       3.659564657905e+00       2.647187900103e+00 
       3.951507022538e+00       2.058799702140e+00 
       4.266739136701e+00       1.570136030703e+00 
       4.607118943941e+00       1.166522931570e+00 
       4.974652605557e+00       8.363543143126e-01 
       5.371506324689e+00       5.705700403607e-01 
       5.800019113685e+00       3.621687135422e-01 
       6.262716579983e+00       2.056775604613e-01 
       6.762325811764e+00       9.653169982517e-02 
       7.301791451110e+00       3.033681281352e-02 
       7.884293049406e+00       2.074604180825e-03 
       8.513263807261e+00       5.296396688457e-03 
       9.192410809424e+00       3.151959524141e-02 
       9.925736873929e+00       7.007292954629e-02 
       1.071756414427e+01       1.087702231084e-01 
       1.157255956364e+01       1.356083933746e-01 
       1.249576238137e+01       1.415273657982e-01 
       1.349261385375e+01       1.235184970812e-01 
       1.456898931416e+01       8.679724563641e-02 
       1.573123280165e+01       4.420180266766e-02 
       1.698619445202e+01       1.158594086960e-02 
       1.834127087176e+01       6.460962205647e-07 
       1.980444873285e+01       8.633148670999e-03 
       2.138435184532e+01       2.429799664242e-02 
       2.309029198506e+01       3.055589062223e-02 
       2.493232377636e+01       2.133120882117e-02 
       2.692130395282e+01       6.334474879956e-03 
       2.906895534573e+01       1.258246768859e-06 
       3.138793597714e+01       4.287956628073e-03 
       3.389191366484e+01       7.776897493213e-03 
       3.659564657905e+01       3.980731115251e-03 
       3.951507022538e+01       9.585549632318e-05 
       4.266739136701e+01       1.252578182238e-03 
       4.607118943941e+01       1.875616872640e-03 
       4.974652605557e+01       2.359041838501e-04 
       5.371506324689e+01       2.785701206824e-04 
       5.800019113685e+01       4.619974961963e-04 
       6.262716579983e+01       2.665418320394e-06 
       6.762325811764e+01       1.483884657526e-04 
