# Matter power spectrum P(k) at redshift z=99
# for k=1.04775e-05 to 67.6233 h/Mpc,
# number of wavenumbers equal to 246
#    1:k (h/Mpc)              2:P (Mpc/h)^3        
       1.047750691338e-05       7.261927673142e-03 
       1.131335172818e-05       7.820331745761e-03 
       1.221587619877e-05       8.421675986515e-03 
       1.319039970550e-05       9.069258192223e-03 
       1.424266598317e-05       9.766638404451e-03 
       1.537887697396e-05       1.051764069685e-02 
       1.660572938097e-05       1.132639105523e-02 
       1.793045413791e-05       1.219733231420e-02 
       1.936085902737e-05       1.313524224385e-02 
       2.090537469909e-05       1.414527121898e-02 
       2.257310435923e-05       1.523296272197e-02 
       2.437387742372e-05       1.640429444535e-02 
       2.631830745176e-05       1.766569582183e-02 
       2.841785470091e-05       1.902408601799e-02 
       3.068489367268e-05       2.048692970598e-02 
       3.313278604643e-05       2.206225513601e-02 
       3.577595943165e-05       2.375870704916e-02 
       3.862999240274e-05       2.558560727487e-02 
       4.171170631739e-05       2.755297763352e-02 
       4.503926445983e-05       2.967161927324e-02 
       4.863227909323e-05       3.195316450842e-02 
       5.251192705226e-05       3.441013519295e-02 
       5.670107455699e-05       3.705601722535e-02 
       6.122441198393e-05       3.990533413575e-02 
       6.610859938837e-05       4.297372168216e-02 
       7.138242363583e-05       4.627802141703e-02 
       7.707696806873e-05       4.983636194174e-02 
       8.322579570814e-05       5.366826847248e-02 
       8.986514707061e-05       5.779476394587e-02 
       9.703415376577e-05       6.223848243904e-02 
       1.047750691338e-04       6.702379865660e-02 
       1.131335172818e-04       7.217695153403e-02 
       1.221587619877e-04       7.772619073597e-02 
       1.319039970550e-04       8.370193432402e-02 
       1.424266598317e-04       9.013692507575e-02 
       1.537887697396e-04       9.706641242600e-02 
       1.660572938097e-04       1.045283354275e-01 
       1.793045413791e-04       1.125635349072e-01 
       1.936085902737e-04       1.212159614972e-01 
       2.090537469909e-04       1.305329132718e-01 
       2.257310435923e-04       1.405652846219e-01 
       2.437387742372e-04       1.513678302545e-01 
       2.631830745176e-04       1.629994504876e-01 
       2.841785470091e-04       1.755234921230e-01 
       3.068489367268e-04       1.890080670419e-01 
       3.313278604643e-04       2.035264002441e-01 
       3.577595943165e-04       2.191571803688e-01 
       3.862999240274e-04       2.359849437599e-01 
       4.171170631739e-04       2.541004741546e-01 
       4.503926445983e-04       2.736012080285e-01 
       4.863227909323e-04       2.945916790973e-01 
       5.251192705226e-04       3.171839525191e-01 
       5.670107455699e-04       3.414980764011e-01 
       6.122441198393e-04       3.676625413110e-01 
       6.610859938837e-04       3.958147252314e-01 
       7.138242363583e-04       4.261013284913e-01 
       7.707696806873e-04       4.586787792365e-01 
       8.322579570814e-04       4.937136001368e-01 
       8.986514707061e-04       5.313826801412e-01 
       9.703415376577e-04       5.718734972168e-01 
       1.047750691338e-03       6.153841629515e-01 
       1.131335172818e-03       6.621233239474e-01 
       1.221587619877e-03       7.123098220430e-01 
       1.319039970550e-03       7.661720584768e-01 
       1.424266598317e-03       8.239546297729e-01 
       1.537887697396e-03       8.859011173465e-01 
       1.660572938097e-03       9.522588006393e-01 
       1.793045413791e-03       1.023280099818e+00 
       1.936085902737e-03       1.099216304576e+00 
       2.090537469909e-03       1.180312990449e+00 
       2.257310435923e-03       1.266804115841e+00 
       2.437387742372e-03       1.358904853397e+00 
       2.631830745176e-03       1.456802683144e+00 
       2.841785470091e-03       1.560646890505e+00 
       3.068489367268e-03       1.670536062477e+00 
       3.313278604643e-03       1.786503852134e+00 
       3.577595943165e-03       1.908502930750e+00 
       3.862999240274e-03       2.036387730660e+00 
       4.171170631739e-03       2.169896178561e+00 
       4.503926445983e-03       2.308631878913e+00 
       4.863227909323e-03       2.452047290859e+00 
       5.251192705226e-03       2.599430627957e+00 
       5.670107455699e-03       2.749896931663e+00 
       6.122441198393e-03       2.902386513178e+00 
       6.610859938837e-03       3.055668706340e+00 
       7.138242363583e-03       3.208356461218e+00 
       7.707696806873e-03       3.358923892689e+00 
       8.322579570814e-03       3.505725594906e+00 
       8.986514707061e-03       3.647009655071e+00 
       9.703415376577e-03       3.780923303487e+00 
       1.047750691338e-02       3.905491333893e+00 
       1.131335172818e-02       4.018588635814e+00 
       1.221587619877e-02       4.117901582973e+00 
       1.319039970550e-02       4.200915388433e+00 
       1.424266598317e-02       4.264942489664e+00 
       1.537887697392e-02       4.307217787227e+00 
       1.660572938023e-02       4.325062862161e+00 
       1.793045412706e-02       4.316057095894e+00 
       1.936085890181e-02       4.278225711706e+00 
       2.090537352463e-02       4.210200868623e+00 
       2.257309535333e-02       4.111420496215e+00 
       2.437382002918e-02       3.982420880835e+00 
       2.631799944462e-02       3.825164618772e+00 
       2.841644545389e-02       3.643277881773e+00 
       3.067933355377e-02       3.442194200266e+00 
       3.311368470740e-02       3.229240945274e+00 
       3.571840443502e-02       3.013507742433e+00 
       3.847720348444e-02       2.805277595703e+00 
       4.135335538431e-02       2.614405845633e+00 
       4.429361667738e-02       2.448127975542e+00 
       4.724366439141e-02       2.309234961712e+00 
       5.016480835311e-02       2.196112493291e+00 
       5.303989620246e-02       2.104364356789e+00 
       5.586870669566e-02       2.028463233652e+00 
       5.866042680613e-02       1.963150108340e+00 
       6.142798932958e-02       1.903784474872e+00 
       6.418496440164e-02       1.846478558683e+00 
       6.694418833788e-02       1.788196773274e+00 
       6.971731106057e-02       1.726715218241e+00 
       7.251476155766e-02       1.660653750466e+00 
       7.534587671527e-02       1.589471940663e+00 
       7.821907666265e-02       1.513437532164e+00 
       8.114203772912e-02       1.433571950251e+00 
       8.412184535029e-02       1.351493372120e+00 
       8.716512279304e-02       1.269274491842e+00 
       9.027813695930e-02       1.189193746153e+00 
       9.346688431697e-02       1.113500745799e+00 
       9.673716028276e-02       1.044178270041e+00 
       1.000946150830e-01       9.827069507654e-01 
       1.035447986537e-01       9.299379447637e-01 
       1.070931966762e-01       8.859592845458e-01 
       1.107452594425e-01       8.500692448428e-01 
       1.145064249153e-01       8.208019429486e-01 
       1.183821370918e-01       7.960247185680e-01 
       1.223778605862e-01       7.731475605291e-01 
       1.264990921987e-01       7.494509759324e-01 
       1.307513701367e-01       7.225574489265e-01 
       1.351402814784e-01       6.909080973726e-01 
       1.396714684203e-01       6.541822964818e-01 
       1.443506338194e-01       6.134274199557e-01 
       1.491835465229e-01       5.708681401124e-01 
       1.541760469708e-01       5.293629264295e-01 
       1.593340535561e-01       4.917089077214e-01 
       1.646635702297e-01       4.599188254183e-01 
       1.701706958456e-01       4.347255740206e-01 
       1.758616357459e-01       4.154053968271e-01 
       1.817427160982e-01       3.999347630864e-01 
       1.878204015065e-01       3.856817276756e-01 
       1.941013164283e-01       3.698092621294e-01 
       2.005922709503e-01       3.505447262351e-01 
       2.073002914972e-01       3.280449642902e-01 
       2.142326570816e-01       3.042122670937e-01 
       2.213969417533e-01       2.816089071576e-01 
       2.288010639706e-01       2.622543150452e-01 
       2.364533437147e-01       2.469591567752e-01 
       2.443625682930e-01       2.350104113428e-01 
       2.525380679504e-01       2.244147523160e-01 
       2.609898026346e-01       2.130912040511e-01 
       2.697284615565e-01       2.000990142093e-01 
       2.787655775689e-01       1.860165338159e-01 
       2.881136588829e-01       1.725128368445e-01 
       2.977863412677e-01       1.610616588916e-01 
       3.077985646929e-01       1.517561847473e-01 
       3.181667794071e-01       1.435553719284e-01 
       3.289091877812e-01       1.351769703325e-01 
       3.400460299658e-01       1.261592947133e-01 
       3.515999236474e-01       1.171963881564e-01 
       3.635962711085e-01       1.091706114555e-01 
       3.760637506334e-01       1.023030956449e-01 
       3.890349143879e-01       9.593104188484e-02 
       4.025469216825e-01       8.950082781965e-02 
       4.166424456376e-01       8.310435621540e-02 
       4.313708035863e-01       7.720779250034e-02 
       4.467893782977e-01       7.189266720125e-02 
       4.629654199664e-01       6.686048855142e-02 
       4.799783501994e-01       6.190843254891e-02 
       4.979227319373e-01       5.721254936515e-02 
       5.169121270864e-01       5.289284256893e-02 
       5.370841404489e-01       4.875906492255e-02 
       5.586070464571e-01       4.477946020896e-02 
       5.816885094930e-01       4.103980084481e-02 
       6.065870144995e-01       3.747709601886e-02 
       6.336266468475e-01       3.406268726058e-02 
       6.632156059511e-01       3.082010625121e-02 
       6.958678639263e-01       2.771272443218e-02 
       7.322247985589e-01       2.475042335591e-02 
       7.730680195114e-01       2.192155791059e-02 
       8.193049553677e-01       1.923655947041e-02 
       8.718988016039e-01       1.670799098535e-02 
       9.317218031082e-01       1.436090971033e-02 
       9.993660908989e-01       1.222506570070e-02 
       1.075037110174e+00       1.032440680461e-02 
       1.158653485707e+00       8.668627968008e-03 
       1.250099157308e+00       7.250310558845e-03 
       1.349432401273e+00       6.047639098667e-03 
       1.456947457397e+00       5.034094960497e-03 
       1.573135111331e+00       4.182540804631e-03 
       1.698621895592e+00       3.468291824721e-03 
       1.834127512934e+00       2.869909829486e-03 
       1.980444934528e+00       2.368935198355e-03 
       2.138435191726e+00       1.949779554042e-03 
       2.309029199186e+00       1.599226841750e-03 
       2.493232377687e+00       1.306142826569e-03 
       2.692130395285e+00       1.061136165607e-03 
       2.906895534573e+00       8.563639911046e-04 
       3.138793597714e+00       6.852656383423e-04 
       3.389191366484e+00       5.423785708983e-04 
       3.659564657905e+00       4.232199789995e-04 
       3.951507022538e+00       3.241179411978e-04 
       4.266739136701e+00       2.421125424132e-04 
       4.607118943941e+00       1.748469487992e-04 
       4.974652605557e+00       1.204844452137e-04 
       5.371506324689e+00       7.760453920148e-05 
       5.800019113685e+00       4.509954964000e-05 
       6.262716579983e+00       2.206110653142e-05 
       6.762325811764e+00       7.636836622123e-06 
       7.301791451110e+00       8.760342699464e-07 
       7.884293049406e+00       5.678409025494e-07 
       8.513263807261e+00       5.112583512042e-06 
       9.192410809424e+00       1.247322608989e-05 
       9.925736873929e+00       2.027407401108e-05 
       1.071756414427e+01       2.610672715488e-05 
       1.157255956364e+01       2.804008211434e-05 
       1.249576238137e+01       2.524300354399e-05 
       1.349261385375e+01       1.846667192141e-05 
       1.456898931416e+01       1.003799678636e-05 
       1.573123280165e+01       3.086027995547e-06 
       1.698619445202e+01       6.213546885503e-08 
       1.834127087176e+01       1.244229692707e-06 
       1.980444873285e+01       4.351576598065e-06 
       2.138435184532e+01       6.054377948173e-06 
       2.309029198506e+01       4.669599843508e-06 
       2.493232377636e+01       1.674749748539e-06 
       2.692130395282e+01       2.651462548233e-08 
       2.906895534573e+01       6.538417382005e-07 
       3.138793597714e+01       1.532158945729e-06 
       3.389191366484e+01       9.674744141043e-07 
       3.659564657905e+01       7.019629126884e-08 
       3.951507022538e+01       1.812089962129e-07 
       4.266739136701e+01       4.023486493830e-07 
       4.607118943941e+01       8.923112052853e-08 
       4.974652605557e+01       3.313477705356e-08 
       5.371506324689e+01       1.055969698115e-07 
       5.800019113685e+01       5.578891029072e-09 
       6.262716579983e+01       2.663253076485e-08 
       6.762325811764e+01       8.623468947200e-09 
