# Matter power spectrum P(k) at redshift z=99
# for k=1.04775e-05 to 67.6233 h/Mpc,
# number of wavenumbers equal to 246
#    1:k (h/Mpc)              2:P (Mpc/h)^3        
       1.047750691338e-05       7.261927673147e-03 
       1.131335172818e-05       7.820331745768e-03 
       1.221587619877e-05       8.421675986522e-03 
       1.319039970550e-05       9.069258192230e-03 
       1.424266598317e-05       9.766638404459e-03 
       1.537887697396e-05       1.051764069686e-02 
       1.660572938097e-05       1.132639105524e-02 
       1.793045413791e-05       1.219733231421e-02 
       1.936085902737e-05       1.313524224386e-02 
       2.090537469909e-05       1.414527121899e-02 
       2.257310435923e-05       1.523296272198e-02 
       2.437387742372e-05       1.640429444536e-02 
       2.631830745176e-05       1.766569582184e-02 
       2.841785470091e-05       1.902408601800e-02 
       3.068489367268e-05       2.048692970599e-02 
       3.313278604643e-05       2.206225513602e-02 
       3.577595943165e-05       2.375870704918e-02 
       3.862999240274e-05       2.558560727489e-02 
       4.171170631739e-05       2.755297763354e-02 
       4.503926445983e-05       2.967161927327e-02 
       4.863227909323e-05       3.195316450844e-02 
       5.251192705226e-05       3.441013519298e-02 
       5.670107455699e-05       3.705601722541e-02 
       6.122441198393e-05       3.990533413578e-02 
       6.610859938837e-05       4.297372168220e-02 
       7.138242363583e-05       4.627802141706e-02 
       7.707696806873e-05       4.983636194178e-02 
       8.322579570814e-05       5.366826847252e-02 
       8.986514707061e-05       5.779476394591e-02 
       9.703415376577e-05       6.223848243909e-02 
       1.047750691338e-04       6.702379865666e-02 
       1.131335172818e-04       7.217695153409e-02 
       1.221587619877e-04       7.772619073604e-02 
       1.319039970550e-04       8.370193432408e-02 
       1.424266598317e-04       9.013692507581e-02 
       1.537887697396e-04       9.706641242608e-02 
       1.660572938097e-04       1.045283354275e-01 
       1.793045413791e-04       1.125635349073e-01 
       1.936085902737e-04       1.212159614973e-01 
       2.090537469909e-04       1.305329132719e-01 
       2.257310435923e-04       1.405652846220e-01 
       2.437387742372e-04       1.513678302546e-01 
       2.631830745176e-04       1.629994504877e-01 
       2.841785470091e-04       1.755234921231e-01 
       3.068489367268e-04       1.890080670420e-01 
       3.313278604643e-04       2.035264002443e-01 
       3.577595943165e-04       2.191571803689e-01 
       3.862999240274e-04       2.359849437602e-01 
       4.171170631739e-04       2.541004741548e-01 
       4.503926445983e-04       2.736012080287e-01 
       4.863227909323e-04       2.945916790975e-01 
       5.251192705226e-04       3.171839525193e-01 
       5.670107455699e-04       3.414980764014e-01 
       6.122441198393e-04       3.676625413113e-01 
       6.610859938837e-04       3.958147252316e-01 
       7.138242363583e-04       4.261013284937e-01 
       7.707696806873e-04       4.586787792362e-01 
       8.322579570814e-04       4.937136001373e-01 
       8.986514707061e-04       5.313826801415e-01 
       9.703415376577e-04       5.718734972171e-01 
       1.047750691338e-03       6.153841629515e-01 
       1.131335172818e-03       6.621233239477e-01 
       1.221587619877e-03       7.123098220436e-01 
       1.319039970550e-03       7.661720584263e-01 
       1.424266598317e-03       8.239546297735e-01 
       1.537887697396e-03       8.859011173464e-01 
       1.660572938097e-03       9.522588006451e-01 
       1.793045413791e-03       1.023280099817e+00 
       1.936085902737e-03       1.099216304576e+00 
       2.090537469909e-03       1.180312990447e+00 
       2.257310435923e-03       1.266804115841e+00 
       2.437387742372e-03       1.358904853395e+00 
       2.631830745176e-03       1.456802683141e+00 
       2.841785470091e-03       1.560646890501e+00 
       3.068489367268e-03       1.670536062472e+00 
       3.313278604643e-03       1.786503852124e+00 
       3.577595943165e-03       1.908502930742e+00 
       3.862999240274e-03       2.036387730648e+00 
       4.171170631739e-03       2.169896178677e+00 
       4.503926445983e-03       2.308631878893e+00 
       4.863227909323e-03       2.452047290833e+00 
       5.251192705226e-03       2.599430627924e+00 
       5.670107455699e-03       2.749896931594e+00 
       6.122441198393e-03       2.902386513123e+00 
       6.610859938837e-03       3.055668699361e+00 
       7.138242363583e-03       3.208356461134e+00 
       7.707696806873e-03       3.358923892961e+00 
       8.322579570814e-03       3.505725594481e+00 
       8.986514707061e-03       3.647009990863e+00 
       9.703415376577e-03       3.780923303328e+00 
       1.047750691338e-02       3.905491146610e+00 
       1.131335172818e-02       4.018588028519e+00 
       1.221587619877e-02       4.117901584083e+00 
       1.319039970550e-02       4.200915344029e+00 
       1.424266598317e-02       4.264943299038e+00 
       1.537887697392e-02       4.307219318874e+00 
       1.660572938023e-02       4.325065905185e+00 
       1.793045412706e-02       4.316057039481e+00 
       1.936085890181e-02       4.278230123938e+00 
       2.090537352463e-02       4.210202400738e+00 
       2.257309535333e-02       4.111418683337e+00 
       2.437382002918e-02       3.982418543150e+00 
       2.631799944462e-02       3.825171290199e+00 
       2.841644545389e-02       3.643276828503e+00 
       3.067933355377e-02       3.442194591240e+00 
       3.311368470740e-02       3.229239622915e+00 
       3.571840443502e-02       3.013513513621e+00 
       3.847720348444e-02       2.805280252548e+00 
       4.135335538431e-02       2.614412301496e+00 
       4.429361667738e-02       2.448130631352e+00 
       4.724366439141e-02       2.309232900910e+00 
       5.016480835311e-02       2.196113063100e+00 
       5.303989620246e-02       2.104364415331e+00 
       5.586870669566e-02       2.028461867014e+00 
       5.866042680613e-02       1.963151553042e+00 
       6.142798932958e-02       1.903781348090e+00 
       6.418496440164e-02       1.846479867678e+00 
       6.694418833788e-02       1.788197460101e+00 
       6.971731106057e-02       1.726716162619e+00 
       7.251476155766e-02       1.660653640473e+00 
       7.534587671527e-02       1.589470581950e+00 
       7.821907666265e-02       1.513438543508e+00 
       8.114203772912e-02       1.433566820037e+00 
       8.412184535029e-02       1.351491144335e+00 
       8.716512279304e-02       1.269273980974e+00 
       9.027813695930e-02       1.189193049822e+00 
       9.346688431697e-02       1.113500977239e+00 
       9.673716028276e-02       1.044174127366e+00 
       1.000946150830e-01       9.827045640282e-01 
       1.035447986537e-01       9.299371470575e-01 
       1.070931966762e-01       8.859571426334e-01 
       1.107452594425e-01       8.500711931010e-01 
       1.145064249153e-01       8.208024077826e-01 
       1.183821370918e-01       7.960229465903e-01 
       1.223778605862e-01       7.731429647094e-01 
       1.264990921987e-01       7.494495904299e-01 
       1.307513701367e-01       7.225553543884e-01 
       1.351402814784e-01       6.909080400275e-01 
       1.396714684203e-01       6.541780121005e-01 
       1.443506338194e-01       6.134237863827e-01 
       1.491835465229e-01       5.708659468154e-01 
       1.541760469708e-01       5.293618908689e-01 
       1.593340535561e-01       4.917075063511e-01 
       1.646635702297e-01       4.599160185768e-01 
       1.701706958456e-01       4.347254295723e-01 
       1.758616357459e-01       4.154036670951e-01 
       1.817427160982e-01       3.999322657004e-01 
       1.878204015065e-01       3.856784946052e-01 
       1.941013164283e-01       3.698049660801e-01 
       2.005922709503e-01       3.505403818370e-01 
       2.073002914972e-01       3.280380249960e-01 
       2.142326570816e-01       3.042087345634e-01 
       2.213969417533e-01       2.816052249418e-01 
       2.288010639706e-01       2.622507972085e-01 
       2.364533437147e-01       2.469551902889e-01 
       2.443625682930e-01       2.350058555968e-01 
       2.525380679504e-01       2.244098105948e-01 
       2.609898026346e-01       2.130858363605e-01 
       2.697284615565e-01       2.000935186376e-01 
       2.787655775689e-01       1.860111797412e-01 
       2.881136588829e-01       1.725073369271e-01 
       2.977863412677e-01       1.610558400364e-01 
       3.077985646929e-01       1.517504285882e-01 
       3.181667794071e-01       1.435476834832e-01 
       3.289091877812e-01       1.351699395816e-01 
       3.400460299658e-01       1.261522759616e-01 
       3.515999236474e-01       1.171891768822e-01 
       3.635962711085e-01       1.091633141595e-01 
       3.760637506334e-01       1.022951750958e-01 
       3.890349143879e-01       9.592257241853e-02 
       4.025469216825e-01       8.949175360200e-02 
       4.166424456376e-01       8.309483726272e-02 
       4.313708035863e-01       7.719778278489e-02 
       4.467893782977e-01       7.188179220910e-02 
       4.629654199664e-01       6.684934310514e-02 
       4.799783501994e-01       6.189666073217e-02 
       4.979227319373e-01       5.720007392540e-02 
       5.169121270864e-01       5.287964561436e-02 
       5.370841404489e-01       4.874520985497e-02 
       5.586070464571e-01       4.476474993181e-02 
       5.816885094930e-01       4.102407111785e-02 
       6.065870144995e-01       3.746048845279e-02 
       6.336266468475e-01       3.404497816470e-02 
       6.632156059511e-01       3.080114561799e-02 
       6.958678639263e-01       2.769248783368e-02 
       7.322247985589e-01       2.472867372995e-02 
       7.730680195114e-01       2.189817114189e-02 
       8.193049553677e-01       1.921120918424e-02 
       8.718988016039e-01       1.668039930691e-02 
       9.317218031082e-01       1.433081970726e-02 
       9.993660908989e-01       1.219202252805e-02 
       1.075037110174e+00       1.028812405265e-02 
       1.158653485707e+00       8.628683732229e-03 
       1.250099157308e+00       7.206375329932e-03 
       1.349432401273e+00       5.999409547264e-03 
       1.456947457397e+00       4.981225335029e-03 
       1.573135111331e+00       4.124741462822e-03 
       1.698621895592e+00       3.405281069520e-03 
       1.834127512934e+00       2.801447912052e-03 
       1.980444934528e+00       2.294836200058e-03 
       2.138435191726e+00       1.869944230204e-03 
       2.309029199186e+00       1.513647510498e-03 
       2.493232377687e+00       1.215003093015e-03 
       2.692130395285e+00       9.648311197180e-04 
       2.906895534573e+00       7.555340868929e-04 
       3.138793597714e+00       5.809132960141e-04 
       3.389191366484e+00       4.359211374182e-04 
       3.659564657905e+00       3.165559675416e-04 
       3.951507022538e+00       2.196734740834e-04 
       4.266739136701e+00       1.428497881656e-04 
       4.607118943941e+00       8.420144479508e-05 
       4.974652605557e+00       4.219334933295e-05 
       5.371506324689e+00       1.539501446414e-05 
       5.800019113685e+00       2.210055386795e-06 
       6.262716579983e+00       5.985791357236e-07 
       6.762325811764e+00       7.837859820132e-06 
       7.301791451110e+00       2.042278552326e-05 
       7.884293049406e+00       3.421107500236e-05 
       8.513263807261e+00       4.493280019940e-05 
       9.192410809424e+00       4.905769515218e-05 
       9.925736873929e+00       4.490233633022e-05 
       1.071756414427e+01       3.351834308062e-05 
       1.157255956364e+01       1.878955849830e-05 
       1.249576238137e+01       6.187694380777e-06 
       1.349261385375e+01       2.390854376040e-07 
       1.456898931416e+01       1.817291095823e-06 
       1.573123280165e+01       7.226751085257e-06 
       1.698619445202e+01       1.059005611486e-05 
       1.834127087176e+01       8.558290089707e-06 
       1.980444873285e+01       3.321753107739e-06 
       2.138435184532e+01       1.082996852222e-07 
       2.309029198506e+01       9.943614038677e-07 
       2.493232377636e+01       2.669377342023e-06 
       2.692130395282e+01       1.849666582897e-06 
       2.906895534573e+01       1.849487516250e-07 
       3.138793597714e+01       2.670046320138e-07 
       3.389191366484e+01       7.280142301474e-07 
       3.659564657905e+01       1.992640234811e-07 
       3.951507022538e+01       4.277402320290e-08 
       4.266739136701e+01       1.962283789754e-07 
       4.607118943941e+01       1.728625359114e-08 
       4.974652605557e+01       4.403764889020e-08 
       5.371506324689e+01       2.040982765011e-08 
       5.800019113685e+01       8.657479933938e-09 
       6.262716579983e+01       5.945218659860e-09 
       6.762325811764e+01       3.209153127705e-09 
