# Matter power spectrum P(k) at redshift z=99
# for k=1.04775e-05 to 134.926 h/Mpc,
# number of wavenumbers equal to 255
#    1:k (h/Mpc)              2:P (Mpc/h)^3        
       1.047750691338e-05       7.261927095365e-03 
       1.131335172818e-05       7.820332150842e-03 
       1.221587619877e-05       8.421675382423e-03 
       1.319039970550e-05       9.069257738103e-03 
       1.424266598317e-05       9.766636451233e-03 
       1.537887697396e-05       1.051763973653e-02 
       1.660572938097e-05       1.132639250764e-02 
       1.793045413791e-05       1.219733201522e-02 
       1.936085902737e-05       1.313524187218e-02 
       2.090537469909e-05       1.414527084994e-02 
       2.257310435923e-05       1.523296544510e-02 
       2.437387742372e-05       1.640429654660e-02 
       2.631830745176e-05       1.766569603308e-02 
       2.841785470091e-05       1.902408711186e-02 
       3.068489367268e-05       2.048692967470e-02 
       3.313278604643e-05       2.206225467576e-02 
       3.577595943165e-05       2.375870883882e-02 
       3.862999240274e-05       2.558560669855e-02 
       4.171170631739e-05       2.755297672543e-02 
       4.503926445983e-05       2.967161933451e-02 
       4.863227909323e-05       3.195316455697e-02 
       5.251192705226e-05       3.441013466179e-02 
       5.670107455699e-05       3.705601741750e-02 
       6.122441198393e-05       3.990533412888e-02 
       6.610859938837e-05       4.297372242587e-02 
       7.138242363583e-05       4.627802054910e-02 
       7.707696806873e-05       4.983636159952e-02 
       8.322579570814e-05       5.366826787002e-02 
       8.986514707061e-05       5.779476319808e-02 
       9.703415376577e-05       6.223848221916e-02 
       1.047750691338e-04       6.702379825108e-02 
       1.131335172818e-04       7.217695031173e-02 
       1.221587619877e-04       7.772619030463e-02 
       1.319039970550e-04       8.370193380150e-02 
       1.424266598317e-04       9.013692506785e-02 
       1.537887697396e-04       9.706641130527e-02 
       1.660572938097e-04       1.045283343125e-01 
       1.793045413791e-04       1.125635329201e-01 
       1.936085902737e-04       1.212159592326e-01 
       2.090537469909e-04       1.305329107454e-01 
       2.257310435923e-04       1.405652819380e-01 
       2.437387742372e-04       1.513678275097e-01 
       2.631830745176e-04       1.629994475156e-01 
       2.841785470091e-04       1.755234890503e-01 
       3.068489367268e-04       1.890080645326e-01 
       3.313278604643e-04       2.035263977461e-01 
       3.577595943165e-04       2.191571778076e-01 
       3.862999240274e-04       2.359849423295e-01 
       4.171170631739e-04       2.541004713039e-01 
       4.503926445983e-04       2.736012061199e-01 
       4.863227909323e-04       2.945916774686e-01 
       5.251192705226e-04       3.171839507909e-01 
       5.670107455699e-04       3.414980769156e-01 
       6.122441198393e-04       3.676625416351e-01 
       6.610859938837e-04       3.958147272918e-01 
       7.138242363583e-04       4.261013332120e-01 
       7.707696806873e-04       4.586787880907e-01 
       8.322579570814e-04       4.937136112880e-01 
       8.986514707061e-04       5.313826962136e-01 
       9.703415376577e-04       5.718735176863e-01 
       1.047750691338e-03       6.153841926307e-01 
       1.131335172818e-03       6.621233623176e-01 
       1.221587619877e-03       7.123098743700e-01 
       1.319039970550e-03       7.661721263824e-01 
       1.424266598317e-03       8.239547181321e-01 
       1.537887697396e-03       8.859012282809e-01 
       1.660572938097e-03       9.522589495707e-01 
       1.793045413791e-03       1.023280284727e+00 
       1.936085902737e-03       1.099216542111e+00 
       2.090537469909e-03       1.180313285035e+00 
       2.257310435923e-03       1.266804486798e+00 
       2.437387742372e-03       1.358905328441e+00 
       2.631830745176e-03       1.456803285912e+00 
       2.841785470091e-03       1.560647662979e+00 
       3.068489367268e-03       1.670537010491e+00 
       3.313278604643e-03       1.786505039519e+00 
       3.577595943165e-03       1.908504409953e+00 
       3.862999240274e-03       2.036389468535e+00 
       4.171170631739e-03       2.169898252504e+00 
       4.503926445983e-03       2.308634491576e+00 
       4.863227909323e-03       2.452050674261e+00 
       5.251192705226e-03       2.599434680465e+00 
       5.670107455699e-03       2.749901125606e+00 
       6.122441198393e-03       2.902390057234e+00 
       6.610859938837e-03       3.055671268442e+00 
       7.138242363583e-03       3.208360121105e+00 
       7.707696806873e-03       3.358926649191e+00 
       8.322579570814e-03       3.505726887182e+00 
       8.986514707061e-03       3.647012434563e+00 
       9.703415376577e-03       3.780926175346e+00 
       1.047750691338e-02       3.905492875863e+00 
       1.131335172818e-02       4.018589820253e+00 
       1.221587619877e-02       4.117902881878e+00 
       1.319039970550e-02       4.200917692181e+00 
       1.424266598317e-02       4.264943729297e+00 
       1.537887697392e-02       4.307219658397e+00 
       1.660572938023e-02       4.325062444725e+00 
       1.793045412706e-02       4.316060376881e+00 
       1.936085890181e-02       4.278228914287e+00 
       2.090537352463e-02       4.210204452083e+00 
       2.257309535333e-02       4.111418723218e+00 
       2.437382002918e-02       3.982420906366e+00 
       2.631799944462e-02       3.825168649040e+00 
       2.841644545389e-02       3.643282202721e+00 
       3.067933355377e-02       3.442198654088e+00 
       3.311368470740e-02       3.229241539177e+00 
       3.571840443502e-02       3.013516266749e+00 
       3.847720348444e-02       2.805283868937e+00 
       4.135335538431e-02       2.614410586282e+00 
       4.429361667738e-02       2.448132098172e+00 
       4.724366439141e-02       2.309240557923e+00 
       5.016480835311e-02       2.196115101440e+00 
       5.303989620246e-02       2.104369763738e+00 
       5.586870669566e-02       2.028462497128e+00 
       5.866042680613e-02       1.963155215826e+00 
       6.142798932958e-02       1.903779614856e+00 
       6.418496440164e-02       1.846479116561e+00 
       6.694418833788e-02       1.788197384796e+00 
       6.971731106057e-02       1.726715586393e+00 
       7.251476155766e-02       1.660654294557e+00 
       7.534587671527e-02       1.589469755319e+00 
       7.821907666265e-02       1.513436474943e+00 
       8.114203772912e-02       1.433568661887e+00 
       8.412184535029e-02       1.351492157502e+00 
       8.716512279304e-02       1.269273631187e+00 
       9.027813695930e-02       1.189193065058e+00 
       9.346688431697e-02       1.113501000468e+00 
       9.673716028276e-02       1.044174335103e+00 
       1.000946150830e-01       9.827058565044e-01 
       1.035447986537e-01       9.299374517868e-01 
       1.070931966762e-01       8.859583322430e-01 
       1.107452594425e-01       8.500708865247e-01 
       1.145064249153e-01       8.208030943196e-01 
       1.183821370918e-01       7.960239676730e-01 
       1.223778605862e-01       7.731453376552e-01 
       1.264990921987e-01       7.494516975503e-01 
       1.307513701367e-01       7.225571292820e-01 
       1.351402814784e-01       6.909091241254e-01 
       1.396714684203e-01       6.541818761601e-01 
       1.443506338194e-01       6.134272854667e-01 
       1.491835465229e-01       5.708678828444e-01 
       1.541760469708e-01       5.293631320090e-01 
       1.593340535561e-01       4.917095897699e-01 
       1.646635702297e-01       4.599186157329e-01 
       1.701706958456e-01       4.347264583016e-01 
       1.758616357459e-01       4.154062661331e-01 
       1.817427160982e-01       3.999345589711e-01 
       1.878204015065e-01       3.856840093285e-01 
       1.941013164283e-01       3.698121908693e-01 
       2.005922709503e-01       3.505495220112e-01 
       2.073002914972e-01       3.280443056787e-01 
       2.142326570816e-01       3.042113985059e-01 
       2.213969417533e-01       2.816092137539e-01 
       2.288010639706e-01       2.622542750800e-01 
       2.364533437147e-01       2.469590848972e-01 
       2.443625682930e-01       2.350101261408e-01 
       2.525380679504e-01       2.244174080392e-01 
       2.609898026346e-01       2.130929022527e-01 
       2.697284615565e-01       2.000991206248e-01 
       2.787655775689e-01       1.860163033962e-01 
       2.881136588829e-01       1.725134828614e-01 
       2.977863412677e-01       1.610622331054e-01 
       3.077985646929e-01       1.517568426337e-01 
       3.181667794071e-01       1.435552187916e-01 
       3.289091877812e-01       1.351774640332e-01 
       3.400460299658e-01       1.261595464027e-01 
       3.515999236474e-01       1.171972437793e-01 
       3.635962711085e-01       1.091718682593e-01 
       3.760637506334e-01       1.023041537801e-01 
       3.890349143879e-01       9.593216440419e-02 
       4.025469216825e-01       8.950191505672e-02 
       4.166424456376e-01       8.310568091245e-02 
       4.313708035863e-01       7.720922419738e-02 
       4.467893782977e-01       7.189396748006e-02 
       4.629654199664e-01       6.686214509979e-02 
       4.799783501994e-01       6.191037028592e-02 
       4.979227319373e-01       5.721476849764e-02 
       5.169121270864e-01       5.289512877571e-02 
       5.370841404489e-01       4.876150373389e-02 
       5.586070464571e-01       4.478218668265e-02 
       5.816885094930e-01       4.104279000172e-02 
       6.065870144995e-01       3.748030832836e-02 
       6.336266468475e-01       3.406617391457e-02 
       6.632156059511e-01       3.082382488992e-02 
       6.958678639263e-01       2.771693961382e-02 
       7.322247985589e-01       2.475498129549e-02 
       7.730680195114e-01       2.192661597400e-02 
       8.193049553677e-01       1.924215957631e-02 
       8.718988016039e-01       1.671420190427e-02 
       9.317218031082e-01       1.436783093260e-02 
       9.993660908989e-01       1.223283092481e-02 
       1.075037110174e+00       1.033309529569e-02 
       1.158653485707e+00       8.678329156593e-03 
       1.250099157308e+00       7.261092889952e-03 
       1.349432401273e+00       6.059718399803e-03 
       1.456947457397e+00       5.047478319465e-03 
       1.573135111331e+00       4.197400175734e-03 
       1.698621895592e+00       3.484715847493e-03 
       1.834127512934e+00       2.888001395317e-03 
       1.980444934528e+00       2.388816230328e-03 
       2.138435191726e+00       1.971486066997e-03 
       2.309029199186e+00       1.622967485127e-03 
       2.493232377687e+00       1.331819832098e-03 
       2.692130395285e+00       1.088746680991e-03 
       2.906895534573e+00       8.859189146620e-04 
       3.138793597714e+00       7.167970788226e-04 
       3.389191366484e+00       5.755583049634e-04 
       3.659564657905e+00       4.577621474281e-04 
       3.951507022538e+00       3.596060343150e-04 
       4.266739136701e+00       2.782251413211e-04 
       4.607118943941e+00       2.103221423809e-04 
       4.974652605557e+00       1.547105604515e-04 
       5.371506324689e+00       1.093803021650e-04 
       5.800019113685e+00       7.308636070016e-05 
       6.262716579983e+00       4.504889848398e-05 
       6.762325811764e+00       2.437929455771e-05 
       7.301791451110e+00       1.042942717425e-05 
       7.884293049406e+00       2.593274987102e-06 
       8.513263807261e+00       8.148904570117e-09 
       9.192410809424e+00       1.659388321797e-06 
       9.925736873929e+00       6.154079680612e-06 
       1.071756414427e+01       1.203543609820e-05 
       1.157255956364e+01       1.723279840114e-05 
       1.249576238137e+01       2.025512380919e-05 
       1.349261385375e+01       1.993822254404e-05 
       1.456898931416e+01       1.627570460024e-05 
       1.573123280165e+01       1.049704343535e-05 
       1.698619445202e+01       4.579013954911e-06 
       1.834127087176e+01       7.550164513870e-07 
       1.980444873285e+01       1.382867254126e-07 
       2.138435184532e+01       1.921633666824e-06 
       2.309029198506e+01       3.926420472388e-06 
       2.493232377636e+01       3.954512886018e-06 
       2.692130395282e+01       2.151865360717e-06 
       2.906895534573e+01       3.569637117701e-07 
       3.138793597714e+01       8.894284396743e-08 
       3.389191366484e+01       7.638574755250e-07 
       3.659564657905e+01       8.989949666905e-07 
       3.951507022538e+01       2.636641534696e-07 
       4.266739136701e+01       1.102943437809e-08 
       4.607118943941e+01       1.839820087508e-07 
       4.974652605557e+01       1.240654942123e-07 
       5.371506324689e+01       2.837198522317e-10 
       5.800019113685e+01       4.304088747347e-08 
       6.262716579983e+01       1.743409650833e-08 
       6.762325811764e+01       1.797772665926e-09 
       7.301791451110e+01       8.785104489726e-09 
       7.884293049406e+01       2.633903761166e-11 
       8.513263807261e+01       1.306176124208e-09 
       9.192410809424e+01       1.963365477415e-11 
       9.925736873929e+01       4.107131319311e-11 
       1.071756414427e+02       3.741279964518e-11 
       1.157255956364e+02       2.428656405313e-11 
       1.249576238137e+02       3.199449576906e-11 
       1.349261385375e+02       5.798440947437e-12 
