# Matter power spectrum P(k) at redshift z=99
# for k=1.04775e-05 to 67.6233 h/Mpc,
# number of wavenumbers equal to 246
#    1:k (h/Mpc)              2:P (Mpc/h)^3        
       1.047750691338e-05       7.261927673119e-03 
       1.131335172818e-05       7.820331745737e-03 
       1.221587619877e-05       8.421675986488e-03 
       1.319039970550e-05       9.069258192194e-03 
       1.424266598317e-05       9.766638404421e-03 
       1.537887697396e-05       1.051764069682e-02 
       1.660572938097e-05       1.132639105520e-02 
       1.793045413791e-05       1.219733231416e-02 
       1.936085902737e-05       1.313524224380e-02 
       2.090537469909e-05       1.414527121893e-02 
       2.257310435923e-05       1.523296272192e-02 
       2.437387742372e-05       1.640429444530e-02 
       2.631830745176e-05       1.766569582177e-02 
       2.841785470091e-05       1.902408601793e-02 
       3.068489367268e-05       2.048692970591e-02 
       3.313278604643e-05       2.206225513594e-02 
       3.577595943165e-05       2.375870704909e-02 
       3.862999240274e-05       2.558560727479e-02 
       4.171170631739e-05       2.755297763344e-02 
       4.503926445983e-05       2.967161927316e-02 
       4.863227909323e-05       3.195316450832e-02 
       5.251192705226e-05       3.441013519284e-02 
       5.670107455699e-05       3.705601722525e-02 
       6.122441198393e-05       3.990533413561e-02 
       6.610859938837e-05       4.297372168203e-02 
       7.138242363583e-05       4.627802141688e-02 
       7.707696806873e-05       4.983636194159e-02 
       8.322579570814e-05       5.366826847231e-02 
       8.986514707061e-05       5.779476394568e-02 
       9.703415376577e-05       6.223848243885e-02 
       1.047750691338e-04       6.702379865640e-02 
       1.131335172818e-04       7.217695153381e-02 
       1.221587619877e-04       7.772619073572e-02 
       1.319039970550e-04       8.370193432376e-02 
       1.424266598317e-04       9.013692507547e-02 
       1.537887697396e-04       9.706641242570e-02 
       1.660572938097e-04       1.045283354271e-01 
       1.793045413791e-04       1.125635349068e-01 
       1.936085902737e-04       1.212159614968e-01 
       2.090537469909e-04       1.305329132714e-01 
       2.257310435923e-04       1.405652846215e-01 
       2.437387742372e-04       1.513678302540e-01 
       2.631830745176e-04       1.629994504870e-01 
       2.841785470091e-04       1.755234921224e-01 
       3.068489367268e-04       1.890080670413e-01 
       3.313278604643e-04       2.035264002435e-01 
       3.577595943165e-04       2.191571803681e-01 
       3.862999240274e-04       2.359849437593e-01 
       4.171170631739e-04       2.541004741539e-01 
       4.503926445983e-04       2.736012080277e-01 
       4.863227909323e-04       2.945916790965e-01 
       5.251192705226e-04       3.171839525183e-01 
       5.670107455699e-04       3.414980764002e-01 
       6.122441198393e-04       3.676625413100e-01 
       6.610859938837e-04       3.958147252304e-01 
       7.138242363583e-04       4.261013284911e-01 
       7.707696806873e-04       4.586787792354e-01 
       8.322579570814e-04       4.937136001349e-01 
       8.986514707061e-04       5.313826801402e-01 
       9.703415376577e-04       5.718734972158e-01 
       1.047750691338e-03       6.153841629505e-01 
       1.131335172818e-03       6.621233239465e-01 
       1.221587619877e-03       7.123098220422e-01 
       1.319039970550e-03       7.661720584364e-01 
       1.424266598317e-03       8.239546297729e-01 
       1.537887697396e-03       8.859011173467e-01 
       1.660572938097e-03       9.522588006418e-01 
       1.793045413791e-03       1.023280099819e+00 
       1.936085902737e-03       1.099216304579e+00 
       2.090537469909e-03       1.180312990453e+00 
       2.257310435923e-03       1.266804115852e+00 
       2.437387742372e-03       1.358904853406e+00 
       2.631830745176e-03       1.456802683156e+00 
       2.841785470091e-03       1.560646890522e+00 
       3.068489367268e-03       1.670536062499e+00 
       3.313278604643e-03       1.786503852160e+00 
       3.577595943165e-03       1.908502930789e+00 
       3.862999240274e-03       2.036387730709e+00 
       4.171170631739e-03       2.169896178865e+00 
       4.503926445983e-03       2.308631878994e+00 
       4.863227909323e-03       2.452047290962e+00 
       5.251192705226e-03       2.599430628088e+00 
       5.670107455699e-03       2.749896931820e+00 
       6.122441198393e-03       2.902386513384e+00 
       6.610859938837e-03       3.055668706276e+00 
       7.138242363583e-03       3.208356461547e+00 
       7.707696806873e-03       3.358923892955e+00 
       8.322579570814e-03       3.505725595115e+00 
       8.986514707061e-03       3.647009249317e+00 
       9.703415376577e-03       3.780923304301e+00 
       1.047750691338e-02       3.905490547807e+00 
       1.131335172818e-02       4.018588073651e+00 
       1.221587619877e-02       4.117901582168e+00 
       1.319039970550e-02       4.200915297016e+00 
       1.424266598317e-02       4.264942444695e+00 
       1.537887697392e-02       4.307220944952e+00 
       1.660572938023e-02       4.325060147041e+00 
       1.793045412706e-02       4.316058413032e+00 
       1.936085890181e-02       4.278229056126e+00 
       2.090537352463e-02       4.210203256385e+00 
       2.257309535333e-02       4.111420063069e+00 
       2.437382002918e-02       3.982421064649e+00 
       2.631799944462e-02       3.825169330807e+00 
       2.841644545389e-02       3.643280861674e+00 
       3.067933355377e-02       3.442194719502e+00 
       3.311368470740e-02       3.229236052041e+00 
       3.571840443502e-02       3.013506088042e+00 
       3.847720348444e-02       2.805281352929e+00 
       4.135335538431e-02       2.614405950790e+00 
       4.429361667738e-02       2.448134019451e+00 
       4.724366439141e-02       2.309233749134e+00 
       5.016480835311e-02       2.196114122963e+00 
       5.303989620246e-02       2.104364027235e+00 
       5.586870669566e-02       2.028460883730e+00 
       5.866042680613e-02       1.963152155457e+00 
       6.142798932958e-02       1.903779102820e+00 
       6.418496440164e-02       1.846480587224e+00 
       6.694418833788e-02       1.788198012838e+00 
       6.971731106057e-02       1.726713646094e+00 
       7.251476155766e-02       1.660656154660e+00 
       7.534587671527e-02       1.589469327888e+00 
       7.821907666265e-02       1.513439367036e+00 
       8.114203772912e-02       1.433567776822e+00 
       8.412184535029e-02       1.351495578524e+00 
       8.716512279304e-02       1.269275332804e+00 
       9.027813695930e-02       1.189197479771e+00 
       9.346688431697e-02       1.113503367328e+00 
       9.673716028276e-02       1.044173506502e+00 
       1.000946150830e-01       9.827055703021e-01 
       1.035447986537e-01       9.299362232654e-01 
       1.070931966762e-01       8.859590182439e-01 
       1.107452594425e-01       8.500729636967e-01 
       1.145064249153e-01       8.208018569760e-01 
       1.183821370918e-01       7.960248933062e-01 
       1.223778605862e-01       7.731444953848e-01 
       1.264990921987e-01       7.494513913142e-01 
       1.307513701367e-01       7.225575501870e-01 
       1.351402814784e-01       6.909086405251e-01 
       1.396714684203e-01       6.541811185462e-01 
       1.443506338194e-01       6.134272157581e-01 
       1.491835465229e-01       5.708675798834e-01 
       1.541760469708e-01       5.293637000748e-01 
       1.593340535561e-01       4.917110221218e-01 
       1.646635702297e-01       4.599194352538e-01 
       1.701706958456e-01       4.347285107464e-01 
       1.758616357459e-01       4.154080950765e-01 
       1.817427160982e-01       3.999371607129e-01 
       1.878204015065e-01       3.856828171487e-01 
       1.941013164283e-01       3.698098687859e-01 
       2.005922709503e-01       3.505462492156e-01 
       2.073002914972e-01       3.280440166914e-01 
       2.142326570816e-01       3.042133900020e-01 
       2.213969417533e-01       2.816115764742e-01 
       2.288010639706e-01       2.622566945544e-01 
       2.364533437147e-01       2.469620733435e-01 
       2.443625682930e-01       2.350128320540e-01 
       2.525380679504e-01       2.244180786547e-01 
       2.609898026346e-01       2.130939207498e-01 
       2.697284615565e-01       2.001018347865e-01 
       2.787655775689e-01       1.860198739630e-01 
       2.881136588829e-01       1.725173036921e-01 
       2.977863412677e-01       1.610664588896e-01 
       3.077985646929e-01       1.517610021050e-01 
       3.181667794071e-01       1.435591280731e-01 
       3.289091877812e-01       1.351818055516e-01 
       3.400460299658e-01       1.261644494680e-01 
       3.515999236474e-01       1.172019590424e-01 
       3.635962711085e-01       1.091766001783e-01 
       3.760637506334e-01       1.023093779051e-01 
       3.890349143879e-01       9.593754653315e-02 
       4.025469216825e-01       8.950796889789e-02 
       4.166424456376e-01       8.311150589810e-02 
       4.313708035863e-01       7.721559478045e-02 
       4.467893782977e-01       7.190064360991e-02 
       4.629654199664e-01       6.686909488891e-02 
       4.799783501994e-01       6.191743240304e-02 
       4.979227319373e-01       5.722219934441e-02 
       5.169121270864e-01       5.290301001596e-02 
       5.370841404489e-01       4.876984450972e-02 
       5.586070464571e-01       4.479088035186e-02 
       5.816885094930e-01       4.105199725889e-02 
       6.065870144995e-01       3.748995249909e-02 
       6.336266468475e-01       3.407634150443e-02 
       6.632156059511e-01       3.083462690119e-02 
       6.958678639263e-01       2.772834084712e-02 
       7.322247985589e-01       2.476718356663e-02 
       7.730680195114e-01       2.193953646790e-02 
       8.193049553677e-01       1.925612389269e-02 
       8.718988016039e-01       1.672923032861e-02 
       9.317218031082e-01       1.438417289931e-02 
       9.993660908989e-01       1.225067721374e-02 
       1.075037110174e+00       1.035259702238e-02 
       1.158653485707e+00       8.699715445990e-03 
       1.250099157308e+00       7.284548095647e-03 
       1.349432401273e+00       6.085443072179e-03 
       1.456947457397e+00       5.075689197184e-03 
       1.573135111331e+00       4.228265254064e-03 
       1.698621895592e+00       3.518498000146e-03 
       1.834127512934e+00       2.924934518858e-03 
       1.980444934528e+00       2.429116586396e-03 
       2.138435191726e+00       2.015462257205e-03 
       2.309029199186e+00       1.670712354331e-03 
       2.493232377687e+00       1.383725145062e-03 
       2.692130395285e+00       1.145051377325e-03 
       2.906895534573e+00       9.467711730264e-04 
       3.138793597714e+00       7.821950563925e-04 
       3.389191366484e+00       6.457159224753e-04 
       3.659564657905e+00       5.326522118474e-04 
       3.951507022538e+00       4.390589910366e-04 
       4.266739136701e+00       3.616488860445e-04 
       4.607118943941e+00       2.976773966221e-04 
       4.974652605557e+00       2.448461372777e-04 
       5.371506324689e+00       2.012556896034e-04 
       5.800019113685e+00       1.653083664901e-04 
       6.262716579983e+00       1.356870681592e-04 
       6.762325811764e+00       1.112945253756e-04 
       7.301791451110e+00       9.121986807580e-05 
       7.884293049406e+00       7.470827819327e-05 
       8.513263807261e+00       6.113380525173e-05 
       9.192410809424e+00       4.998037823609e-05 
       9.925736873929e+00       4.082061224037e-05 
       1.071756414427e+01       3.330047949372e-05 
       1.157255956364e+01       2.712838010566e-05 
       1.249576238137e+01       2.206463938649e-05 
       1.349261385375e+01       1.791030637736e-05 
       1.456898931416e+01       1.450301035189e-05 
       1.573123280165e+01       1.170827557270e-05 
       1.698619445202e+01       9.416237321631e-06 
       1.834127087176e+01       7.536404973501e-06 
       1.980444873285e+01       5.994858719118e-06 
       2.138435184532e+01       4.731278204830e-06 
       2.309029198506e+01       3.696323220442e-06 
       2.493232377636e+01       2.850122369887e-06 
       2.692130395282e+01       2.160376478851e-06 
       2.906895534573e+01       1.601121340941e-06 
       3.138793597714e+01       1.151557396925e-06 
       3.389191366484e+01       7.951368760677e-07 
       3.659564657905e+01       5.185956133525e-07 
       3.951507022538e+01       3.111514100085e-07 
       4.266739136701e+01       1.637141968925e-07 
       4.607118943941e+01       6.811370210201e-08 
       4.974652605557e+01       1.636571222916e-08 
       5.371506324689e+01       4.946148142583e-11 
       5.800019113685e+01       9.910734535963e-09 
       6.262716579983e+01       3.581064244359e-08 
       6.762325811764e+01       6.717029566805e-08 
