# Matter power spectrum P(k) at redshift z=99
# for k=1.04775e-05 to 67.6233 h/Mpc,
# number of wavenumbers equal to 246
#    1:k (h/Mpc)              2:P (Mpc/h)^3        
       1.047750691338e-05       7.261927673119e-03 
       1.131335172818e-05       7.820331745737e-03 
       1.221587619877e-05       8.421675986489e-03 
       1.319039970550e-05       9.069258192194e-03 
       1.424266598317e-05       9.766638404421e-03 
       1.537887697396e-05       1.051764069682e-02 
       1.660572938097e-05       1.132639105520e-02 
       1.793045413791e-05       1.219733231416e-02 
       1.936085902737e-05       1.313524224381e-02 
       2.090537469909e-05       1.414527121893e-02 
       2.257310435923e-05       1.523296272192e-02 
       2.437387742372e-05       1.640429444530e-02 
       2.631830745176e-05       1.766569582178e-02 
       2.841785470091e-05       1.902408601793e-02 
       3.068489367268e-05       2.048692970592e-02 
       3.313278604643e-05       2.206225513594e-02 
       3.577595943165e-05       2.375870704909e-02 
       3.862999240274e-05       2.558560727479e-02 
       4.171170631739e-05       2.755297763344e-02 
       4.503926445983e-05       2.967161927316e-02 
       4.863227909323e-05       3.195316450832e-02 
       5.251192705226e-05       3.441013519284e-02 
       5.670107455699e-05       3.705601722522e-02 
       6.122441198393e-05       3.990533413561e-02 
       6.610859938837e-05       4.297372168203e-02 
       7.138242363583e-05       4.627802141688e-02 
       7.707696806873e-05       4.983636194159e-02 
       8.322579570814e-05       5.366826847231e-02 
       8.986514707061e-05       5.779476394569e-02 
       9.703415376577e-05       6.223848243885e-02 
       1.047750691338e-04       6.702379865640e-02 
       1.131335172818e-04       7.217695153381e-02 
       1.221587619877e-04       7.772619073571e-02 
       1.319039970550e-04       8.370193432376e-02 
       1.424266598317e-04       9.013692507548e-02 
       1.537887697396e-04       9.706641242570e-02 
       1.660572938097e-04       1.045283354271e-01 
       1.793045413791e-04       1.125635349068e-01 
       1.936085902737e-04       1.212159614968e-01 
       2.090537469909e-04       1.305329132714e-01 
       2.257310435923e-04       1.405652846215e-01 
       2.437387742372e-04       1.513678302540e-01 
       2.631830745176e-04       1.629994504870e-01 
       2.841785470091e-04       1.755234921224e-01 
       3.068489367268e-04       1.890080670413e-01 
       3.313278604643e-04       2.035264002435e-01 
       3.577595943165e-04       2.191571803681e-01 
       3.862999240274e-04       2.359849437592e-01 
       4.171170631739e-04       2.541004741539e-01 
       4.503926445983e-04       2.736012080277e-01 
       4.863227909323e-04       2.945916790965e-01 
       5.251192705226e-04       3.171839525182e-01 
       5.670107455699e-04       3.414980764002e-01 
       6.122441198393e-04       3.676625413100e-01 
       6.610859938837e-04       3.958147252304e-01 
       7.138242363583e-04       4.261013284907e-01 
       7.707696806873e-04       4.586787792352e-01 
       8.322579570814e-04       4.937136001346e-01 
       8.986514707061e-04       5.313826801402e-01 
       9.703415376577e-04       5.718734972158e-01 
       1.047750691338e-03       6.153841629505e-01 
       1.131335172818e-03       6.621233239466e-01 
       1.221587619877e-03       7.123098220421e-01 
       1.319039970550e-03       7.661720584798e-01 
       1.424266598317e-03       8.239546297731e-01 
       1.537887697396e-03       8.859011173467e-01 
       1.660572938097e-03       9.522588006423e-01 
       1.793045413791e-03       1.023280099819e+00 
       1.936085902737e-03       1.099216304579e+00 
       2.090537469909e-03       1.180312990453e+00 
       2.257310435923e-03       1.266804115852e+00 
       2.437387742372e-03       1.358904853406e+00 
       2.631830745176e-03       1.456802683156e+00 
       2.841785470091e-03       1.560646890521e+00 
       3.068489367268e-03       1.670536062500e+00 
       3.313278604643e-03       1.786503852161e+00 
       3.577595943165e-03       1.908502930787e+00 
       3.862999240274e-03       2.036387730709e+00 
       4.171170631739e-03       2.169896178647e+00 
       4.503926445983e-03       2.308631878993e+00 
       4.863227909323e-03       2.452047290961e+00 
       5.251192705226e-03       2.599430628086e+00 
       5.670107455699e-03       2.749896931807e+00 
       6.122441198393e-03       2.902386513382e+00 
       6.610859938837e-03       3.055668599586e+00 
       7.138242363583e-03       3.208356461539e+00 
       7.707696806873e-03       3.358923892034e+00 
       8.322579570814e-03       3.505725595265e+00 
       8.986514707061e-03       3.647009244513e+00 
       9.703415376577e-03       3.780923304326e+00 
       1.047750691338e-02       3.905491900521e+00 
       1.131335172818e-02       4.018588536250e+00 
       1.221587619877e-02       4.117901583947e+00 
       1.319039970550e-02       4.200915371302e+00 
       1.424266598317e-02       4.264941010275e+00 
       1.537887697392e-02       4.307219027603e+00 
       1.660572938023e-02       4.325062899105e+00 
       1.793045412706e-02       4.316060886874e+00 
       1.936085890181e-02       4.278224629274e+00 
       2.090537352463e-02       4.210208067570e+00 
       2.257309535333e-02       4.111415176382e+00 
       2.437382002918e-02       3.982413611324e+00 
       2.631799944462e-02       3.825163020551e+00 
       2.841644545389e-02       3.643283546799e+00 
       3.067933355377e-02       3.442191799054e+00 
       3.311368470740e-02       3.229242457046e+00 
       3.571840443502e-02       3.013510003025e+00 
       3.847720348444e-02       2.805283378663e+00 
       4.135335538431e-02       2.614405957962e+00 
       4.429361667738e-02       2.448135267413e+00 
       4.724366439141e-02       2.309236162733e+00 
       5.016480835311e-02       2.196112544376e+00 
       5.303989620246e-02       2.104363603308e+00 
       5.586870669566e-02       2.028462164658e+00 
       5.866042680613e-02       1.963151273898e+00 
       6.142798932958e-02       1.903782637385e+00 
       6.418496440164e-02       1.846479056829e+00 
       6.694418833788e-02       1.788198588942e+00 
       6.971731106057e-02       1.726716778415e+00 
       7.251476155766e-02       1.660655986359e+00 
       7.534587671527e-02       1.589472034253e+00 
       7.821907666265e-02       1.513437448462e+00 
       8.114203772912e-02       1.433566645044e+00 
       8.412184535029e-02       1.351491879063e+00 
       8.716512279304e-02       1.269273119966e+00 
       9.027813695930e-02       1.189193329489e+00 
       9.346688431697e-02       1.113499293466e+00 
       9.673716028276e-02       1.044176547739e+00 
       1.000946150830e-01       9.827070163519e-01 
       1.035447986537e-01       9.299364828416e-01 
       1.070931966762e-01       8.859600174509e-01 
       1.107452594425e-01       8.500718397420e-01 
       1.145064249153e-01       8.208030427545e-01 
       1.183821370918e-01       7.960255021627e-01 
       1.223778605862e-01       7.731452137863e-01 
       1.264990921987e-01       7.494506901899e-01 
       1.307513701367e-01       7.225580619673e-01 
       1.351402814784e-01       6.909086428128e-01 
       1.396714684203e-01       6.541816681716e-01 
       1.443506338194e-01       6.134260861238e-01 
       1.491835465229e-01       5.708673733272e-01 
       1.541760469708e-01       5.293644417524e-01 
       1.593340535561e-01       4.917108801537e-01 
       1.646635702297e-01       4.599199465673e-01 
       1.701706958456e-01       4.347297471688e-01 
       1.758616357459e-01       4.154074247596e-01 
       1.817427160982e-01       3.999366803843e-01 
       1.878204015065e-01       3.856822594147e-01 
       1.941013164283e-01       3.698102668269e-01 
       2.005922709503e-01       3.505458405683e-01 
       2.073002914972e-01       3.280429044175e-01 
       2.142326570816e-01       3.042129535292e-01 
       2.213969417533e-01       2.816113584868e-01 
       2.288010639706e-01       2.622568685039e-01 
       2.364533437147e-01       2.469626526315e-01 
       2.443625682930e-01       2.350130697222e-01 
       2.525380679504e-01       2.244172787624e-01 
       2.609898026346e-01       2.130937266318e-01 
       2.697284615565e-01       2.001011037098e-01 
       2.787655775689e-01       1.860196139824e-01 
       2.881136588829e-01       1.725168114555e-01 
       2.977863412677e-01       1.610654098715e-01 
       3.077985646929e-01       1.517604573627e-01 
       3.181667794071e-01       1.435589670331e-01 
       3.289091877812e-01       1.351805011940e-01 
       3.400460299658e-01       1.261635154664e-01 
       3.515999236474e-01       1.172013721816e-01 
       3.635962711085e-01       1.091760522728e-01 
       3.760637506334e-01       1.023086888743e-01 
       3.890349143879e-01       9.593674164087e-02 
       4.025469216825e-01       8.950663160844e-02 
       4.166424456376e-01       8.311074380166e-02 
       4.313708035863e-01       7.721450988881e-02 
       4.467893782977e-01       7.189938713062e-02 
       4.629654199664e-01       6.686764548740e-02 
       4.799783501994e-01       6.191618123742e-02 
       4.979227319373e-01       5.722083171610e-02 
       5.169121270864e-01       5.290131841233e-02 
       5.370841404489e-01       4.876801457330e-02 
       5.586070464571e-01       4.478913110054e-02 
       5.816885094930e-01       4.105007604994e-02 
       6.065870144995e-01       3.748787824960e-02 
       6.336266468475e-01       3.407414341006e-02 
       6.632156059511e-01       3.083230269820e-02 
       6.958678639263e-01       2.772588191534e-02 
       7.322247985589e-01       2.476449999323e-02 
       7.730680195114e-01       2.193671033557e-02 
       8.193049553677e-01       1.925304723649e-02 
       8.718988016039e-01       1.672589683040e-02 
       9.317218031082e-01       1.438048540721e-02 
       9.993660908989e-01       1.224658252129e-02 
       1.075037110174e+00       1.034812072075e-02 
       1.158653485707e+00       8.694815119883e-03 
       1.250099157308e+00       7.279154462224e-03 
       1.349432401273e+00       6.079448404677e-03 
       1.456947457397e+00       5.069115724938e-03 
       1.573135111331e+00       4.221023803148e-03 
       1.698621895592e+00       3.510544327430e-03 
       1.834127512934e+00       2.916199210275e-03 
       1.980444934528e+00       2.419551337996e-03 
       2.138435191726e+00       2.004987652124e-03 
       2.309029199186e+00       1.659286547843e-03 
       2.493232377687e+00       1.371272209213e-03 
       2.692130395285e+00       1.131506057286e-03 
       2.906895534573e+00       9.320640795524e-04 
       3.138793597714e+00       7.662565307337e-04 
       3.389191366484e+00       6.284894155402e-04 
       3.659564657905e+00       5.140805692499e-04 
       3.951507022538e+00       4.190970416755e-04 
       4.266739136701e+00       3.402690150989e-04 
       4.607118943941e+00       2.748664369863e-04 
       4.974652605557e+00       2.206211934589e-04 
       5.371506324689e+00       1.756590282509e-04 
       5.800019113685e+00       1.384280990743e-04 
       6.262716579983e+00       1.076598031003e-04 
       6.762325811764e+00       8.231181724816e-05 
       7.301791451110e+00       6.154351670023e-05 
       7.884293049406e+00       4.467586566901e-05 
       8.513263807261e+00       3.116201979589e-05 
       9.192410809424e+00       2.056356471022e-05 
       9.925736873929e+00       1.252122569648e-05 
       1.071756414427e+01       6.728046311976e-06 
       1.157255956364e+01       2.904137225391e-06 
       1.249576238137e+01       7.678843403180e-07 
       1.349261385375e+01       1.459109150085e-08 
       1.456898931416e+01       3.007116339770e-07 
       1.573123280165e+01       1.241933840349e-06 
       1.698619445202e+01       2.430619634384e-06 
       1.834127087176e+01       3.475320268932e-06 
       1.980444873285e+01       4.060736156151e-06 
       2.138435184532e+01       4.013682255036e-06 
       2.309029198506e+01       3.353210365703e-06 
       2.493232377636e+01       2.293970493580e-06 
       2.692130395282e+01       1.180359839321e-06 
       2.906895534573e+01       3.557732247533e-07 
       3.138793597714e+01       1.165996600046e-08 
       3.389191366484e+01       9.606267237102e-08 
       3.659564657905e+01       3.536347580592e-07 
       3.951507022538e+01       4.972779620353e-07 
       4.266739136701e+01       4.043579230723e-07 
       4.607118943941e+01       1.800192215760e-07 
       4.974652605557e+01       2.134544338310e-08 
       5.371506324689e+01       1.095807371879e-08 
       5.800019113685e+01       6.145569995620e-08 
       6.262716579983e+01       6.252076692659e-08 
       6.762325811764e+01       1.980572917168e-08 
