# Matter power spectrum P(k) at redshift z=99
# for k=1.04775e-05 to 67.6233 h/Mpc,
# number of wavenumbers equal to 246
#    1:k (h/Mpc)              2:P (Mpc/h)^3        
       1.047750691338e-05       7.261927673119e-03 
       1.131335172818e-05       7.820331745737e-03 
       1.221587619877e-05       8.421675986488e-03 
       1.319039970550e-05       9.069258192194e-03 
       1.424266598317e-05       9.766638404421e-03 
       1.537887697396e-05       1.051764069682e-02 
       1.660572938097e-05       1.132639105520e-02 
       1.793045413791e-05       1.219733231416e-02 
       1.936085902737e-05       1.313524224380e-02 
       2.090537469909e-05       1.414527121893e-02 
       2.257310435923e-05       1.523296272192e-02 
       2.437387742372e-05       1.640429444530e-02 
       2.631830745176e-05       1.766569582177e-02 
       2.841785470091e-05       1.902408601793e-02 
       3.068489367268e-05       2.048692970591e-02 
       3.313278604643e-05       2.206225513594e-02 
       3.577595943165e-05       2.375870704909e-02 
       3.862999240274e-05       2.558560727479e-02 
       4.171170631739e-05       2.755297763344e-02 
       4.503926445983e-05       2.967161927316e-02 
       4.863227909323e-05       3.195316450832e-02 
       5.251192705226e-05       3.441013519284e-02 
       5.670107455699e-05       3.705601722524e-02 
       6.122441198393e-05       3.990533413561e-02 
       6.610859938837e-05       4.297372168203e-02 
       7.138242363583e-05       4.627802141688e-02 
       7.707696806873e-05       4.983636194159e-02 
       8.322579570814e-05       5.366826847231e-02 
       8.986514707061e-05       5.779476394568e-02 
       9.703415376577e-05       6.223848243885e-02 
       1.047750691338e-04       6.702379865640e-02 
       1.131335172818e-04       7.217695153381e-02 
       1.221587619877e-04       7.772619073573e-02 
       1.319039970550e-04       8.370193432375e-02 
       1.424266598317e-04       9.013692507546e-02 
       1.537887697396e-04       9.706641242570e-02 
       1.660572938097e-04       1.045283354271e-01 
       1.793045413791e-04       1.125635349068e-01 
       1.936085902737e-04       1.212159614968e-01 
       2.090537469909e-04       1.305329132714e-01 
       2.257310435923e-04       1.405652846215e-01 
       2.437387742372e-04       1.513678302540e-01 
       2.631830745176e-04       1.629994504870e-01 
       2.841785470091e-04       1.755234921224e-01 
       3.068489367268e-04       1.890080670413e-01 
       3.313278604643e-04       2.035264002435e-01 
       3.577595943165e-04       2.191571803681e-01 
       3.862999240274e-04       2.359849437593e-01 
       4.171170631739e-04       2.541004741539e-01 
       4.503926445983e-04       2.736012080277e-01 
       4.863227909323e-04       2.945916790965e-01 
       5.251192705226e-04       3.171839525182e-01 
       5.670107455699e-04       3.414980764002e-01 
       6.122441198393e-04       3.676625413100e-01 
       6.610859938837e-04       3.958147252304e-01 
       7.138242363583e-04       4.261013284907e-01 
       7.707696806873e-04       4.586787792352e-01 
       8.322579570814e-04       4.937136001379e-01 
       8.986514707061e-04       5.313826801402e-01 
       9.703415376577e-04       5.718734972157e-01 
       1.047750691338e-03       6.153841629505e-01 
       1.131335172818e-03       6.621233239465e-01 
       1.221587619877e-03       7.123098220429e-01 
       1.319039970550e-03       7.661720584561e-01 
       1.424266598317e-03       8.239546297730e-01 
       1.537887697396e-03       8.859011173466e-01 
       1.660572938097e-03       9.522588006422e-01 
       1.793045413791e-03       1.023280099819e+00 
       1.936085902737e-03       1.099216304579e+00 
       2.090537469909e-03       1.180312990453e+00 
       2.257310435923e-03       1.266804115853e+00 
       2.437387742372e-03       1.358904853406e+00 
       2.631830745176e-03       1.456802683156e+00 
       2.841785470091e-03       1.560646890522e+00 
       3.068489367268e-03       1.670536062499e+00 
       3.313278604643e-03       1.786503852151e+00 
       3.577595943165e-03       1.908502930787e+00 
       3.862999240274e-03       2.036387730709e+00 
       4.171170631739e-03       2.169896178680e+00 
       4.503926445983e-03       2.308631878994e+00 
       4.863227909323e-03       2.452047290962e+00 
       5.251192705226e-03       2.599430628088e+00 
       5.670107455699e-03       2.749896931779e+00 
       6.122441198393e-03       2.902386513385e+00 
       6.610859938837e-03       3.055668707475e+00 
       7.138242363583e-03       3.208356461543e+00 
       7.707696806873e-03       3.358923893343e+00 
       8.322579570814e-03       3.505725595399e+00 
       8.986514707061e-03       3.647009571803e+00 
       9.703415376577e-03       3.780923304288e+00 
       1.047750691338e-02       3.905491135418e+00 
       1.131335172818e-02       4.018588042334e+00 
       1.221587619877e-02       4.117901590324e+00 
       1.319039970550e-02       4.200915376048e+00 
       1.424266598317e-02       4.264942349847e+00 
       1.537887697392e-02       4.307217464235e+00 
       1.660572938023e-02       4.325064059031e+00 
       1.793045412706e-02       4.316056706894e+00 
       1.936085890181e-02       4.278220329774e+00 
       2.090537352463e-02       4.210204028762e+00 
       2.257309535333e-02       4.111418469705e+00 
       2.437382002918e-02       3.982426417945e+00 
       2.631799944462e-02       3.825169172021e+00 
       2.841644545389e-02       3.643281168012e+00 
       3.067933355377e-02       3.442200309911e+00 
       3.311368470740e-02       3.229238663724e+00 
       3.571840443502e-02       3.013500063338e+00 
       3.847720348444e-02       2.805272147636e+00 
       4.135335538431e-02       2.614408326139e+00 
       4.429361667738e-02       2.448134329072e+00 
       4.724366439141e-02       2.309242487918e+00 
       5.016480835311e-02       2.196113600607e+00 
       5.303989620246e-02       2.104364744860e+00 
       5.586870669566e-02       2.028466258332e+00 
       5.866042680613e-02       1.963151533098e+00 
       6.142798932958e-02       1.903782228677e+00 
       6.418496440164e-02       1.846477338563e+00 
       6.694418833788e-02       1.788201508604e+00 
       6.971731106057e-02       1.726714320884e+00 
       7.251476155766e-02       1.660654992249e+00 
       7.534587671527e-02       1.589470978065e+00 
       7.821907666265e-02       1.513437203129e+00 
       8.114203772912e-02       1.433570257199e+00 
       8.412184535029e-02       1.351491081022e+00 
       8.716512279304e-02       1.269274870822e+00 
       9.027813695930e-02       1.189191066470e+00 
       9.346688431697e-02       1.113502089062e+00 
       9.673716028276e-02       1.044174261374e+00 
       1.000946150830e-01       9.827055201217e-01 
       1.035447986537e-01       9.299392213867e-01 
       1.070931966762e-01       8.859603563010e-01 
       1.107452594425e-01       8.500712647535e-01 
       1.145064249153e-01       8.208049848824e-01 
       1.183821370918e-01       7.960257379327e-01 
       1.223778605862e-01       7.731438974614e-01 
       1.264990921987e-01       7.494490509595e-01 
       1.307513701367e-01       7.225593191259e-01 
       1.351402814784e-01       6.909083966146e-01 
       1.396714684203e-01       6.541806536403e-01 
       1.443506338194e-01       6.134269793878e-01 
       1.491835465229e-01       5.708678203866e-01 
       1.541760469708e-01       5.293633893747e-01 
       1.593340535561e-01       4.917108321917e-01 
       1.646635702297e-01       4.599202813793e-01 
       1.701706958456e-01       4.347292035543e-01 
       1.758616357459e-01       4.154078508222e-01 
       1.817427160982e-01       3.999374701776e-01 
       1.878204015065e-01       3.856823999852e-01 
       1.941013164283e-01       3.698094578005e-01 
       2.005922709503e-01       3.505466804402e-01 
       2.073002914972e-01       3.280436599477e-01 
       2.142326570816e-01       3.042141406047e-01 
       2.213969417533e-01       2.816121255701e-01 
       2.288010639706e-01       2.622575126146e-01 
       2.364533437147e-01       2.469618860913e-01 
       2.443625682930e-01       2.350126598426e-01 
       2.525380679504e-01       2.244180969504e-01 
       2.609898026346e-01       2.130930838410e-01 
       2.697284615565e-01       2.001015700607e-01 
       2.787655775689e-01       1.860203874370e-01 
       2.881136588829e-01       1.725165503260e-01 
       2.977863412677e-01       1.610661561105e-01 
       3.077985646929e-01       1.517608672022e-01 
       3.181667794071e-01       1.435592997545e-01 
       3.289091877812e-01       1.351815972378e-01 
       3.400460299658e-01       1.261643711823e-01 
       3.515999236474e-01       1.172018224407e-01 
       3.635962711085e-01       1.091764351860e-01 
       3.760637506334e-01       1.023093900784e-01 
       3.890349143879e-01       9.593765639230e-02 
       4.025469216825e-01       8.950778053064e-02 
       4.166424456376e-01       8.311196791344e-02 
       4.313708035863e-01       7.721564606337e-02 
       4.467893782977e-01       7.190061944132e-02 
       4.629654199664e-01       6.686895489343e-02 
       4.799783501994e-01       6.191762219299e-02 
       4.979227319373e-01       5.722225833374e-02 
       5.169121270864e-01       5.290305166883e-02 
       5.370841404489e-01       4.876976065260e-02 
       5.586070464571e-01       4.479102844471e-02 
       5.816885094930e-01       4.105188767161e-02 
       6.065870144995e-01       3.748998034615e-02 
       6.336266468475e-01       3.407629803471e-02 
       6.632156059511e-01       3.083456349562e-02 
       6.958678639263e-01       2.772841447151e-02 
       7.322247985589e-01       2.476709605774e-02 
       7.730680195114e-01       2.193962416553e-02 
       8.193049553677e-01       1.925611877109e-02 
       8.718988016039e-01       1.672929602262e-02 
       9.317218031082e-01       1.438420575405e-02 
       9.993660908989e-01       1.225069497725e-02 
       1.075037110174e+00       1.035259227985e-02 
       1.158653485707e+00       8.699723771798e-03 
       1.250099157308e+00       7.284595634002e-03 
       1.349432401273e+00       6.085452540949e-03 
       1.456947457397e+00       5.075718914104e-03 
       1.573135111331e+00       4.228300806938e-03 
       1.698621895592e+00       3.518537693113e-03 
       1.834127512934e+00       2.924986829466e-03 
       1.980444934528e+00       2.429157655772e-03 
       2.138435191726e+00       2.015513987458e-03 
       2.309029199186e+00       1.670771535415e-03 
       2.493232377687e+00       1.383789232776e-03 
       2.692130395285e+00       1.145129977320e-03 
       2.906895534573e+00       9.468543069150e-04 
       3.138793597714e+00       7.822872196576e-04 
       3.389191366484e+00       6.458194912349e-04 
       3.659564657905e+00       5.327629224782e-04 
       3.951507022538e+00       4.391801576874e-04 
       4.266739136701e+00       3.617835423543e-04 
       4.607118943941e+00       2.978218391692e-04 
       4.974652605557e+00       2.450085842446e-04 
       5.371506324689e+00       2.014284972525e-04 
       5.800019113685e+00       1.655009045783e-04 
       6.262716579983e+00       1.358958288298e-04 
       6.762325811764e+00       1.115217803572e-04 
       7.301791451110e+00       9.146654724022e-05 
       7.884293049406e+00       7.497643310261e-05 
       8.513263807261e+00       6.142524997504e-05 
       9.192410809424e+00       5.029634996865e-05 
       9.925736873929e+00       4.116224352211e-05 
       1.071756414427e+01       3.366910430674e-05 
       1.157255956364e+01       2.752602918972e-05 
       1.249576238137e+01       2.249208270495e-05 
       1.349261385375e+01       1.836930280444e-05 
       1.456898931416e+01       1.499433528689e-05 
       1.573123280165e+01       1.223278290821e-05 
       1.698619445202e+01       9.974250278515e-06 
       1.834127087176e+01       8.127826963241e-06 
       1.980444873285e+01       6.618849733625e-06 
       2.138435184532e+01       5.386184880971e-06 
       2.309029198506e+01       4.379392171299e-06 
       2.493232377636e+01       3.557487181765e-06 
       2.692130395282e+01       2.886570281416e-06 
       2.906895534573e+01       2.338977194867e-06 
       3.138793597714e+01       1.892146555468e-06 
       3.389191366484e+01       1.527527150180e-06 
       3.659564657905e+01       1.229987553688e-06 
       3.951507022538e+01       9.871896944219e-07 
       4.266739136701e+01       7.890232505391e-07 
       4.607118943941e+01       6.273073875316e-07 
       4.974652605557e+01       4.953431970600e-07 
       5.371506324689e+01       3.877209283184e-07 
       5.800019113685e+01       3.000436816913e-07 
       6.262716579983e+01       2.287755266511e-07 
       6.762325811764e+01       1.710756128510e-07 
