# Matter power spectrum P(k) at redshift z=0
# for k=1.04775e-05 to 67.6233 h/Mpc,
# number of wavenumbers equal to 246
#    1:k (h/Mpc)              2:P (Mpc/h)^3        
       1.047750691338e-05       5.020964806751e+01 
       1.131335172818e-05       5.407048206554e+01 
       1.221587619877e-05       5.822819064045e+01 
       1.319039970550e-05       6.270562589686e+01 
       1.424266598317e-05       6.752731788102e+01 
       1.537887697396e-05       7.271977200258e+01 
       1.660572938097e-05       7.831147241542e+01 
       1.793045413791e-05       8.433311815128e+01 
       1.936085902737e-05       9.081778242446e+01 
       2.090537469909e-05       9.780108061339e+01 
       2.257310435923e-05       1.053213197032e+02 
       2.437387742372e-05       1.134197377001e+02 
       2.631830745176e-05       1.221408202816e+02 
       2.841785470091e-05       1.315324720916e+02 
       3.068489367268e-05       1.416462093729e+02 
       3.313278604643e-05       1.525374500691e+02 
       3.577595943165e-05       1.642660687078e+02 
       3.862999240274e-05       1.768963504868e+02 
       4.171170631739e-05       1.904975992461e+02 
       4.503926445983e-05       2.051444490305e+02 
       4.863227909323e-05       2.209171463752e+02 
       5.251192705226e-05       2.379022222314e+02 
       5.670107455699e-05       2.561927925577e+02 
       6.122441198393e-05       2.758890441791e+02 
       6.610859938837e-05       2.970989225464e+02 
       7.138242363583e-05       3.199385558200e+02 
       7.707696806873e-05       3.445329780878e+02 
       8.322579570814e-05       3.710167315928e+02 
       8.986514707061e-05       3.995346440953e+02 
       9.703415376577e-05       4.302425403884e+02 
       1.047750691338e-04       4.633080762974e+02 
       1.131335172818e-04       4.989116267507e+02 
       1.221587619877e-04       5.372471946560e+02 
       1.319039970550e-04       5.785234124632e+02 
       1.424266598317e-04       6.229645930980e+02 
       1.537887697396e-04       6.708118484951e+02 
       1.660572938097e-04       7.223242660219e+02 
       1.793045413791e-04       7.777801553942e+02 
       1.936085902737e-04       8.374783607333e+02 
       2.090537469909e-04       9.017396264494e+02 
       2.257310435923e-04       9.709080260150e+02 
       2.437387742372e-04       1.045352448644e+03 
       2.631830745176e-04       1.125468122836e+03 
       2.841785470091e-04       1.211678179510e+03 
       3.068489367268e-04       1.304435249091e+03 
       3.313278604643e-04       1.404223052541e+03 
       3.577595943165e-04       1.511558013389e+03 
       3.862999240274e-04       1.626990836477e+03 
       4.171170631739e-04       1.751108027369e+03 
       4.503926445983e-04       1.884533381344e+03 
       4.863227909323e-04       2.027929376468e+03 
       5.251192705226e-04       2.181998446365e+03 
       5.670107455699e-04       2.347484100854e+03 
       6.122441198393e-04       2.525171869333e+03 
       6.610859938837e-04       2.715889981397e+03 
       7.138242363583e-04       2.920509686070e+03 
       7.707696806873e-04       3.139945097704e+03 
       8.322579570814e-04       3.375152334387e+03 
       8.986514707061e-04       3.627127828220e+03 
       9.703415376577e-04       3.896905450002e+03 
       1.047750691338e-03       4.185552170914e+03 
       1.131335172818e-03       4.494162426769e+03 
       1.221587619877e-03       4.823850702639e+03 
       1.319039970550e-03       5.175742733620e+03 
       1.424266598317e-03       5.551019592476e+03 
       1.537887697396e-03       5.950788335819e+03 
       1.660572938097e-03       6.376123046647e+03 
       1.793045413791e-03       6.828073896024e+03 
       1.936085902737e-03       7.307625375264e+03 
       2.090537469909e-03       7.815671908386e+03 
       2.257310435923e-03       8.352990369193e+03 
       2.437387742372e-03       8.920211057301e+03 
       2.631830745176e-03       9.517783061566e+03 
       2.841785470091e-03       1.014593703630e+04 
       3.068489367268e-03       1.080464505689e+04 
       3.313278604643e-03       1.149357459484e+04 
       3.577595943165e-03       1.221203620743e+04 
       3.862999240274e-03       1.295892538401e+04 
       4.171170631739e-03       1.373266001970e+04 
       4.503926445983e-03       1.453111834430e+04 
       4.863227909323e-03       1.535154978303e+04 
       5.251192705226e-03       1.619063578278e+04 
       5.670107455699e-03       1.704431254574e+04 
       6.122441198393e-03       1.790755958636e+04 
       6.610859938837e-03       1.877460420394e+04 
       7.138242363583e-03       1.963872492821e+04 
       7.707696806873e-03       2.049215708818e+04 
       8.322579570814e-03       2.132611374284e+04 
       8.986514707061e-03       2.213054834755e+04 
       9.703415376577e-03       2.289445664057e+04 
       1.047750691338e-02       2.360547850889e+04 
       1.131335172818e-02       2.425022312267e+04 
       1.221587619877e-02       2.481423835364e+04 
       1.319039970550e-02       2.528219807490e+04 
       1.424266598317e-02       2.563815509098e+04 
       1.537887697392e-02       2.586608212138e+04 
       1.660572938023e-02       2.595031776135e+04 
       1.793045412706e-02       2.587642710330e+04 
       1.936085890181e-02       2.563230543672e+04 
       2.090537352463e-02       2.520937474412e+04 
       2.257309535333e-02       2.460439662829e+04 
       2.437382002918e-02       2.382083337603e+04 
       2.631799944462e-02       2.287039577514e+04 
       2.841644545389e-02       2.177443077738e+04 
       3.067933355377e-02       2.056562879010e+04 
       3.311368470740e-02       1.928720563432e+04 
       3.571840443502e-02       1.799395092313e+04 
       3.847720348444e-02       1.674677567170e+04 
       4.135335538431e-02       1.560455937413e+04 
       4.429361667738e-02       1.461035378541e+04 
       4.724366439141e-02       1.378047512914e+04 
       5.016480835311e-02       1.310492022451e+04 
       5.303989620246e-02       1.255713622899e+04 
       5.586870669566e-02       1.210424618585e+04 
       5.866042680613e-02       1.171466041201e+04 
       6.142798932958e-02       1.136020720237e+04 
       6.418496440164e-02       1.101862305008e+04 
       6.694418833788e-02       1.067064251202e+04 
       6.971731106057e-02       1.030338040034e+04 
       7.251476155766e-02       9.909064745287e+03 
       7.534587671527e-02       9.483656388610e+03 
       7.821907666265e-02       9.029327167706e+03 
       8.114203772912e-02       8.552130109095e+03 
       8.412184535029e-02       8.061946362668e+03 
       8.716512279304e-02       7.570777784923e+03 
       9.027813695930e-02       7.092490952972e+03 
       9.346688431697e-02       6.640525578414e+03 
       9.673716028276e-02       6.226712071827e+03 
       1.000946150830e-01       5.859937329570e+03 
       1.035447986537e-01       5.545246737307e+03 
       1.070931966762e-01       5.283159673075e+03 
       1.107452594425e-01       5.069448399729e+03 
       1.145064249153e-01       4.895262681078e+03 
       1.183821370918e-01       4.747845748601e+03 
       1.223778605862e-01       4.611715394278e+03 
       1.264990921987e-01       4.470615750631e+03 
       1.307513701367e-01       4.310286829588e+03 
       1.351402814784e-01       4.121395723525e+03 
       1.396714684203e-01       3.902056162249e+03 
       1.443506338194e-01       3.658653165056e+03 
       1.491835465229e-01       3.404475523309e+03 
       1.541760469708e-01       3.156646289236e+03 
       1.593340535561e-01       2.931928132590e+03 
       1.646635702297e-01       2.742354791949e+03 
       1.701706958456e-01       2.592233380723e+03 
       1.758616357459e-01       2.477212876054e+03 
       1.817427160982e-01       2.385163792625e+03 
       1.878204015065e-01       2.300340384592e+03 
       1.941013164283e-01       2.205776783001e+03 
       2.005922709503e-01       2.090848002912e+03 
       2.073002914972e-01       1.956461673238e+03 
       2.142326570816e-01       1.814174506463e+03 
       2.213969417533e-01       1.679270333117e+03 
       2.288010639706e-01       1.563849972995e+03 
       2.364533437147e-01       1.472669335684e+03 
       2.443625682930e-01       1.401514143468e+03 
       2.525380679504e-01       1.338418037074e+03 
       2.609898026346e-01       1.270897417252e+03 
       2.697284615565e-01       1.193355746600e+03 
       2.787655775689e-01       1.109330457607e+03 
       2.881136588829e-01       1.028760803121e+03 
       2.977863412677e-01       9.604730311008e+02 
       3.077985646929e-01       9.050143703554e+02 
       3.181667794071e-01       8.561340411532e+02 
       3.289091877812e-01       8.061782121362e+02 
       3.400460299658e-01       7.523788928254e+02 
       3.515999236474e-01       6.989102714071e+02 
       3.635962711085e-01       6.510554509198e+02 
       3.760637506334e-01       6.101155437617e+02 
       3.890349143879e-01       5.721229974897e+02 
       4.025469216825e-01       5.337727295784e+02 
       4.166424456376e-01       4.956195220234e+02 
       4.313708035863e-01       4.604620846899e+02 
       4.467893782977e-01       4.287676675023e+02 
       4.629654199664e-01       3.987659636437e+02 
       4.799783501994e-01       3.692329772466e+02 
       4.979227319373e-01       3.412337164975e+02 
       5.169121270864e-01       3.154748607765e+02 
       5.370841404489e-01       2.908271856044e+02 
       5.586070464571e-01       2.670994341301e+02 
       5.816885094930e-01       2.448019589816e+02 
       6.065870144995e-01       2.235625245913e+02 
       6.336266468475e-01       2.032048197353e+02 
       6.632156059511e-01       1.838745525567e+02 
       6.958678639263e-01       1.653495317450e+02 
       7.322247985589e-01       1.476908373940e+02 
       7.730680195114e-01       1.308293927230e+02 
       8.193049553677e-01       1.148267708855e+02 
       8.718988016039e-01       9.975827508590e+01 
       9.317218031082e-01       8.577302785935e+01 
       9.993660908989e-01       7.305024219108e+01 
       1.075037110174e+00       6.173131942763e+01 
       1.158653485707e+00       5.187460168463e+01 
       1.250099157308e+00       4.343554500981e+01 
       1.349432401273e+00       3.628481216367e+01 
       1.456947457397e+00       3.026344612259e+01 
       1.573135111331e+00       2.521005433662e+01 
       1.698621895592e+00       2.097751144381e+01 
       1.834127512934e+00       1.743783178735e+01 
       1.980444934528e+00       1.448120147205e+01 
       2.138435191726e+00       1.201440870916e+01 
       2.309029199186e+00       9.958778360945e+00 
       2.493232377687e+00       8.247446225701e+00 
       2.692130395285e+00       6.824231425011e+00 
       2.906895534573e+00       5.641918397032e+00 
       3.138793597714e+00       4.660578996478e+00 
       3.389191366484e+00       3.846908415471e+00 
       3.659564657905e+00       3.172778188692e+00 
       3.951507022538e+00       2.614767693216e+00 
       4.266739136701e+00       2.153295055624e+00 
       4.607118943941e+00       1.771948313505e+00 
       4.974652605557e+00       1.457062656124e+00 
       5.371506324689e+00       1.197265127061e+00 
       5.800019113685e+00       9.830822260917e-01 
       6.262716579983e+00       8.066273420885e-01 
       6.762325811764e+00       6.613503948021e-01 
       7.301791451110e+00       5.418390041913e-01 
       7.884293049406e+00       4.435854756026e-01 
       8.513263807261e+00       3.628619881721e-01 
       9.192410809424e+00       2.965807580228e-01 
       9.925736873929e+00       2.421968270765e-01 
       1.071756414427e+01       1.976027039080e-01 
       1.157255956364e+01       1.610578872868e-01 
       1.249576238137e+01       1.311284274059e-01 
       1.349261385375e+01       1.066337156608e-01 
       1.456898931416e+01       8.659951946218e-02 
       1.573123280165e+01       7.022319703451e-02 
       1.698619445202e+01       5.684889861578e-02 
       1.834127087176e+01       4.593205570592e-02 
       1.980444873285e+01       3.702884389856e-02 
       2.138435184532e+01       2.977499942011e-02 
       2.309029198506e+01       2.386919724924e-02 
       2.493232377636e+01       1.906729837714e-02 
       2.692130395282e+01       1.516755602353e-02 
       2.906895534573e+01       1.200533065483e-02 
       3.138793597714e+01       9.446090909424e-03 
       3.389191366484e+01       7.379360932467e-03 
       3.659564657905e+01       5.715356104811e-03 
       3.951507022538e+01       4.380711294918e-03 
       4.266739136701e+01       3.315215942476e-03 
       4.607118943941e+01       2.470114232778e-03 
       4.974652605557e+01       1.805439751796e-03 
       5.371506324689e+01       1.288468677849e-03 
       5.800019113685e+01       8.924141658625e-04 
       6.262716579983e+01       5.950369419484e-04 
       6.762325811764e+01       3.777958498051e-04 
