# Matter power spectrum P(k) at redshift z=99
# for k=1.04775e-05 to 134.926 h/Mpc,
# number of wavenumbers equal to 255
#    1:k (h/Mpc)              2:P (Mpc/h)^3        
       1.047750691338e-05       7.261927095362e-03 
       1.131335172818e-05       7.820332150838e-03 
       1.221587619877e-05       8.421675382419e-03 
       1.319039970550e-05       9.069257738099e-03 
       1.424266598317e-05       9.766636451229e-03 
       1.537887697396e-05       1.051763973652e-02 
       1.660572938097e-05       1.132639250764e-02 
       1.793045413791e-05       1.219733201522e-02 
       1.936085902737e-05       1.313524187217e-02 
       2.090537469909e-05       1.414527084993e-02 
       2.257310435923e-05       1.523296544509e-02 
       2.437387742372e-05       1.640429654659e-02 
       2.631830745176e-05       1.766569603307e-02 
       2.841785470091e-05       1.902408711185e-02 
       3.068489367268e-05       2.048692967469e-02 
       3.313278604643e-05       2.206225467575e-02 
       3.577595943165e-05       2.375870883881e-02 
       3.862999240274e-05       2.558560669854e-02 
       4.171170631739e-05       2.755297672542e-02 
       4.503926445983e-05       2.967161933450e-02 
       4.863227909323e-05       3.195316455696e-02 
       5.251192705226e-05       3.441013466178e-02 
       5.670107455699e-05       3.705601741749e-02 
       6.122441198393e-05       3.990533412886e-02 
       6.610859938837e-05       4.297372242585e-02 
       7.138242363583e-05       4.627802054908e-02 
       7.707696806873e-05       4.983636159949e-02 
       8.322579570814e-05       5.366826787000e-02 
       8.986514707061e-05       5.779476319805e-02 
       9.703415376577e-05       6.223848221913e-02 
       1.047750691338e-04       6.702379825105e-02 
       1.131335172818e-04       7.217695031170e-02 
       1.221587619877e-04       7.772619030459e-02 
       1.319039970550e-04       8.370193380145e-02 
       1.424266598317e-04       9.013692506781e-02 
       1.537887697396e-04       9.706641130522e-02 
       1.660572938097e-04       1.045283343124e-01 
       1.793045413791e-04       1.125635329200e-01 
       1.936085902737e-04       1.212159592325e-01 
       2.090537469909e-04       1.305329107453e-01 
       2.257310435923e-04       1.405652819379e-01 
       2.437387742372e-04       1.513678275096e-01 
       2.631830745176e-04       1.629994475156e-01 
       2.841785470091e-04       1.755234890503e-01 
       3.068489367268e-04       1.890080645326e-01 
       3.313278604643e-04       2.035263977460e-01 
       3.577595943165e-04       2.191571778075e-01 
       3.862999240274e-04       2.359849423294e-01 
       4.171170631739e-04       2.541004713038e-01 
       4.503926445983e-04       2.736012061198e-01 
       4.863227909323e-04       2.945916774684e-01 
       5.251192705226e-04       3.171839507907e-01 
       5.670107455699e-04       3.414980769154e-01 
       6.122441198393e-04       3.676625416350e-01 
       6.610859938837e-04       3.958147272916e-01 
       7.138242363583e-04       4.261013332118e-01 
       7.707696806873e-04       4.586787880905e-01 
       8.322579570814e-04       4.937136112878e-01 
       8.986514707061e-04       5.313826962134e-01 
       9.703415376577e-04       5.718735176861e-01 
       1.047750691338e-03       6.153841926305e-01 
       1.131335172818e-03       6.621233623174e-01 
       1.221587619877e-03       7.123098743699e-01 
       1.319039970550e-03       7.661721263823e-01 
       1.424266598317e-03       8.239547181321e-01 
       1.537887697396e-03       8.859012282809e-01 
       1.660572938097e-03       9.522589495709e-01 
       1.793045413791e-03       1.023280284728e+00 
       1.936085902737e-03       1.099216542112e+00 
       2.090537469909e-03       1.180313285036e+00 
       2.257310435923e-03       1.266804486799e+00 
       2.437387742372e-03       1.358905328443e+00 
       2.631830745176e-03       1.456803285914e+00 
       2.841785470091e-03       1.560647662982e+00 
       3.068489367268e-03       1.670537010495e+00 
       3.313278604643e-03       1.786505039523e+00 
       3.577595943165e-03       1.908504409959e+00 
       3.862999240274e-03       2.036389468543e+00 
       4.171170631739e-03       2.169898252514e+00 
       4.503926445983e-03       2.308634491588e+00 
       4.863227909323e-03       2.452050674277e+00 
       5.251192705226e-03       2.599434680486e+00 
       5.670107455699e-03       2.749901125632e+00 
       6.122441198393e-03       2.902390057266e+00 
       6.610859938837e-03       3.055671268483e+00 
       7.138242363583e-03       3.208360121157e+00 
       7.707696806873e-03       3.358926649255e+00 
       8.322579570814e-03       3.505726887262e+00 
       8.986514707061e-03       3.647012434663e+00 
       9.703415376577e-03       3.780926175470e+00 
       1.047750691338e-02       3.905492876016e+00 
       1.131335172818e-02       4.018589820441e+00 
       1.221587619877e-02       4.117902882107e+00 
       1.319039970550e-02       4.200917692461e+00 
       1.424266598317e-02       4.264943729642e+00 
       1.537887697392e-02       4.307219658808e+00 
       1.660572938023e-02       4.325062445221e+00 
       1.793045412706e-02       4.316060377477e+00 
       1.936085890181e-02       4.278228914998e+00 
       2.090537352463e-02       4.210204452928e+00 
       2.257309535333e-02       4.111418724216e+00 
       2.437382002918e-02       3.982420907542e+00 
       2.631799944462e-02       3.825168650411e+00 
       2.841644545389e-02       3.643282204627e+00 
       3.067933355377e-02       3.442198655930e+00 
       3.311368470740e-02       3.229241540453e+00 
       3.571840443502e-02       3.013516269180e+00 
       3.847720348444e-02       2.805283871698e+00 
       4.135335538431e-02       2.614410589405e+00 
       4.429361667738e-02       2.448132101739e+00 
       4.724366439141e-02       2.309240561957e+00 
       5.016480835311e-02       2.196115105996e+00 
       5.303989620246e-02       2.104369768885e+00 
       5.586870669566e-02       2.028462502943e+00 
       5.866042680613e-02       1.963155222403e+00 
       6.142798932958e-02       1.903779622312e+00 
       6.418496440164e-02       1.846479125032e+00 
       6.694418833788e-02       1.788197394463e+00 
       6.971731106057e-02       1.726715597460e+00 
       7.251476155766e-02       1.660654307275e+00 
       7.534587671527e-02       1.589469769979e+00 
       7.821907666265e-02       1.513436491940e+00 
       8.114203772912e-02       1.433568681645e+00 
       8.412184535029e-02       1.351492180553e+00 
       8.716512279304e-02       1.269273658088e+00 
       9.027813695930e-02       1.189193096690e+00 
       9.346688431697e-02       1.113501037664e+00 
       9.673716028276e-02       1.044174379032e+00 
       1.000946150830e-01       9.827059085374e-01 
       1.035447986537e-01       9.299372435954e-01 
       1.070931966762e-01       8.859584061133e-01 
       1.107452594425e-01       8.500709738226e-01 
       1.145064249153e-01       8.208032011938e-01 
       1.183821370918e-01       7.960240972288e-01 
       1.223778605862e-01       7.731454894548e-01 
       1.264990921987e-01       7.494518904513e-01 
       1.307513701367e-01       7.225573557325e-01 
       1.351402814784e-01       6.909093951604e-01 
       1.396714684203e-01       6.541821993967e-01 
       1.443506338194e-01       6.134276603974e-01 
       1.491835465229e-01       5.708683335229e-01 
       1.541760469708e-01       5.293636292565e-01 
       1.593340535561e-01       4.917101653966e-01 
       1.646635702297e-01       4.599192544353e-01 
       1.701706958456e-01       4.347271794547e-01 
       1.758616357459e-01       4.154070523295e-01 
       1.817427160982e-01       3.999354357918e-01 
       1.878204015065e-01       3.856849813487e-01 
       1.941013164283e-01       3.698132607197e-01 
       2.005922709503e-01       3.505506404086e-01 
       2.073002914972e-01       3.280455705305e-01 
       2.142326570816e-01       3.042124947568e-01 
       2.213969417533e-01       2.816106423560e-01 
       2.288010639706e-01       2.622558433900e-01 
       2.364533437147e-01       2.469607827366e-01 
       2.443625682930e-01       2.350119083928e-01 
       2.525380679504e-01       2.244193054251e-01 
       2.609898026346e-01       2.130950015063e-01 
       2.697284615565e-01       2.001015041424e-01 
       2.787655775689e-01       1.860187094039e-01 
       2.881136588829e-01       1.725158740649e-01 
       2.977863412677e-01       1.610647981744e-01 
       3.077985646929e-01       1.517595104640e-01 
       3.181667794071e-01       1.435581168278e-01 
       3.289091877812e-01       1.351805205217e-01 
       3.400460299658e-01       1.261628796315e-01 
       3.515999236474e-01       1.172005728044e-01 
       3.635962711085e-01       1.091754994825e-01 
       3.760637506334e-01       1.023078766098e-01 
       3.890349143879e-01       9.593624299353e-02 
       4.025469216825e-01       8.950627233033e-02 
       4.166424456376e-01       8.311027233963e-02 
       4.313708035863e-01       7.721404281547e-02 
       4.467893782977e-01       7.189908192943e-02 
       4.629654199664e-01       6.686754507822e-02 
       4.799783501994e-01       6.191602477847e-02 
       4.979227319373e-01       5.722067946692e-02 
       5.169121270864e-01       5.290134223923e-02 
       5.370841404489e-01       4.876822911933e-02 
       5.586070464571e-01       4.478916136793e-02 
       5.816885094930e-01       4.105032778171e-02 
       6.065870144995e-01       3.748833390992e-02 
       6.336266468475e-01       3.407461398791e-02 
       6.632156059511e-01       3.083293170169e-02 
       6.958678639263e-01       2.772674543569e-02 
       7.322247985589e-01       2.476551554956e-02 
       7.730680195114e-01       2.193797545966e-02 
       8.193049553677e-01       1.925450299505e-02 
       8.718988016039e-01       1.672765966459e-02 
       9.317218031082e-01       1.438251337101e-02 
       9.993660908989e-01       1.224898780746e-02 
       1.075037110174e+00       1.035091106669e-02 
       1.158653485707e+00       8.697980244183e-03 
       1.250099157308e+00       7.282882242799e-03 
       1.349432401273e+00       6.083749551581e-03 
       1.456947457397e+00       5.074023053837e-03 
       1.573135111331e+00       4.226594465259e-03 
       1.698621895592e+00       3.516834952745e-03 
       1.834127512934e+00       2.923274431745e-03 
       1.980444934528e+00       2.427462233144e-03 
       2.138435191726e+00       2.013818099639e-03 
       2.309029199186e+00       1.669094049137e-03 
       2.493232377687e+00       1.382123113757e-03 
       2.692130395285e+00       1.143475470654e-03 
       2.906895534573e+00       9.452194690756e-04 
       3.138793597714e+00       7.806661217633e-04 
       3.389191366484e+00       6.442162086060e-04 
       3.659564657905e+00       5.311832277568e-04 
       3.951507022538e+00       4.376191048241e-04 
       4.266739136701e+00       3.602493798628e-04 
       4.607118943941e+00       2.963099429893e-04 
       4.974652605557e+00       2.435200423988e-04 
       5.371506324689e+00       1.999693971241e-04 
       5.800019113685e+00       1.640647330586e-04 
       6.262716579983e+00       1.344894357361e-04 
       6.762325811764e+00       1.101438460493e-04 
       7.301791451110e+00       9.011877016237e-05 
       7.884293049406e+00       7.365842818497e-05 
       8.513263807261e+00       6.013874336909e-05 
       9.192410809424e+00       4.904160664069e-05 
       9.925736873929e+00       3.993984066550e-05 
       1.071756414427e+01       3.248006657204e-05 
       1.157255956364e+01       2.637111117361e-05 
       1.249576238137e+01       2.137171205575e-05 
       1.349261385375e+01       1.728390193172e-05 
       1.456898931416e+01       1.394473556889e-05 
       1.573123280165e+01       1.121969137564e-05 
       1.698619445202e+01       8.998397445054e-06 
       1.834127087176e+01       7.190013141325e-06 
       1.980444873285e+01       5.719981813396e-06 
       2.138435184532e+01       4.527058886439e-06 
       2.309029198506e+01       3.561142324487e-06 
       2.493232377636e+01       2.781082351714e-06 
       2.692130395282e+01       2.153113299599e-06 
       2.906895534573e+01       1.649722007745e-06 
       3.138793597714e+01       1.248289549650e-06 
       3.389191366484e+01       9.302913112777e-07 
       3.659564657905e+01       6.805519531358e-07 
       3.951507022538e+01       4.866033255610e-07 
       4.266739136701e+01       3.381602185975e-07 
       4.607118943941e+01       2.267018268654e-07 
       4.974652605557e+01       1.451061155913e-07 
       5.371506324689e+01       8.737279722775e-08 
       5.800019113685e+01       4.838449562970e-08 
       6.262716579983e+01       2.370897387094e-08 
       6.762325811764e+01       9.554127653642e-09 
       7.301791451110e+01       2.636992130809e-09 
       7.884293049406e+01       2.266027360025e-10 
       8.513263807261e+01       1.343852733233e-10 
       9.192410809424e+01       7.948580057627e-10 
       9.925736873929e+01       1.300920398854e-09 
       1.071756414427e+02       1.296667807809e-09 
       1.157255956364e+02       8.861126022491e-10 
       1.249576238137e+02       3.959065329894e-10 
       1.349261385375e+02       7.949950191328e-11 
