# Matter power spectrum P(k) at redshift z=99
# for k=1.04775e-05 to 67.6233 h/Mpc,
# number of wavenumbers equal to 246
#    1:k (h/Mpc)              2:P (Mpc/h)^3        
       1.047750691338e-05       7.261927673119e-03 
       1.131335172818e-05       7.820331745737e-03 
       1.221587619877e-05       8.421675986489e-03 
       1.319039970550e-05       9.069258192194e-03 
       1.424266598317e-05       9.766638404421e-03 
       1.537887697396e-05       1.051764069682e-02 
       1.660572938097e-05       1.132639105520e-02 
       1.793045413791e-05       1.219733231416e-02 
       1.936085902737e-05       1.313524224380e-02 
       2.090537469909e-05       1.414527121893e-02 
       2.257310435923e-05       1.523296272192e-02 
       2.437387742372e-05       1.640429444530e-02 
       2.631830745176e-05       1.766569582177e-02 
       2.841785470091e-05       1.902408601793e-02 
       3.068489367268e-05       2.048692970591e-02 
       3.313278604643e-05       2.206225513594e-02 
       3.577595943165e-05       2.375870704909e-02 
       3.862999240274e-05       2.558560727479e-02 
       4.171170631739e-05       2.755297763344e-02 
       4.503926445983e-05       2.967161927315e-02 
       4.863227909323e-05       3.195316450832e-02 
       5.251192705226e-05       3.441013519284e-02 
       5.670107455699e-05       3.705601722525e-02 
       6.122441198393e-05       3.990533413562e-02 
       6.610859938837e-05       4.297372168203e-02 
       7.138242363583e-05       4.627802141688e-02 
       7.707696806873e-05       4.983636194159e-02 
       8.322579570814e-05       5.366826847231e-02 
       8.986514707061e-05       5.779476394568e-02 
       9.703415376577e-05       6.223848243885e-02 
       1.047750691338e-04       6.702379865640e-02 
       1.131335172818e-04       7.217695153381e-02 
       1.221587619877e-04       7.772619073572e-02 
       1.319039970550e-04       8.370193432377e-02 
       1.424266598317e-04       9.013692507547e-02 
       1.537887697396e-04       9.706641242570e-02 
       1.660572938097e-04       1.045283354271e-01 
       1.793045413791e-04       1.125635349068e-01 
       1.936085902737e-04       1.212159614968e-01 
       2.090537469909e-04       1.305329132714e-01 
       2.257310435923e-04       1.405652846215e-01 
       2.437387742372e-04       1.513678302540e-01 
       2.631830745176e-04       1.629994504870e-01 
       2.841785470091e-04       1.755234921224e-01 
       3.068489367268e-04       1.890080670413e-01 
       3.313278604643e-04       2.035264002435e-01 
       3.577595943165e-04       2.191571803681e-01 
       3.862999240274e-04       2.359849437592e-01 
       4.171170631739e-04       2.541004741539e-01 
       4.503926445983e-04       2.736012080278e-01 
       4.863227909323e-04       2.945916790965e-01 
       5.251192705226e-04       3.171839525183e-01 
       5.670107455699e-04       3.414980764002e-01 
       6.122441198393e-04       3.676625413100e-01 
       6.610859938837e-04       3.958147252304e-01 
       7.138242363583e-04       4.261013284912e-01 
       7.707696806873e-04       4.586787792352e-01 
       8.322579570814e-04       4.937136001370e-01 
       8.986514707061e-04       5.313826801402e-01 
       9.703415376577e-04       5.718734972157e-01 
       1.047750691338e-03       6.153841629505e-01 
       1.131335172818e-03       6.621233239466e-01 
       1.221587619877e-03       7.123098220432e-01 
       1.319039970550e-03       7.661720584647e-01 
       1.424266598317e-03       8.239546297731e-01 
       1.537887697396e-03       8.859011173466e-01 
       1.660572938097e-03       9.522588006421e-01 
       1.793045413791e-03       1.023280099819e+00 
       1.936085902737e-03       1.099216304579e+00 
       2.090537469909e-03       1.180312990453e+00 
       2.257310435923e-03       1.266804115852e+00 
       2.437387742372e-03       1.358904853405e+00 
       2.631830745176e-03       1.456802683156e+00 
       2.841785470091e-03       1.560646890522e+00 
       3.068489367268e-03       1.670536062499e+00 
       3.313278604643e-03       1.786503852161e+00 
       3.577595943165e-03       1.908502930790e+00 
       3.862999240274e-03       2.036387730709e+00 
       4.171170631739e-03       2.169896178751e+00 
       4.503926445983e-03       2.308631878994e+00 
       4.863227909323e-03       2.452047290962e+00 
       5.251192705226e-03       2.599430628088e+00 
       5.670107455699e-03       2.749896931798e+00 
       6.122441198393e-03       2.902386513384e+00 
       6.610859938837e-03       3.055668712842e+00 
       7.138242363583e-03       3.208356461546e+00 
       7.707696806873e-03       3.358923892409e+00 
       8.322579570814e-03       3.505724918406e+00 
       8.986514707061e-03       3.647009619605e+00 
       9.703415376577e-03       3.780923304293e+00 
       1.047750691338e-02       3.905491624783e+00 
       1.131335172818e-02       4.018588067949e+00 
       1.221587619877e-02       4.117901580737e+00 
       1.319039970550e-02       4.200915286037e+00 
       1.424266598317e-02       4.264942351462e+00 
       1.537887697392e-02       4.307221405707e+00 
       1.660572938023e-02       4.325062796705e+00 
       1.793045412706e-02       4.316058965922e+00 
       1.936085890181e-02       4.278228801479e+00 
       2.090537352463e-02       4.210205478846e+00 
       2.257309535333e-02       4.111422584964e+00 
       2.437382002918e-02       3.982421094110e+00 
       2.631799944462e-02       3.825177610433e+00 
       2.841644545389e-02       3.643276866959e+00 
       3.067933355377e-02       3.442192960480e+00 
       3.311368470740e-02       3.229238300336e+00 
       3.571840443502e-02       3.013508194374e+00 
       3.847720348444e-02       2.805277351619e+00 
       4.135335538431e-02       2.614408927450e+00 
       4.429361667738e-02       2.448130358823e+00 
       4.724366439141e-02       2.309243181140e+00 
       5.016480835311e-02       2.196115384012e+00 
       5.303989620246e-02       2.104367514993e+00 
       5.586870669566e-02       2.028464349523e+00 
       5.866042680613e-02       1.963152236994e+00 
       6.142798932958e-02       1.903782646645e+00 
       6.418496440164e-02       1.846481446409e+00 
       6.694418833788e-02       1.788200447933e+00 
       6.971731106057e-02       1.726712967531e+00 
       7.251476155766e-02       1.660653702596e+00 
       7.534587671527e-02       1.589470272050e+00 
       7.821907666265e-02       1.513436629043e+00 
       8.114203772912e-02       1.433569160683e+00 
       8.412184535029e-02       1.351491016484e+00 
       8.716512279304e-02       1.269274100171e+00 
       9.027813695930e-02       1.189194554735e+00 
       9.346688431697e-02       1.113501962464e+00 
       9.673716028276e-02       1.044175111110e+00 
       1.000946150830e-01       9.827069480684e-01 
       1.035447986537e-01       9.299378943595e-01 
       1.070931966762e-01       8.859594575836e-01 
       1.107452594425e-01       8.500719358119e-01 
       1.145064249153e-01       8.208036144836e-01 
       1.183821370918e-01       7.960255401975e-01 
       1.223778605862e-01       7.731481386388e-01 
       1.264990921987e-01       7.494502021792e-01 
       1.307513701367e-01       7.225580142586e-01 
       1.351402814784e-01       6.909096043820e-01 
       1.396714684203e-01       6.541813403058e-01 
       1.443506338194e-01       6.134277623142e-01 
       1.491835465229e-01       5.708688041101e-01 
       1.541760469708e-01       5.293635918913e-01 
       1.593340535561e-01       4.917110623968e-01 
       1.646635702297e-01       4.599200464816e-01 
       1.701706958456e-01       4.347291084873e-01 
       1.758616357459e-01       4.154082256240e-01 
       1.817427160982e-01       3.999377644490e-01 
       1.878204015065e-01       3.856830467299e-01 
       1.941013164283e-01       3.698098985545e-01 
       2.005922709503e-01       3.505464382192e-01 
       2.073002914972e-01       3.280436261825e-01 
       2.142326570816e-01       3.042145227813e-01 
       2.213969417533e-01       2.816123667655e-01 
       2.288010639706e-01       2.622566494119e-01 
       2.364533437147e-01       2.469616510279e-01 
       2.443625682930e-01       2.350126209379e-01 
       2.525380679504e-01       2.244180207301e-01 
       2.609898026346e-01       2.130934702370e-01 
       2.697284615565e-01       2.001018763957e-01 
       2.787655775689e-01       1.860202722798e-01 
       2.881136588829e-01       1.725172529685e-01 
       2.977863412677e-01       1.610659428643e-01 
       3.077985646929e-01       1.517611455787e-01 
       3.181667794071e-01       1.435592198521e-01 
       3.289091877812e-01       1.351819302631e-01 
       3.400460299658e-01       1.261643516566e-01 
       3.515999236474e-01       1.172019705099e-01 
       3.635962711085e-01       1.091771522022e-01 
       3.760637506334e-01       1.023095522497e-01 
       3.890349143879e-01       9.593789207439e-02 
       4.025469216825e-01       8.950775254457e-02 
       4.166424456376e-01       8.311155926564e-02 
       4.313708035863e-01       7.721567586236e-02 
       4.467893782977e-01       7.190062680787e-02 
       4.629654199664e-01       6.686919620233e-02 
       4.799783501994e-01       6.191764920929e-02 
       4.979227319373e-01       5.722210864529e-02 
       5.169121270864e-01       5.290283771341e-02 
       5.370841404489e-01       4.876978212988e-02 
       5.586070464571e-01       4.479082836575e-02 
       5.816885094930e-01       4.105180674446e-02 
       6.065870144995e-01       3.748993050664e-02 
       6.336266468475e-01       3.407628923475e-02 
       6.632156059511e-01       3.083459133540e-02 
       6.958678639263e-01       2.772834065340e-02 
       7.322247985589e-01       2.476710866652e-02 
       7.730680195114e-01       2.193959127952e-02 
       8.193049553677e-01       1.925615033394e-02 
       8.718988016039e-01       1.672920702103e-02 
       9.317218031082e-01       1.438423284214e-02 
       9.993660908989e-01       1.225067011261e-02 
       1.075037110174e+00       1.035259834650e-02 
       1.158653485707e+00       8.699706174649e-03 
       1.250099157308e+00       7.284594293604e-03 
       1.349432401273e+00       6.085460140044e-03 
       1.456947457397e+00       5.075688674393e-03 
       1.573135111331e+00       4.228279474410e-03 
       1.698621895592e+00       3.518522834079e-03 
       1.834127512934e+00       2.924950820491e-03 
       1.980444934528e+00       2.429131514577e-03 
       2.138435191726e+00       2.015471863555e-03 
       2.309029199186e+00       1.670735428044e-03 
       2.493232377687e+00       1.383751833150e-03 
       2.692130395285e+00       1.145080039568e-03 
       2.906895534573e+00       9.467997433110e-04 
       3.138793597714e+00       7.822249680571e-04 
       3.389191366484e+00       6.457554213788e-04 
       3.659564657905e+00       5.326930710087e-04 
       3.951507022538e+00       4.391036845091e-04 
       4.266739136701e+00       3.616989657767e-04 
       4.607118943941e+00       2.977279701788e-04 
       4.974652605557e+00       2.449054528200e-04 
       5.371506324689e+00       2.013165185217e-04 
       5.800019113685e+00       1.653757080134e-04 
       6.262716579983e+00       1.357616664601e-04 
       6.762325811764e+00       1.113753384327e-04 
       7.301791451110e+00       9.130783362168e-05 
       7.884293049406e+00       7.480307217885e-05 
       8.513263807261e+00       6.123747904908e-05 
       9.192410809424e+00       5.009249981164e-05 
       9.925736873929e+00       4.094111276104e-05 
       1.071756414427e+01       3.343026786505e-05 
       1.157255956364e+01       2.726806390154e-05 
       1.249576238137e+01       2.221388885369e-05 
       1.349261385375e+01       1.806980221926e-05 
       1.456898931416e+01       1.467277902995e-05 
       1.573123280165e+01       1.188830339414e-05 
       1.698619445202e+01       9.606241764406e-06 
       1.834127087176e+01       7.735860562818e-06 
       1.980444873285e+01       6.203053928986e-06 
       2.138435184532e+01       4.946761182751e-06 
       2.309029198506e+01       3.917543336530e-06 
       2.493232377636e+01       3.074674851219e-06 
       2.692130395282e+01       2.385370270780e-06 
       2.906895534573e+01       1.822904158988e-06 
       3.138793597714e+01       1.365862596851e-06 
       3.389191366484e+01       9.969942486467e-07 
       3.659564657905e+01       7.026212844167e-07 
       3.951507022538e+01       4.717063851108e-07 
       4.266739136701e+01       2.954888627496e-07 
       4.607118943941e+01       1.666698054146e-07 
       4.974652605557e+01       7.892053793014e-08 
       5.371506324689e+01       2.632408081754e-08 
       5.800019113685e+01       2.843957607278e-09 
       6.262716579983e+01       1.954786733065e-09 
       6.762325811764e+01       1.646650298317e-08 
