# Matter power spectrum P(k) at redshift z=0
# for k=1.04775e-05 to 67.6233 h/Mpc,
# number of wavenumbers equal to 246
#    1:k (h/Mpc)              2:P (Mpc/h)^3        
       1.047750691338e-05       5.020964806750e+01 
       1.131335172818e-05       5.407048206553e+01 
       1.221587619877e-05       5.822819063623e+01 
       1.319039970550e-05       6.270562589681e+01 
       1.424266598317e-05       6.752731788102e+01 
       1.537887697396e-05       7.271977200258e+01 
       1.660572938097e-05       7.831147241541e+01 
       1.793045413791e-05       8.433311815128e+01 
       1.936085902737e-05       9.081778242446e+01 
       2.090537469909e-05       9.780108061340e+01 
       2.257310435923e-05       1.053213197032e+02 
       2.437387742372e-05       1.134197377001e+02 
       2.631830745176e-05       1.221408202815e+02 
       2.841785470091e-05       1.315324720916e+02 
       3.068489367268e-05       1.416462093729e+02 
       3.313278604643e-05       1.525374500691e+02 
       3.577595943165e-05       1.642660687078e+02 
       3.862999240274e-05       1.768963504868e+02 
       4.171170631739e-05       1.904975992460e+02 
       4.503926445983e-05       2.051444490305e+02 
       4.863227909323e-05       2.209171463752e+02 
       5.251192705226e-05       2.379022222314e+02 
       5.670107455699e-05       2.561927925593e+02 
       6.122441198393e-05       2.758890441791e+02 
       6.610859938837e-05       2.970989225465e+02 
       7.138242363583e-05       3.199385558200e+02 
       7.707696806873e-05       3.445329780878e+02 
       8.322579570814e-05       3.710167315928e+02 
       8.986514707061e-05       3.995346440954e+02 
       9.703415376577e-05       4.302425403884e+02 
       1.047750691338e-04       4.633080762974e+02 
       1.131335172818e-04       4.989116267507e+02 
       1.221587619877e-04       5.372471946561e+02 
       1.319039970550e-04       5.785234124633e+02 
       1.424266598317e-04       6.229645930980e+02 
       1.537887697396e-04       6.708118484951e+02 
       1.660572938097e-04       7.223242660220e+02 
       1.793045413791e-04       7.777801553744e+02 
       1.936085902737e-04       8.374783607333e+02 
       2.090537469909e-04       9.017396264495e+02 
       2.257310435923e-04       9.709080260152e+02 
       2.437387742372e-04       1.045352448644e+03 
       2.631830745176e-04       1.125468122836e+03 
       2.841785470091e-04       1.211678179511e+03 
       3.068489367268e-04       1.304435249091e+03 
       3.313278604643e-04       1.404223052541e+03 
       3.577595943165e-04       1.511558013390e+03 
       3.862999240274e-04       1.626990836443e+03 
       4.171170631739e-04       1.751108027370e+03 
       4.503926445983e-04       1.884533381345e+03 
       4.863227909323e-04       2.027929376469e+03 
       5.251192705226e-04       2.181998446367e+03 
       5.670107455699e-04       2.347484100857e+03 
       6.122441198393e-04       2.525171869337e+03 
       6.610859938837e-04       2.715889981401e+03 
       7.138242363583e-04       2.920509686086e+03 
       7.707696806873e-04       3.139945097711e+03 
       8.322579570814e-04       3.375152334397e+03 
       8.986514707061e-04       3.627127828231e+03 
       9.703415376577e-04       3.896905450016e+03 
       1.047750691338e-03       4.185552170959e+03 
       1.131335172818e-03       4.494162426791e+03 
       1.221587619877e-03       4.823850702667e+03 
       1.319039970550e-03       5.175742738877e+03 
       1.424266598317e-03       5.551019592538e+03 
       1.537887697396e-03       5.950788335882e+03 
       1.660572938097e-03       6.376123046803e+03 
       1.793045413791e-03       6.828073896120e+03 
       1.936085902737e-03       7.307625375386e+03 
       2.090537469909e-03       7.815671860003e+03 
       2.257310435923e-03       8.352990369401e+03 
       2.437387742372e-03       8.920211057532e+03 
       2.631830745176e-03       9.517783061890e+03 
       2.841785470091e-03       1.014593703671e+04 
       3.068489367268e-03       1.080464505750e+04 
       3.313278604643e-03       1.149357459445e+04 
       3.577595943165e-03       1.221203620826e+04 
       3.862999240274e-03       1.295892538505e+04 
       4.171170631739e-03       1.373265985570e+04 
       4.503926445983e-03       1.453111834595e+04 
       4.863227909323e-03       1.535154984227e+04 
       5.251192705226e-03       1.619063613435e+04 
       5.670107455699e-03       1.704431256569e+04 
       6.122441198393e-03       1.790755938459e+04 
       6.610859938837e-03       1.877460420193e+04 
       7.138242363583e-03       1.963872429097e+04 
       7.707696806873e-03       2.049215712343e+04 
       8.322579570814e-03       2.132606997549e+04 
       8.986514707061e-03       2.213055078283e+04 
       9.703415376577e-03       2.289445470805e+04 
       1.047750691338e-02       2.360548764834e+04 
       1.131335172818e-02       2.425022856731e+04 
       1.221587619877e-02       2.481423921706e+04 
       1.319039970550e-02       2.528218872075e+04 
       1.424266598317e-02       2.563814419143e+04 
       1.537887697392e-02       2.586607178376e+04 
       1.660572938023e-02       2.595028495661e+04 
       1.793045412706e-02       2.587635494455e+04 
       1.936085890181e-02       2.563217959184e+04 
       2.090537352463e-02       2.520935530661e+04 
       2.257309535333e-02       2.460445919050e+04 
       2.437382002918e-02       2.382087849913e+04 
       2.631799944462e-02       2.287046142234e+04 
       2.841644545389e-02       2.177448561240e+04 
       3.067933355377e-02       2.056556714749e+04 
       3.311368470740e-02       1.928730699330e+04 
       3.571840443502e-02       1.799399110863e+04 
       3.847720348444e-02       1.674683827267e+04 
       4.135335538431e-02       1.560451595938e+04 
       4.429361667738e-02       1.461040633339e+04 
       4.724366439141e-02       1.378054190917e+04 
       5.016480835311e-02       1.310507529663e+04 
       5.303989620246e-02       1.255715374970e+04 
       5.586870669566e-02       1.210425240042e+04 
       5.866042680613e-02       1.171463336854e+04 
       6.142798932958e-02       1.136047546307e+04 
       6.418496440164e-02       1.101856949360e+04 
       6.694418833788e-02       1.067067562994e+04 
       6.971731106057e-02       1.030360367100e+04 
       7.251476155766e-02       9.908985376336e+03 
       7.534587671527e-02       9.483782625734e+03 
       7.821907666265e-02       9.029507519790e+03 
       8.114203772912e-02       8.552323624212e+03 
       8.412184535029e-02       8.061955870148e+03 
       8.716512279304e-02       7.570768686433e+03 
       9.027813695930e-02       7.092507150604e+03 
       9.346688431697e-02       6.640524460622e+03 
       9.673716028276e-02       6.226708756525e+03 
       1.000946150830e-01       5.859938777589e+03 
       1.035447986537e-01       5.545241384284e+03 
       1.070931966762e-01       5.283137712102e+03 
       1.107452594425e-01       5.069423804491e+03 
       1.145064249153e-01       4.895235560845e+03 
       1.183821370918e-01       4.747845610358e+03 
       1.223778605862e-01       4.611733650440e+03 
       1.264990921987e-01       4.470620341670e+03 
       1.307513701367e-01       4.310279581065e+03 
       1.351402814784e-01       4.121389673811e+03 
       1.396714684203e-01       3.902065664896e+03 
       1.443506338194e-01       3.658633114677e+03 
       1.491835465229e-01       3.404480347792e+03 
       1.541760469708e-01       3.156672258783e+03 
       1.593340535561e-01       2.931972919548e+03 
       1.646635702297e-01       2.742380407607e+03 
       1.701706958456e-01       2.592259787940e+03 
       1.758616357459e-01       2.477240433090e+03 
       1.817427160982e-01       2.385185270281e+03 
       1.878204015065e-01       2.300359213807e+03 
       1.941013164283e-01       2.205765978808e+03 
       2.005922709503e-01       2.090817427454e+03 
       2.073002914972e-01       1.956466550011e+03 
       2.142326570816e-01       1.814190747779e+03 
       2.213969417533e-01       1.679299446349e+03 
       2.288010639706e-01       1.563845985010e+03 
       2.364533437147e-01       1.472689751017e+03 
       2.443625682930e-01       1.401514898522e+03 
       2.525380679504e-01       1.338415621626e+03 
       2.609898026346e-01       1.270903716881e+03 
       2.697284615565e-01       1.193382971024e+03 
       2.787655775689e-01       1.109341998745e+03 
       2.881136588829e-01       1.028771191151e+03 
       2.977863412677e-01       9.604781283989e+02 
       3.077985646929e-01       9.050255824477e+02 
       3.181667794071e-01       8.561475851954e+02 
       3.289091877812e-01       8.061907555855e+02 
       3.400460299658e-01       7.523900785924e+02 
       3.515999236474e-01       6.989215312534e+02 
       3.635962711085e-01       6.510626567299e+02 
       3.760637506334e-01       6.101221430034e+02 
       3.890349143879e-01       5.721333928312e+02 
       4.025469216825e-01       5.337820425388e+02 
       4.166424456376e-01       4.956318192352e+02 
       4.313708035863e-01       4.604683052344e+02 
       4.467893782977e-01       4.287778032506e+02 
       4.629654199664e-01       3.987725824080e+02 
       4.799783501994e-01       3.692417709644e+02 
       4.979227319373e-01       3.412401154893e+02 
       5.169121270864e-01       3.154838104827e+02 
       5.370841404489e-01       2.908354008209e+02 
       5.586070464571e-01       2.671060810098e+02 
       5.816885094930e-01       2.448096609929e+02 
       6.065870144995e-01       2.235682769674e+02 
       6.336266468475e-01       2.032106981959e+02 
       6.632156059511e-01       1.838797882502e+02 
       6.958678639263e-01       1.653541205838e+02 
       7.322247985589e-01       1.476960462436e+02 
       7.730680195114e-01       1.308342234233e+02 
       8.193049553677e-01       1.148312812326e+02 
       8.718988016039e-01       9.976287844775e+01 
       9.317218031082e-01       8.577814986006e+01 
       9.993660908989e-01       7.305493624766e+01 
       1.075037110174e+00       6.173608877087e+01 
       1.158653485707e+00       5.187926006890e+01 
       1.250099157308e+00       4.344029966896e+01 
       1.349432401273e+00       3.628943760997e+01 
       1.456947457397e+00       3.026815638771e+01 
       1.573135111331e+00       2.521462415678e+01 
       1.698621895592e+00       2.098196231128e+01 
       1.834127512934e+00       1.744245502239e+01 
       1.980444934528e+00       1.448564539711e+01 
       2.138435191726e+00       1.201893948680e+01 
       2.309029199186e+00       9.963199598693e+00 
       2.493232377687e+00       8.251809408608e+00 
       2.692130395285e+00       6.828637841907e+00 
       2.906895534573e+00       5.646267565896e+00 
       3.138793597714e+00       4.664883585546e+00 
       3.389191366484e+00       3.851103707278e+00 
       3.659564657905e+00       3.176952432393e+00 
       3.951507022538e+00       2.618881007361e+00 
       4.266739136701e+00       2.157341929586e+00 
       4.607118943941e+00       1.775924549214e+00 
       4.974652605557e+00       1.460991023688e+00 
       5.371506324689e+00       1.201132704848e+00 
       5.800019113685e+00       9.868803192409e-01 
       6.262716579983e+00       8.103510301187e-01 
       6.762325811764e+00       6.650103831640e-01 
       7.301791451110e+00       5.454316155876e-01 
       7.884293049406e+00       4.471026709420e-01 
       8.513263807261e+00       3.662992827270e-01 
       9.192410809424e+00       2.999421592994e-01 
       9.925736873929e+00       2.454793738122e-01 
       1.071756414427e+01       2.008080357590e-01 
       1.157255956364e+01       1.641846724595e-01 
       1.249576238137e+01       1.341778264160e-01 
       1.349261385375e+01       1.096026960652e-01 
       1.456898931416e+01       8.948912146714e-02 
       1.573123280165e+01       7.303430891998e-02 
       1.698619445202e+01       5.957826788160e-02 
       1.834127087176e+01       4.858105084390e-02 
       1.980444873285e+01       3.959683049444e-02 
       2.138435184532e+01       3.226096586487e-02 
       2.309029198506e+01       2.627353031635e-02 
       2.493232377636e+01       2.138848860704e-02 
       2.692130395282e+01       1.740479143927e-02 
       2.906895534573e+01       1.415737227449e-02 
       3.138793597714e+01       1.151118681440e-02 
       3.389191366484e+01       9.355970143411e-03 
       3.659564657905e+01       7.601172682886e-03 
       3.951507022538e+01       6.172965221237e-03 
       4.266739136701e+01       5.010988247810e-03 
       4.607118943941e+01       4.066116136579e-03 
       4.974652605557e+01       3.297900453246e-03 
       5.371506324689e+01       2.673618046107e-03 
       5.800019113685e+01       2.166463759823e-03 
       6.262716579983e+01       1.754639288833e-03 
       6.762325811764e+01       1.420337139062e-03 
