# Matter power spectrum P(k) at redshift z=99
# for k=1.04775e-05 to 67.6233 h/Mpc,
# number of wavenumbers equal to 246
#    1:k (h/Mpc)              2:P (Mpc/h)^3        
       1.047750691338e-05       7.261927673119e-03 
       1.131335172818e-05       7.820331745737e-03 
       1.221587619877e-05       8.421675986489e-03 
       1.319039970550e-05       9.069258192194e-03 
       1.424266598317e-05       9.766638404421e-03 
       1.537887697396e-05       1.051764069682e-02 
       1.660572938097e-05       1.132639105520e-02 
       1.793045413791e-05       1.219733231416e-02 
       1.936085902737e-05       1.313524224380e-02 
       2.090537469909e-05       1.414527121893e-02 
       2.257310435923e-05       1.523296272192e-02 
       2.437387742372e-05       1.640429444530e-02 
       2.631830745176e-05       1.766569582178e-02 
       2.841785470091e-05       1.902408601793e-02 
       3.068489367268e-05       2.048692970592e-02 
       3.313278604643e-05       2.206225513594e-02 
       3.577595943165e-05       2.375870704909e-02 
       3.862999240274e-05       2.558560727479e-02 
       4.171170631739e-05       2.755297763344e-02 
       4.503926445983e-05       2.967161927315e-02 
       4.863227909323e-05       3.195316450832e-02 
       5.251192705226e-05       3.441013519284e-02 
       5.670107455699e-05       3.705601722531e-02 
       6.122441198393e-05       3.990533413561e-02 
       6.610859938837e-05       4.297372168203e-02 
       7.138242363583e-05       4.627802141688e-02 
       7.707696806873e-05       4.983636194159e-02 
       8.322579570814e-05       5.366826847231e-02 
       8.986514707061e-05       5.779476394568e-02 
       9.703415376577e-05       6.223848243885e-02 
       1.047750691338e-04       6.702379865640e-02 
       1.131335172818e-04       7.217695153381e-02 
       1.221587619877e-04       7.772619073574e-02 
       1.319039970550e-04       8.370193432377e-02 
       1.424266598317e-04       9.013692507546e-02 
       1.537887697396e-04       9.706641242570e-02 
       1.660572938097e-04       1.045283354271e-01 
       1.793045413791e-04       1.125635349068e-01 
       1.936085902737e-04       1.212159614968e-01 
       2.090537469909e-04       1.305329132714e-01 
       2.257310435923e-04       1.405652846215e-01 
       2.437387742372e-04       1.513678302540e-01 
       2.631830745176e-04       1.629994504871e-01 
       2.841785470091e-04       1.755234921224e-01 
       3.068489367268e-04       1.890080670413e-01 
       3.313278604643e-04       2.035264002435e-01 
       3.577595943165e-04       2.191571803681e-01 
       3.862999240274e-04       2.359849437593e-01 
       4.171170631739e-04       2.541004741539e-01 
       4.503926445983e-04       2.736012080277e-01 
       4.863227909323e-04       2.945916790965e-01 
       5.251192705226e-04       3.171839525182e-01 
       5.670107455699e-04       3.414980764002e-01 
       6.122441198393e-04       3.676625413100e-01 
       6.610859938837e-04       3.958147252304e-01 
       7.138242363583e-04       4.261013284917e-01 
       7.707696806873e-04       4.586787792354e-01 
       8.322579570814e-04       4.937136001331e-01 
       8.986514707061e-04       5.313826801402e-01 
       9.703415376577e-04       5.718734972158e-01 
       1.047750691338e-03       6.153841629505e-01 
       1.131335172818e-03       6.621233239466e-01 
       1.221587619877e-03       7.123098220417e-01 
       1.319039970550e-03       7.661720584438e-01 
       1.424266598317e-03       8.239546297732e-01 
       1.537887697396e-03       8.859011173466e-01 
       1.660572938097e-03       9.522588006418e-01 
       1.793045413791e-03       1.023280099819e+00 
       1.936085902737e-03       1.099216304579e+00 
       2.090537469909e-03       1.180312990453e+00 
       2.257310435923e-03       1.266804115850e+00 
       2.437387742372e-03       1.358904853405e+00 
       2.631830745176e-03       1.456802683156e+00 
       2.841785470091e-03       1.560646890521e+00 
       3.068489367268e-03       1.670536062501e+00 
       3.313278604643e-03       1.786503852160e+00 
       3.577595943165e-03       1.908502930788e+00 
       3.862999240274e-03       2.036387730709e+00 
       4.171170631739e-03       2.169896178757e+00 
       4.503926445983e-03       2.308631878993e+00 
       4.863227909323e-03       2.452047290961e+00 
       5.251192705226e-03       2.599430628087e+00 
       5.670107455699e-03       2.749896931820e+00 
       6.122441198393e-03       2.902386513382e+00 
       6.610859938837e-03       3.055668686884e+00 
       7.138242363583e-03       3.208356461543e+00 
       7.707696806873e-03       3.358923892500e+00 
       8.322579570814e-03       3.505725595171e+00 
       8.986514707061e-03       3.647009569770e+00 
       9.703415376577e-03       3.780923304325e+00 
       1.047750691338e-02       3.905490649710e+00 
       1.131335172818e-02       4.018587641295e+00 
       1.221587619877e-02       4.117901587031e+00 
       1.319039970550e-02       4.200915389543e+00 
       1.424266598317e-02       4.264942424875e+00 
       1.537887697392e-02       4.307218242640e+00 
       1.660572938023e-02       4.325064281021e+00 
       1.793045412706e-02       4.316056877320e+00 
       1.936085890181e-02       4.278232253876e+00 
       2.090537352463e-02       4.210200664905e+00 
       2.257309535333e-02       4.111423037089e+00 
       2.437382002918e-02       3.982422702443e+00 
       2.631799944462e-02       3.825169595676e+00 
       2.841644545389e-02       3.643277680022e+00 
       3.067933355377e-02       3.442197219808e+00 
       3.311368470740e-02       3.229235020884e+00 
       3.571840443502e-02       3.013513022286e+00 
       3.847720348444e-02       2.805279138837e+00 
       4.135335538431e-02       2.614410956070e+00 
       4.429361667738e-02       2.448137390487e+00 
       4.724366439141e-02       2.309235836505e+00 
       5.016480835311e-02       2.196109483390e+00 
       5.303989620246e-02       2.104363499165e+00 
       5.586870669566e-02       2.028462166631e+00 
       5.866042680613e-02       1.963154379196e+00 
       6.142798932958e-02       1.903780483751e+00 
       6.418496440164e-02       1.846478970705e+00 
       6.694418833788e-02       1.788196172999e+00 
       6.971731106057e-02       1.726717220189e+00 
       7.251476155766e-02       1.660657376395e+00 
       7.534587671527e-02       1.589472523810e+00 
       7.821907666265e-02       1.513438107606e+00 
       8.114203772912e-02       1.433571150541e+00 
       8.412184535029e-02       1.351493796325e+00 
       8.716512279304e-02       1.269275668022e+00 
       9.027813695930e-02       1.189193121675e+00 
       9.346688431697e-02       1.113501458617e+00 
       9.673716028276e-02       1.044177971132e+00 
       1.000946150830e-01       9.827060256193e-01 
       1.035447986537e-01       9.299374205360e-01 
       1.070931966762e-01       8.859583937983e-01 
       1.107452594425e-01       8.500712138047e-01 
       1.145064249153e-01       8.208025768127e-01 
       1.183821370918e-01       7.960242779326e-01 
       1.223778605862e-01       7.731445526226e-01 
       1.264990921987e-01       7.494520536203e-01 
       1.307513701367e-01       7.225580208810e-01 
       1.351402814784e-01       6.909086970999e-01 
       1.396714684203e-01       6.541807208340e-01 
       1.443506338194e-01       6.134274475694e-01 
       1.491835465229e-01       5.708678092545e-01 
       1.541760469708e-01       5.293654100722e-01 
       1.593340535561e-01       4.917113261253e-01 
       1.646635702297e-01       4.599198405283e-01 
       1.701706958456e-01       4.347285098673e-01 
       1.758616357459e-01       4.154082444448e-01 
       1.817427160982e-01       3.999368592102e-01 
       1.878204015065e-01       3.856825971815e-01 
       1.941013164283e-01       3.698086078540e-01 
       2.005922709503e-01       3.505460602632e-01 
       2.073002914972e-01       3.280430182257e-01 
       2.142326570816e-01       3.042138898470e-01 
       2.213969417533e-01       2.816115298083e-01 
       2.288010639706e-01       2.622572791358e-01 
       2.364533437147e-01       2.469621686726e-01 
       2.443625682930e-01       2.350129540666e-01 
       2.525380679504e-01       2.244178401983e-01 
       2.609898026346e-01       2.130931222656e-01 
       2.697284615565e-01       2.001019564502e-01 
       2.787655775689e-01       1.860195786943e-01 
       2.881136588829e-01       1.725177398485e-01 
       2.977863412677e-01       1.610664202669e-01 
       3.077985646929e-01       1.517606221035e-01 
       3.181667794071e-01       1.435596531816e-01 
       3.289091877812e-01       1.351816068716e-01 
       3.400460299658e-01       1.261644623335e-01 
       3.515999236474e-01       1.172017592837e-01 
       3.635962711085e-01       1.091767598648e-01 
       3.760637506334e-01       1.023092774812e-01 
       3.890349143879e-01       9.593727990544e-02 
       4.025469216825e-01       8.950725400501e-02 
       4.166424456376e-01       8.311146236239e-02 
       4.313708035863e-01       7.721533108067e-02 
       4.467893782977e-01       7.190038573634e-02 
       4.629654199664e-01       6.686855448528e-02 
       4.799783501994e-01       6.191694742610e-02 
       4.979227319373e-01       5.722193588882e-02 
       5.169121270864e-01       5.290226779387e-02 
       5.370841404489e-01       4.876907674844e-02 
       5.586070464571e-01       4.479016704466e-02 
       5.816885094930e-01       4.105123201882e-02 
       6.065870144995e-01       3.748916787288e-02 
       6.336266468475e-01       3.407549240400e-02 
       6.632156059511e-01       3.083375317803e-02 
       6.958678639263e-01       2.772731810195e-02 
       7.322247985589e-01       2.476618249518e-02 
       7.730680195114e-01       2.193853594301e-02 
       8.193049553677e-01       1.925494721958e-02 
       8.718988016039e-01       1.672800410396e-02 
       9.317218031082e-01       1.438285882709e-02 
       9.993660908989e-01       1.224912451913e-02 
       1.075037110174e+00       1.035090440360e-02 
       1.158653485707e+00       8.697839252759e-03 
       1.250099157308e+00       7.282506965134e-03 
       1.349432401273e+00       6.083149420685e-03 
       1.456947457397e+00       5.073149467796e-03 
       1.573135111331e+00       4.225488259411e-03 
       1.698621895592e+00       3.515428142613e-03 
       1.834127512934e+00       2.921563850833e-03 
       1.980444934528e+00       2.425419495949e-03 
       2.138435191726e+00       2.011389752919e-03 
       2.309029199186e+00       1.666259359583e-03 
       2.493232377687e+00       1.378858296849e-03 
       2.692130395285e+00       1.139739461263e-03 
       2.906895534573e+00       9.409812289020e-04 
       3.138793597714e+00       7.758884143700e-04 
       3.389191366484e+00       6.388625297437e-04 
       3.659564657905e+00       5.252171170754e-04 
       3.951507022538e+00       4.310138256247e-04 
       4.266739136701e+00       3.529600193950e-04 
       4.607118943941e+00       2.883133908464e-04 
       4.974652605557e+00       2.347903221069e-04 
       5.371506324689e+00       1.904872756757e-04 
       5.800019113685e+00       1.538246630421e-04 
       6.262716579983e+00       1.234912542447e-04 
       6.762325811764e+00       9.840714672890e-05 
       7.301791451110e+00       7.768014545143e-05 
       7.884293049406e+00       6.057859056280e-05 
       8.513263807261e+00       4.650767942643e-05 
       9.192410809424e+00       3.498272470407e-05 
       9.925736873929e+00       2.561251055150e-05 
       1.071756414427e+01       1.808432401770e-05 
       1.157255956364e+01       1.214725736301e-05 
       1.249576238137e+01       7.597282503916e-06 
       1.349261385375e+01       4.263850809445e-06 
       1.456898931416e+01       1.995484179252e-06 
       1.573123280165e+01       6.455187699487e-07 
       1.698619445202e+01       5.953080356368e-08 
       1.834127087176e+01       6.583180884442e-08 
       1.980444873285e+01       4.718686620239e-07 
       2.138435184532e+01       1.069636727587e-06 
       2.309029198506e+01       1.652366498408e-06 
       2.493232377636e+01       2.042143538863e-06 
       2.692130395282e+01       2.123629588093e-06 
       2.906895534573e+01       1.874283597059e-06 
       3.138793597714e+01       1.374623469766e-06 
       3.389191366484e+01       7.868762278076e-07 
       3.659564657905e+01       2.967255345665e-07 
       3.951507022538e+01       3.537626997611e-08 
       4.266739136701e+01       1.792077847081e-08 
       4.607118943941e+01       1.396362923694e-07 
       4.974652605557e+01       2.456986866271e-07 
       5.371506324689e+01       2.368658625656e-07 
       5.800019113685e+01       1.320413638595e-07 
       6.262716579983e+01       2.960687562008e-08 
       6.762325811764e+01       4.799432587417e-10 
