# Matter power spectrum P(k) at redshift z=0
# for k=1.04775e-05 to 67.6233 h/Mpc,
# number of wavenumbers equal to 246
#    1:k (h/Mpc)              2:P (Mpc/h)^3        
       1.047750691338e-05       5.020964806754e+01 
       1.131335172818e-05       5.407048206553e+01 
       1.221587619877e-05       5.822819063813e+01 
       1.319039970550e-05       6.270562589683e+01 
       1.424266598317e-05       6.752731788102e+01 
       1.537887697396e-05       7.271977200258e+01 
       1.660572938097e-05       7.831147241542e+01 
       1.793045413791e-05       8.433311815128e+01 
       1.936085902737e-05       9.081778242446e+01 
       2.090537469909e-05       9.780108061340e+01 
       2.257310435923e-05       1.053213197032e+02 
       2.437387742372e-05       1.134197377001e+02 
       2.631830745176e-05       1.221408202816e+02 
       2.841785470091e-05       1.315324720916e+02 
       3.068489367268e-05       1.416462093730e+02 
       3.313278604643e-05       1.525374500691e+02 
       3.577595943165e-05       1.642660687078e+02 
       3.862999240274e-05       1.768963504868e+02 
       4.171170631739e-05       1.904975992460e+02 
       4.503926445983e-05       2.051444490305e+02 
       4.863227909323e-05       2.209171463752e+02 
       5.251192705226e-05       2.379022222314e+02 
       5.670107455699e-05       2.561927925439e+02 
       6.122441198393e-05       2.758890441791e+02 
       6.610859938837e-05       2.970989225465e+02 
       7.138242363583e-05       3.199385558200e+02 
       7.707696806873e-05       3.445329780878e+02 
       8.322579570814e-05       3.710167315928e+02 
       8.986514707061e-05       3.995346440954e+02 
       9.703415376577e-05       4.302425403884e+02 
       1.047750691338e-04       4.633080762974e+02 
       1.131335172818e-04       4.989116267507e+02 
       1.221587619877e-04       5.372471946561e+02 
       1.319039970550e-04       5.785234124631e+02 
       1.424266598317e-04       6.229645930980e+02 
       1.537887697396e-04       6.708118484951e+02 
       1.660572938097e-04       7.223242660219e+02 
       1.793045413791e-04       7.777801554259e+02 
       1.936085902737e-04       8.374783607333e+02 
       2.090537469909e-04       9.017396264495e+02 
       2.257310435923e-04       9.709080260151e+02 
       2.437387742372e-04       1.045352448644e+03 
       2.631830745176e-04       1.125468122836e+03 
       2.841785470091e-04       1.211678179510e+03 
       3.068489367268e-04       1.304435249091e+03 
       3.313278604643e-04       1.404223052541e+03 
       3.577595943165e-04       1.511558013390e+03 
       3.862999240274e-04       1.626990836454e+03 
       4.171170631739e-04       1.751108027370e+03 
       4.503926445983e-04       1.884533381344e+03 
       4.863227909323e-04       2.027929376469e+03 
       5.251192705226e-04       2.181998446366e+03 
       5.670107455699e-04       2.347484100856e+03 
       6.122441198393e-04       2.525171869335e+03 
       6.610859938837e-04       2.715889981399e+03 
       7.138242363583e-04       2.920509686094e+03 
       7.707696806873e-04       3.139945097706e+03 
       8.322579570814e-04       3.375152334392e+03 
       8.986514707061e-04       3.627127828225e+03 
       9.703415376577e-04       3.896905450009e+03 
       1.047750691338e-03       4.185552170985e+03 
       1.131335172818e-03       4.494162426779e+03 
       1.221587619877e-03       4.823850702653e+03 
       1.319039970550e-03       5.175742735130e+03 
       1.424266598317e-03       5.551019592489e+03 
       1.537887697396e-03       5.950788335845e+03 
       1.660572938097e-03       6.376123046755e+03 
       1.793045413791e-03       6.828073896080e+03 
       1.936085902737e-03       7.307625375322e+03 
       2.090537469909e-03       7.815671846982e+03 
       2.257310435923e-03       8.352990369286e+03 
       2.437387742372e-03       8.920211057406e+03 
       2.631830745176e-03       9.517783061720e+03 
       2.841785470091e-03       1.014593703650e+04 
       3.068489367268e-03       1.080464505703e+04 
       3.313278604643e-03       1.149357459509e+04 
       3.577595943165e-03       1.221203620783e+04 
       3.862999240274e-03       1.295892538451e+04 
       4.171170631739e-03       1.373266002305e+04 
       4.503926445983e-03       1.453111834509e+04 
       4.863227909323e-03       1.535154981124e+04 
       5.251192705226e-03       1.619063595052e+04 
       5.670107455699e-03       1.704431255582e+04 
       6.122441198393e-03       1.790755949075e+04 
       6.610859938837e-03       1.877460321240e+04 
       7.138242363583e-03       1.963872463331e+04 
       7.707696806873e-03       2.049215711567e+04 
       8.322579570814e-03       2.132611387479e+04 
       8.986514707061e-03       2.213054997606e+04 
       9.703415376577e-03       2.289445590705e+04 
       1.047750691338e-02       2.360548521112e+04 
       1.131335172818e-02       2.425022834871e+04 
       1.221587619877e-02       2.481423925048e+04 
       1.319039970550e-02       2.528219483287e+04 
       1.424266598317e-02       2.563815105182e+04 
       1.537887697392e-02       2.586607596032e+04 
       1.660572938023e-02       2.595028475679e+04 
       1.793045412706e-02       2.587637218384e+04 
       1.936085890181e-02       2.563217703791e+04 
       2.090537352463e-02       2.520937776599e+04 
       2.257309535333e-02       2.460463037234e+04 
       2.437382002918e-02       2.382088819368e+04 
       2.631799944462e-02       2.287039290398e+04 
       2.841644545389e-02       2.177445017355e+04 
       3.067933355377e-02       2.056548677152e+04 
       3.311368470740e-02       1.928726427379e+04 
       3.571840443502e-02       1.799396323705e+04 
       3.847720348444e-02       1.674677858954e+04 
       4.135335538431e-02       1.560458757420e+04 
       4.429361667738e-02       1.461029077057e+04 
       4.724366439141e-02       1.378047367202e+04 
       5.016480835311e-02       1.310503738273e+04 
       5.303989620246e-02       1.255714403490e+04 
       5.586870669566e-02       1.210422830334e+04 
       5.866042680613e-02       1.171465354012e+04 
       6.142798932958e-02       1.136053272590e+04 
       6.418496440164e-02       1.101861844272e+04 
       6.694418833788e-02       1.067068894038e+04 
       6.971731106057e-02       1.030346033163e+04 
       7.251476155766e-02       9.909050632439e+03 
       7.534587671527e-02       9.483640807511e+03 
       7.821907666265e-02       9.029351357295e+03 
       8.114203772912e-02       8.552163934341e+03 
       8.412184535029e-02       8.061967106479e+03 
       8.716512279304e-02       7.570780830385e+03 
       9.027813695930e-02       7.092498719466e+03 
       9.346688431697e-02       6.640522963439e+03 
       9.673716028276e-02       6.226718260602e+03 
       1.000946150830e-01       5.859952346143e+03 
       1.035447986537e-01       5.545251370396e+03 
       1.070931966762e-01       5.283149245065e+03 
       1.107452594425e-01       5.069454229959e+03 
       1.145064249153e-01       4.895279408244e+03 
       1.183821370918e-01       4.747843598930e+03 
       1.223778605862e-01       4.611730445744e+03 
       1.264990921987e-01       4.470616107135e+03 
       1.307513701367e-01       4.310275198244e+03 
       1.351402814784e-01       4.121401421131e+03 
       1.396714684203e-01       3.902057602281e+03 
       1.443506338194e-01       3.658656960962e+03 
       1.491835465229e-01       3.404475350914e+03 
       1.541760469708e-01       3.156647074895e+03 
       1.593340535561e-01       2.931939272668e+03 
       1.646635702297e-01       2.742353915362e+03 
       1.701706958456e-01       2.592235123779e+03 
       1.758616357459e-01       2.477213795200e+03 
       1.817427160982e-01       2.385164673414e+03 
       1.878204015065e-01       2.300343043553e+03 
       1.941013164283e-01       2.205774864610e+03 
       2.005922709503e-01       2.090844535374e+03 
       2.073002914972e-01       1.956464520000e+03 
       2.142326570816e-01       1.814173199470e+03 
       2.213969417533e-01       1.679273561610e+03 
       2.288010639706e-01       1.563848992635e+03 
       2.364533437147e-01       1.472669726484e+03 
       2.443625682930e-01       1.401510738283e+03 
       2.525380679504e-01       1.338421005890e+03 
       2.609898026346e-01       1.270899493760e+03 
       2.697284615565e-01       1.193357225418e+03 
       2.787655775689e-01       1.109328798522e+03 
       2.881136588829e-01       1.028764981214e+03 
       2.977863412677e-01       9.604745518245e+02 
       3.077985646929e-01       9.050155837151e+02 
       3.181667794071e-01       8.561346700089e+02 
       3.289091877812e-01       8.061784659988e+02 
       3.400460299658e-01       7.523828815556e+02 
       3.515999236474e-01       6.989134805046e+02 
       3.635962711085e-01       6.510571195674e+02 
       3.760637506334e-01       6.101172071955e+02 
       3.890349143879e-01       5.721249897287e+02 
       4.025469216825e-01       5.337738838983e+02 
       4.166424456376e-01       4.956217173706e+02 
       4.313708035863e-01       4.604636340698e+02 
       4.467893782977e-01       4.287681035753e+02 
       4.629654199664e-01       3.987676405517e+02 
       4.799783501994e-01       3.692344938592e+02 
       4.979227319373e-01       3.412351016745e+02 
       5.169121270864e-01       3.154758409286e+02 
       5.370841404489e-01       2.908294134461e+02 
       5.586070464571e-01       2.670996964414e+02 
       5.816885094930e-01       2.448033347296e+02 
       6.065870144995e-01       2.235652691088e+02 
       6.336266468475e-01       2.032073867476e+02 
       6.632156059511e-01       1.838757705958e+02 
       6.958678639263e-01       1.653515342342e+02 
       7.322247985589e-01       1.476925952709e+02 
       7.730680195114e-01       1.308314506049e+02 
       8.193049553677e-01       1.148286232224e+02 
       8.718988016039e-01       9.976056751999e+01 
       9.317218031082e-01       8.577531088773e+01 
       9.993660908989e-01       7.305188971020e+01 
       1.075037110174e+00       6.173348726500e+01 
       1.158653485707e+00       5.187652555830e+01 
       1.250099157308e+00       4.343781242836e+01 
       1.349432401273e+00       3.628640453408e+01 
       1.456947457397e+00       3.026544150859e+01 
       1.573135111331e+00       2.521217201354e+01 
       1.698621895592e+00       2.097964476802e+01 
       1.834127512934e+00       1.743997369121e+01 
       1.980444934528e+00       1.448330704269e+01 
       2.138435191726e+00       1.201654252753e+01 
       2.309029199186e+00       9.960865814025e+00 
       2.493232377687e+00       8.249523328285e+00 
       2.692130395285e+00       6.826308730312e+00 
       2.906895534573e+00       5.644027720084e+00 
       3.138793597714e+00       4.662614246469e+00 
       3.389191366484e+00       3.848935322266e+00 
       3.659564657905e+00       3.174763587970e+00 
       3.951507022538e+00       2.616716884407e+00 
       4.266739136701e+00       2.155226779037e+00 
       4.607118943941e+00       1.773844130563e+00 
       4.974652605557e+00       1.458932887557e+00 
       5.371506324689e+00       1.199103649424e+00 
       5.800019113685e+00       9.848925845473e-01 
       6.262716579983e+00       8.084060259641e-01 
       6.762325811764e+00       6.630969535473e-01 
       7.301791451110e+00       5.435495301968e-01 
       7.884293049406e+00       4.452636152087e-01 
       8.513263807261e+00       3.645055606860e-01 
       9.192410809424e+00       2.981872870845e-01 
       9.925736873929e+00       2.437681802164e-01 
       1.071756414427e+01       1.991389247888e-01 
       1.157255956364e+01       1.625551857765e-01 
       1.249576238137e+01       1.325897305723e-01 
       1.349261385375e+01       1.080568809804e-01 
       1.456898931416e+01       8.798472414482e-02 
       1.573123280165e+01       7.157177056157e-02 
       1.698619445202e+01       5.815825608999e-02 
       1.834127087176e+01       4.720337426715e-02 
       1.980444873285e+01       3.826183784873e-02 
       2.138435184532e+01       3.096776421693e-02 
       2.309029198506e+01       2.502236399004e-02 
       2.493232377636e+01       2.017942121572e-02 
       2.692130395282e+01       1.623819935238e-02 
       2.906895534573e+01       1.303295992226e-02 
       3.138793597714e+01       1.042937360356e-02 
       3.389191366484e+01       8.316778760927e-03 
       3.659564657905e+01       6.604892576629e-03 
       3.951507022538e+01       5.219969974298e-03 
       4.266739136701e+01       4.101705251594e-03 
       4.607118943941e+01       3.200966763189e-03 
       4.974652605557e+01       2.477655746849e-03 
       5.371506324689e+01       1.898952539045e-03 
       5.800019113685e+01       1.438163113172e-03 
       6.262716579983e+01       1.073598510206e-03 
       6.762325811764e+01       7.874411983513e-04 
