# Matter power spectrum P(k) at redshift z=0
# for k=1.04775e-05 to 67.6233 h/Mpc,
# number of wavenumbers equal to 246
#    1:k (h/Mpc)              2:P (Mpc/h)^3        
       1.047750691338e-05       5.020964806754e+01 
       1.131335172818e-05       5.407048206553e+01 
       1.221587619877e-05       5.822819063874e+01 
       1.319039970550e-05       6.270562589679e+01 
       1.424266598317e-05       6.752731788102e+01 
       1.537887697396e-05       7.271977200258e+01 
       1.660572938097e-05       7.831147241542e+01 
       1.793045413791e-05       8.433311815128e+01 
       1.936085902737e-05       9.081778242446e+01 
       2.090537469909e-05       9.780108061340e+01 
       2.257310435923e-05       1.053213197032e+02 
       2.437387742372e-05       1.134197377001e+02 
       2.631830745176e-05       1.221408202816e+02 
       2.841785470091e-05       1.315324720916e+02 
       3.068489367268e-05       1.416462093730e+02 
       3.313278604643e-05       1.525374500691e+02 
       3.577595943165e-05       1.642660687078e+02 
       3.862999240274e-05       1.768963504868e+02 
       4.171170631739e-05       1.904975992460e+02 
       4.503926445983e-05       2.051444490305e+02 
       4.863227909323e-05       2.209171463751e+02 
       5.251192705226e-05       2.379022222312e+02 
       5.670107455699e-05       2.561927925566e+02 
       6.122441198393e-05       2.758890441790e+02 
       6.610859938837e-05       2.970989225465e+02 
       7.138242363583e-05       3.199385558199e+02 
       7.707696806873e-05       3.445329780876e+02 
       8.322579570814e-05       3.710167315927e+02 
       8.986514707061e-05       3.995346440952e+02 
       9.703415376577e-05       4.302425403882e+02 
       1.047750691338e-04       4.633080762972e+02 
       1.131335172818e-04       4.989116267505e+02 
       1.221587619877e-04       5.372471946558e+02 
       1.319039970550e-04       5.785234124633e+02 
       1.424266598317e-04       6.229645930976e+02 
       1.537887697396e-04       6.708118484946e+02 
       1.660572938097e-04       7.223242660213e+02 
       1.793045413791e-04       7.777801569772e+02 
       1.936085902737e-04       8.374783607323e+02 
       2.090537469909e-04       9.017396264481e+02 
       2.257310435923e-04       9.709080260134e+02 
       2.437387742372e-04       1.045352448642e+03 
       2.631830745176e-04       1.125468122833e+03 
       2.841785470091e-04       1.211678179507e+03 
       3.068489367268e-04       1.304435249086e+03 
       3.313278604643e-04       1.404223052536e+03 
       3.577595943165e-04       1.511558013383e+03 
       3.862999240274e-04       1.626990836404e+03 
       4.171170631739e-04       1.751108027360e+03 
       4.503926445983e-04       1.884533381331e+03 
       4.863227909323e-04       2.027929376453e+03 
       5.251192705226e-04       2.181998446345e+03 
       5.670107455699e-04       2.347484100829e+03 
       6.122441198393e-04       2.525171869300e+03 
       6.610859938837e-04       2.715889981358e+03 
       7.138242363583e-04       2.920509686030e+03 
       7.707696806873e-04       3.139945097642e+03 
       8.322579570814e-04       3.375152334308e+03 
       8.986514707061e-04       3.627127828123e+03 
       9.703415376577e-04       3.896905449880e+03 
       1.047750691338e-03       4.185552170768e+03 
       1.131335172818e-03       4.494162426577e+03 
       1.221587619877e-03       4.823850702385e+03 
       1.319039970550e-03       5.175742733958e+03 
       1.424266598317e-03       5.551019592104e+03 
       1.537887697396e-03       5.950788335314e+03 
       1.660572938097e-03       6.376123046038e+03 
       1.793045413791e-03       6.828073895196e+03 
       1.936085902737e-03       7.307625374194e+03 
       2.090537469909e-03       7.815671858423e+03 
       2.257310435923e-03       8.352990367451e+03 
       2.437387742372e-03       8.920211055061e+03 
       2.631830745176e-03       9.517783058725e+03 
       2.841785470091e-03       1.014593703269e+04 
       3.068489367268e-03       1.080464505224e+04 
       3.313278604643e-03       1.149357458783e+04 
       3.577595943165e-03       1.221203620014e+04 
       3.862999240274e-03       1.295892537482e+04 
       4.171170631739e-03       1.373266000879e+04 
       4.503926445983e-03       1.453111832980e+04 
       4.863227909323e-03       1.535154926023e+04 
       5.251192705226e-03       1.619063256894e+04 
       5.670107455699e-03       1.704431223664e+04 
       6.122441198393e-03       1.790756120170e+04 
       6.610859938837e-03       1.877460512064e+04 
       7.138242363583e-03       1.963872814048e+04 
       7.707696806873e-03       2.049215473623e+04 
       8.322579570814e-03       2.132609676211e+04 
       8.986514707061e-03       2.213055402269e+04 
       9.703415376577e-03       2.289441991100e+04 
       1.047750691338e-02       2.360546097464e+04 
       1.131335172818e-02       2.425022627818e+04 
       1.221587619877e-02       2.481419664761e+04 
       1.319039970550e-02       2.528228263115e+04 
       1.424266598317e-02       2.563809588694e+04 
       1.537887697392e-02       2.586601410703e+04 
       1.660572938023e-02       2.595021108389e+04 
       1.793045412706e-02       2.587611489947e+04 
       1.936085890181e-02       2.563226214499e+04 
       2.090537352463e-02       2.520926975693e+04 
       2.257309535333e-02       2.460431449746e+04 
       2.437382002918e-02       2.382074505379e+04 
       2.631799944462e-02       2.287025480953e+04 
       2.841644545389e-02       2.177435621629e+04 
       3.067933355377e-02       2.056535882163e+04 
       3.311368470740e-02       1.928716969873e+04 
       3.571840443502e-02       1.799389540310e+04 
       3.847720348444e-02       1.674667500447e+04 
       4.135335538431e-02       1.560445434431e+04 
       4.429361667738e-02       1.461029414532e+04 
       4.724366439141e-02       1.378045092700e+04 
       5.016480835311e-02       1.310495688977e+04 
       5.303989620246e-02       1.255711986858e+04 
       5.586870669566e-02       1.210425457717e+04 
       5.866042680613e-02       1.171467748124e+04 
       6.142798932958e-02       1.136012843630e+04 
       6.418496440164e-02       1.101859669206e+04 
       6.694418833788e-02       1.067065237678e+04 
       6.971731106057e-02       1.030364672179e+04 
       7.251476155766e-02       9.909054998602e+03 
       7.534587671527e-02       9.483606719367e+03 
       7.821907666265e-02       9.029310428667e+03 
       8.114203772912e-02       8.552123508473e+03 
       8.412184535029e-02       8.061944754418e+03 
       8.716512279304e-02       7.570751129449e+03 
       9.027813695930e-02       7.092452264557e+03 
       9.346688431697e-02       6.640522381971e+03 
       9.673716028276e-02       6.226706741794e+03 
       1.000946150830e-01       5.859928886446e+03 
       1.035447986537e-01       5.545232511197e+03 
       1.070931966762e-01       5.283147505848e+03 
       1.107452594425e-01       5.069448595457e+03 
       1.145064249153e-01       4.895260195416e+03 
       1.183821370918e-01       4.747838385821e+03 
       1.223778605862e-01       4.611717516449e+03 
       1.264990921987e-01       4.470596961080e+03 
       1.307513701367e-01       4.310267360539e+03 
       1.351402814784e-01       4.121380102796e+03 
       1.396714684203e-01       3.902038372526e+03 
       1.443506338194e-01       3.658639345491e+03 
       1.491835465229e-01       3.404449961326e+03 
       1.541760469708e-01       3.156625017157e+03 
       1.593340535561e-01       2.931912682279e+03 
       1.646635702297e-01       2.742334374799e+03 
       1.701706958456e-01       2.592215849682e+03 
       1.758616357459e-01       2.477189600828e+03 
       1.817427160982e-01       2.385139611933e+03 
       1.878204015065e-01       2.300321683812e+03 
       1.941013164283e-01       2.205754111440e+03 
       2.005922709503e-01       2.090822361536e+03 
       2.073002914972e-01       1.956442699974e+03 
       2.142326570816e-01       1.814153826176e+03 
       2.213969417533e-01       1.679249167777e+03 
       2.288010639706e-01       1.563821206703e+03 
       2.364533437147e-01       1.472646783715e+03 
       2.443625682930e-01       1.401492243521e+03 
       2.525380679504e-01       1.338391128915e+03 
       2.609898026346e-01       1.270872972854e+03 
       2.697284615565e-01       1.193331779980e+03 
       2.787655775689e-01       1.109301946794e+03 
       2.881136588829e-01       1.028735344170e+03 
       2.977863412677e-01       9.604456193440e+02 
       3.077985646929e-01       9.049860404476e+02 
       3.181667794071e-01       8.561059535685e+02 
       3.289091877812e-01       8.061478661175e+02 
       3.400460299658e-01       7.523479151585e+02 
       3.515999236474e-01       6.988819189091e+02 
       3.635962711085e-01       6.510174283380e+02 
       3.760637506334e-01       6.100842749340e+02 
       3.890349143879e-01       5.720932283227e+02 
       4.025469216825e-01       5.337414754441e+02 
       4.166424456376e-01       4.955877152593e+02 
       4.313708035863e-01       4.604290019467e+02 
       4.467893782977e-01       4.287327965217e+02 
       4.629654199664e-01       3.987308880110e+02 
       4.799783501994e-01       3.691969239919e+02 
       4.979227319373e-01       3.411980452593e+02 
       5.169121270864e-01       3.154380646093e+02 
       5.370841404489e-01       2.907897562809e+02 
       5.586070464571e-01       2.670601617399e+02 
       5.816885094930e-01       2.447630663262e+02 
       6.065870144995e-01       2.235227838667e+02 
       6.336266468475e-01       2.031654152213e+02 
       6.632156059511e-01       1.838330487664e+02 
       6.958678639263e-01       1.653075346044e+02 
       7.322247985589e-01       1.476482349415e+02 
       7.730680195114e-01       1.307854756209e+02 
       8.193049553677e-01       1.147822839192e+02 
       8.718988016039e-01       9.971228801828e+01 
       9.317218031082e-01       8.572621030360e+01 
       9.993660908989e-01       7.300160896052e+01 
       1.075037110174e+00       6.168158389221e+01 
       1.158653485707e+00       5.182309759411e+01 
       1.250099157308e+00       4.338268387363e+01 
       1.349432401273e+00       3.623021853737e+01 
       1.456947457397e+00       3.020702838124e+01 
       1.573135111331e+00       2.515174120091e+01 
       1.698621895592e+00       2.091729225849e+01 
       1.834127512934e+00       1.737536402743e+01 
       1.980444934528e+00       1.441649603637e+01 
       2.138435191726e+00       1.194733138613e+01 
       2.309029199186e+00       9.889017226720e+00 
       2.493232377687e+00       8.174898719645e+00 
       2.692130395285e+00       6.748662981946e+00 
       2.906895534573e+00       5.563197276173e+00 
       3.138793597714e+00       4.578400765383e+00 
       3.389191366484e+00       3.760988581511e+00 
       3.659564657905e+00       3.082937293918e+00 
       3.951507022538e+00       2.520747900885e+00 
       4.266739136701e+00       2.054907778083e+00 
       4.607118943941e+00       1.668942247722e+00 
       4.974652605557e+00       1.349415426856e+00 
       5.371506324689e+00       1.084863650113e+00 
       5.800019113685e+00       8.659499622806e-01 
       6.262716579983e+00       6.849309595653e-01 
       6.762325811764e+00       5.354311608463e-01 
       7.301791451110e+00       4.122556333259e-01 
       7.884293049406e+00       3.111588043362e-01 
       8.513263807261e+00       2.287378391599e-01 
       9.192410809424e+00       1.622716868641e-01 
       9.925736873929e+00       1.095965714824e-01 
       1.071756414427e+01       6.898825334252e-02 
       1.157255956364e+01       3.903126521630e-02 
       1.249576238137e+01       1.848068090398e-02 
       1.349261385375e+01       6.123251358282e-03 
       1.456898931416e+01       6.374865169167e-04 
       1.573123280165e+01       4.837637963050e-04 
       1.698619445202e+01       3.860901593863e-03 
       1.834127087176e+01       8.774478776281e-03 
       1.980444873285e+01       1.324884977160e-02 
       2.138435184532e+01       1.568101174726e-02 
       2.309029198506e+01       1.524117728178e-02 
       2.493232377636e+01       1.215555002578e-02 
       2.692130395282e+01       7.645497715655e-03 
       2.906895534573e+01       3.406031563112e-03 
       3.138793597714e+01       7.670737841030e-04 
       3.389191366484e+01       5.579616794246e-07 
       3.659564657905e+01       3.154766800272e-04 
       3.951507022538e+01       6.335404893606e-04 
       4.266739136701e+01       4.880042961674e-04 
       4.607118943941e+01       1.580643688946e-04 
       4.974652605557e+01       6.959348122770e-06 
       5.371506324689e+01       6.774834739867e-06 
       5.800019113685e+01       3.345262074918e-06 
       6.262716579983e+01       3.393724574326e-06 
       6.762325811764e+01       1.338468494245e-05 
