# Matter power spectrum P(k) at redshift z=0
# for k=1.04775e-05 to 67.6233 h/Mpc,
# number of wavenumbers equal to 246
#    1:k (h/Mpc)              2:P (Mpc/h)^3        
       1.047750691338e-05       5.020964806755e+01 
       1.131335172818e-05       5.407048206554e+01 
       1.221587619877e-05       5.822819063867e+01 
       1.319039970550e-05       6.270562589679e+01 
       1.424266598317e-05       6.752731788102e+01 
       1.537887697396e-05       7.271977200257e+01 
       1.660572938097e-05       7.831147241542e+01 
       1.793045413791e-05       8.433311815128e+01 
       1.936085902737e-05       9.081778242446e+01 
       2.090537469909e-05       9.780108061340e+01 
       2.257310435923e-05       1.053213197032e+02 
       2.437387742372e-05       1.134197377001e+02 
       2.631830745176e-05       1.221408202815e+02 
       2.841785470091e-05       1.315324720917e+02 
       3.068489367268e-05       1.416462093731e+02 
       3.313278604643e-05       1.525374500691e+02 
       3.577595943165e-05       1.642660687078e+02 
       3.862999240274e-05       1.768963504868e+02 
       4.171170631739e-05       1.904975992460e+02 
       4.503926445983e-05       2.051444490305e+02 
       4.863227909323e-05       2.209171463752e+02 
       5.251192705226e-05       2.379022222314e+02 
       5.670107455699e-05       2.561927925586e+02 
       6.122441198393e-05       2.758890441791e+02 
       6.610859938837e-05       2.970989225466e+02 
       7.138242363583e-05       3.199385558200e+02 
       7.707696806873e-05       3.445329780878e+02 
       8.322579570814e-05       3.710167315928e+02 
       8.986514707061e-05       3.995346440954e+02 
       9.703415376577e-05       4.302425403884e+02 
       1.047750691338e-04       4.633080762974e+02 
       1.131335172818e-04       4.989116267507e+02 
       1.221587619877e-04       5.372471946561e+02 
       1.319039970550e-04       5.785234124631e+02 
       1.424266598317e-04       6.229645930980e+02 
       1.537887697396e-04       6.708118484951e+02 
       1.660572938097e-04       7.223242660220e+02 
       1.793045413791e-04       7.777801554347e+02 
       1.936085902737e-04       8.374783607333e+02 
       2.090537469909e-04       9.017396264495e+02 
       2.257310435923e-04       9.709080260152e+02 
       2.437387742372e-04       1.045352448644e+03 
       2.631830745176e-04       1.125468122835e+03 
       2.841785470091e-04       1.211678179511e+03 
       3.068489367268e-04       1.304435249091e+03 
       3.313278604643e-04       1.404223052541e+03 
       3.577595943165e-04       1.511558013390e+03 
       3.862999240274e-04       1.626990836471e+03 
       4.171170631739e-04       1.751108027370e+03 
       4.503926445983e-04       1.884533381345e+03 
       4.863227909323e-04       2.027929376471e+03 
       5.251192705226e-04       2.181998446367e+03 
       5.670107455699e-04       2.347484100857e+03 
       6.122441198393e-04       2.525171869338e+03 
       6.610859938837e-04       2.715889981400e+03 
       7.138242363583e-04       2.920509686086e+03 
       7.707696806873e-04       3.139945097711e+03 
       8.322579570814e-04       3.375152334396e+03 
       8.986514707061e-04       3.627127828231e+03 
       9.703415376577e-04       3.896905450016e+03 
       1.047750691338e-03       4.185552170958e+03 
       1.131335172818e-03       4.494162426791e+03 
       1.221587619877e-03       4.823850702663e+03 
       1.319039970550e-03       5.175742733731e+03 
       1.424266598317e-03       5.551019592519e+03 
       1.537887697396e-03       5.950788335873e+03 
       1.660572938097e-03       6.376123046806e+03 
       1.793045413791e-03       6.828073896114e+03 
       1.936085902737e-03       7.307625375387e+03 
       2.090537469909e-03       7.815671899034e+03 
       2.257310435923e-03       8.352990369401e+03 
       2.437387742372e-03       8.920211057524e+03 
       2.631830745176e-03       9.517783061890e+03 
       2.841785470091e-03       1.014593703671e+04 
       3.068489367268e-03       1.080464505735e+04 
       3.313278604643e-03       1.149357459441e+04 
       3.577595943165e-03       1.221203620826e+04 
       3.862999240274e-03       1.295892538505e+04 
       4.171170631739e-03       1.373266002280e+04 
       4.503926445983e-03       1.453111834595e+04 
       4.863227909323e-03       1.535154984227e+04 
       5.251192705226e-03       1.619063613435e+04 
       5.670107455699e-03       1.704431256559e+04 
       6.122441198393e-03       1.790755938456e+04 
       6.610859938837e-03       1.877460404074e+04 
       7.138242363583e-03       1.963872429098e+04 
       7.707696806873e-03       2.049215713628e+04 
       8.322579570814e-03       2.132606837525e+04 
       8.986514707061e-03       2.213054940633e+04 
       9.703415376577e-03       2.289445470784e+04 
       1.047750691338e-02       2.360548078818e+04 
       1.131335172818e-02       2.425022856741e+04 
       1.221587619877e-02       2.481423920442e+04 
       1.319039970550e-02       2.528218700495e+04 
       1.424266598317e-02       2.563814391864e+04 
       1.537887697392e-02       2.586606563354e+04 
       1.660572938023e-02       2.595025048774e+04 
       1.793045412706e-02       2.587633134658e+04 
       1.936085890181e-02       2.563220600288e+04 
       2.090537352463e-02       2.520934755682e+04 
       2.257309535333e-02       2.460446651655e+04 
       2.437382002918e-02       2.382088870293e+04 
       2.631799944462e-02       2.287044314646e+04 
       2.841644545389e-02       2.177453316148e+04 
       3.067933355377e-02       2.056556731443e+04 
       3.311368470740e-02       1.928725546129e+04 
       3.571840443502e-02       1.799402788526e+04 
       3.847720348444e-02       1.674683510480e+04 
       4.135335538431e-02       1.560462163212e+04 
       4.429361667738e-02       1.461041670235e+04 
       4.724366439141e-02       1.378054990550e+04 
       5.016480835311e-02       1.310510130019e+04 
       5.303989620246e-02       1.255715283384e+04 
       5.586870669566e-02       1.210424393488e+04 
       5.866042680613e-02       1.171463712778e+04 
       6.142798932958e-02       1.136046055393e+04 
       6.418496440164e-02       1.101855532345e+04 
       6.694418833788e-02       1.067069162199e+04 
       6.971731106057e-02       1.030357146990e+04 
       7.251476155766e-02       9.909002471219e+03 
       7.534587671527e-02       9.483778037422e+03 
       7.821907666265e-02       9.029486802159e+03 
       8.114203772912e-02       8.552327831849e+03 
       8.412184535029e-02       8.061925298620e+03 
       8.716512279304e-02       7.570758418455e+03 
       9.027813695930e-02       7.092498079834e+03 
       9.346688431697e-02       6.640515492137e+03 
       9.673716028276e-02       6.226707148786e+03 
       1.000946150830e-01       5.859939544205e+03 
       1.035447986537e-01       5.545236585148e+03 
       1.070931966762e-01       5.283128330941e+03 
       1.107452594425e-01       5.069437449392e+03 
       1.145064249153e-01       4.895244359875e+03 
       1.183821370918e-01       4.747838267036e+03 
       1.223778605862e-01       4.611734530680e+03 
       1.264990921987e-01       4.470627699806e+03 
       1.307513701367e-01       4.310269140562e+03 
       1.351402814784e-01       4.121389657544e+03 
       1.396714684203e-01       3.902070190638e+03 
       1.443506338194e-01       3.658637120675e+03 
       1.491835465229e-01       3.404485699722e+03 
       1.541760469708e-01       3.156680454077e+03 
       1.593340535561e-01       2.931980251772e+03 
       1.646635702297e-01       2.742374034628e+03 
       1.701706958456e-01       2.592254351145e+03 
       1.758616357459e-01       2.477242508053e+03 
       1.817427160982e-01       2.385184854321e+03 
       1.878204015065e-01       2.300357510147e+03 
       1.941013164283e-01       2.205755538554e+03 
       2.005922709503e-01       2.090812883259e+03 
       2.073002914972e-01       1.956470583434e+03 
       2.142326570816e-01       1.814193549188e+03 
       2.213969417533e-01       1.679298420403e+03 
       2.288010639706e-01       1.563847059319e+03 
       2.364533437147e-01       1.472688577069e+03 
       2.443625682930e-01       1.401516011964e+03 
       2.525380679504e-01       1.338414799947e+03 
       2.609898026346e-01       1.270898854256e+03 
       2.697284615565e-01       1.193383772889e+03 
       2.787655775689e-01       1.109339332034e+03 
       2.881136588829e-01       1.028770066916e+03 
       2.977863412677e-01       9.604812895691e+02 
       3.077985646929e-01       9.050243900517e+02 
       3.181667794071e-01       8.561470265540e+02 
       3.289091877812e-01       8.061885891895e+02 
       3.400460299658e-01       7.523914862231e+02 
       3.515999236474e-01       6.989262101132e+02 
       3.635962711085e-01       6.510624874569e+02 
       3.760637506334e-01       6.101250422900e+02 
       3.890349143879e-01       5.721322202183e+02 
       4.025469216825e-01       5.337820347189e+02 
       4.166424456376e-01       4.956322575767e+02 
       4.313708035863e-01       4.604671977877e+02 
       4.467893782977e-01       4.287778185337e+02 
       4.629654199664e-01       3.987732301868e+02 
       4.799783501994e-01       3.692419727833e+02 
       4.979227319373e-01       3.412417108656e+02 
       5.169121270864e-01       3.154842053516e+02 
       5.370841404489e-01       2.908356232998e+02 
       5.586070464571e-01       2.671060912958e+02 
       5.816885094930e-01       2.448099890932e+02 
       6.065870144995e-01       2.235673457951e+02 
       6.336266468475e-01       2.032108074785e+02 
       6.632156059511e-01       1.838791368582e+02 
       6.958678639263e-01       1.653552026863e+02 
       7.322247985589e-01       1.476959811646e+02 
       7.730680195114e-01       1.308344964858e+02 
       8.193049553677e-01       1.148314846802e+02 
       8.718988016039e-01       9.976254175340e+01 
       9.317218031082e-01       8.577825251231e+01 
       9.993660908989e-01       7.305493884244e+01 
       1.075037110174e+00       6.173630255948e+01 
       1.158653485707e+00       5.187933110439e+01 
       1.250099157308e+00       4.344062062295e+01 
       1.349432401273e+00       3.628941311398e+01 
       1.456947457397e+00       3.026802403658e+01 
       1.573135111331e+00       2.521469926793e+01 
       1.698621895592e+00       2.098210773590e+01 
       1.834127512934e+00       1.744246144830e+01 
       1.980444934528e+00       1.448571082154e+01 
       2.138435191726e+00       1.201897070106e+01 
       2.309029199186e+00       9.963205304955e+00 
       2.493232377687e+00       8.251813380034e+00 
       2.692130395285e+00       6.828542526067e+00 
       2.906895534573e+00       5.646262443592e+00 
       3.138793597714e+00       4.664860991687e+00 
       3.389191366484e+00       3.851118224537e+00 
       3.659564657905e+00       3.176949213863e+00 
       3.951507022538e+00       2.618859128429e+00 
       4.266739136701e+00       2.157351451132e+00 
       4.607118943941e+00       1.775945504187e+00 
       4.974652605557e+00       1.460991624297e+00 
       5.371506324689e+00       1.201128088165e+00 
       5.800019113685e+00       9.868818378105e-01 
       6.262716579983e+00       8.103483961139e-01 
       6.762325811764e+00       6.650123507893e-01 
       7.301791451110e+00       5.454299619676e-01 
       7.884293049406e+00       4.471028052374e-01 
       8.513263807261e+00       3.662954866139e-01 
       9.192410809424e+00       2.999406144378e-01 
       9.925736873929e+00       2.454812959169e-01 
       1.071756414427e+01       2.008078767898e-01 
       1.157255956364e+01       1.641849822620e-01 
       1.249576238137e+01       1.341766659608e-01 
       1.349261385375e+01       1.096028865472e-01 
       1.456898931416e+01       8.948934578226e-02 
       1.573123280165e+01       7.303319847014e-02 
       1.698619445202e+01       5.957815150090e-02 
       1.834127087176e+01       4.858117821434e-02 
       1.980444873285e+01       3.959712816026e-02 
       2.138435184532e+01       3.226091897840e-02 
       2.309029198506e+01       2.627346985055e-02 
       2.493232377636e+01       2.138846726881e-02 
       2.692130395282e+01       1.740469945129e-02 
       2.906895534573e+01       1.415738106070e-02 
       3.138793597714e+01       1.151128666889e-02 
       3.389191366484e+01       9.356042067537e-03 
       3.659564657905e+01       7.601237603703e-03 
       3.951507022538e+01       6.173083685793e-03 
       4.266739136701e+01       5.011078990834e-03 
       4.607118943941e+01       4.066126313603e-03 
       4.974652605557e+01       3.297985838094e-03 
       5.371506324689e+01       2.673657695143e-03 
       5.800019113685e+01       2.166500782011e-03 
       6.262716579983e+01       1.754696243885e-03 
       6.762325811764e+01       1.420430667249e-03 
