# Matter power spectrum P(k) at redshift z=0
# for k=1.04775e-05 to 67.6233 h/Mpc,
# number of wavenumbers equal to 246
#    1:k (h/Mpc)              2:P (Mpc/h)^3        
       1.047750691338e-05       5.020964806750e+01 
       1.131335172818e-05       5.407048206553e+01 
       1.221587619877e-05       5.822819063802e+01 
       1.319039970550e-05       6.270562589674e+01 
       1.424266598317e-05       6.752731788102e+01 
       1.537887697396e-05       7.271977200258e+01 
       1.660572938097e-05       7.831147241541e+01 
       1.793045413791e-05       8.433311815128e+01 
       1.936085902737e-05       9.081778242446e+01 
       2.090537469909e-05       9.780108061340e+01 
       2.257310435923e-05       1.053213197032e+02 
       2.437387742372e-05       1.134197377001e+02 
       2.631830745176e-05       1.221408202816e+02 
       2.841785470091e-05       1.315324720916e+02 
       3.068489367268e-05       1.416462093730e+02 
       3.313278604643e-05       1.525374500691e+02 
       3.577595943165e-05       1.642660687078e+02 
       3.862999240274e-05       1.768963504868e+02 
       4.171170631739e-05       1.904975992461e+02 
       4.503926445983e-05       2.051444490305e+02 
       4.863227909323e-05       2.209171463752e+02 
       5.251192705226e-05       2.379022222314e+02 
       5.670107455699e-05       2.561927925590e+02 
       6.122441198393e-05       2.758890441791e+02 
       6.610859938837e-05       2.970989225466e+02 
       7.138242363583e-05       3.199385558200e+02 
       7.707696806873e-05       3.445329780878e+02 
       8.322579570814e-05       3.710167315928e+02 
       8.986514707061e-05       3.995346440954e+02 
       9.703415376577e-05       4.302425403884e+02 
       1.047750691338e-04       4.633080762974e+02 
       1.131335172818e-04       4.989116267507e+02 
       1.221587619877e-04       5.372471946561e+02 
       1.319039970550e-04       5.785234124635e+02 
       1.424266598317e-04       6.229645930980e+02 
       1.537887697396e-04       6.708118484951e+02 
       1.660572938097e-04       7.223242660220e+02 
       1.793045413791e-04       7.777801554472e+02 
       1.936085902737e-04       8.374783607333e+02 
       2.090537469909e-04       9.017396264495e+02 
       2.257310435923e-04       9.709080260152e+02 
       2.437387742372e-04       1.045352448644e+03 
       2.631830745176e-04       1.125468122836e+03 
       2.841785470091e-04       1.211678179511e+03 
       3.068489367268e-04       1.304435249091e+03 
       3.313278604643e-04       1.404223052541e+03 
       3.577595943165e-04       1.511558013390e+03 
       3.862999240274e-04       1.626990836474e+03 
       4.171170631739e-04       1.751108027371e+03 
       4.503926445983e-04       1.884533381345e+03 
       4.863227909323e-04       2.027929376471e+03 
       5.251192705226e-04       2.181998446367e+03 
       5.670107455699e-04       2.347484100857e+03 
       6.122441198393e-04       2.525171869337e+03 
       6.610859938837e-04       2.715889981401e+03 
       7.138242363583e-04       2.920509686091e+03 
       7.707696806873e-04       3.139945097710e+03 
       8.322579570814e-04       3.375152334397e+03 
       8.986514707061e-04       3.627127828231e+03 
       9.703415376577e-04       3.896905450016e+03 
       1.047750691338e-03       4.185552170957e+03 
       1.131335172818e-03       4.494162426791e+03 
       1.221587619877e-03       4.823850702663e+03 
       1.319039970550e-03       5.175742735082e+03 
       1.424266598317e-03       5.551019592515e+03 
       1.537887697396e-03       5.950788335884e+03 
       1.660572938097e-03       6.376123046808e+03 
       1.793045413791e-03       6.828073896131e+03 
       1.936085902737e-03       7.307625375387e+03 
       2.090537469909e-03       7.815671859670e+03 
       2.257310435923e-03       8.352990369396e+03 
       2.437387742372e-03       8.920211057538e+03 
       2.631830745176e-03       9.517783061890e+03 
       2.841785470091e-03       1.014593703671e+04 
       3.068489367268e-03       1.080464505744e+04 
       3.313278604643e-03       1.149357459468e+04 
       3.577595943165e-03       1.221203620826e+04 
       3.862999240274e-03       1.295892538505e+04 
       4.171170631739e-03       1.373266002067e+04 
       4.503926445983e-03       1.453111834595e+04 
       4.863227909323e-03       1.535154984224e+04 
       5.251192705226e-03       1.619063613417e+04 
       5.670107455699e-03       1.704431256604e+04 
       6.122441198393e-03       1.790755938469e+04 
       6.610859938837e-03       1.877460415982e+04 
       7.138242363583e-03       1.963872429133e+04 
       7.707696806873e-03       2.049215713195e+04 
       8.322579570814e-03       2.132607230619e+04 
       8.986514707061e-03       2.213055451575e+04 
       9.703415376577e-03       2.289445470922e+04 
       1.047750691338e-02       2.360549455120e+04 
       1.131335172818e-02       2.425023397625e+04 
       1.221587619877e-02       2.481423920337e+04 
       1.319039970550e-02       2.528218778960e+04 
       1.424266598317e-02       2.563814392710e+04 
       1.537887697392e-02       2.586606294832e+04 
       1.660572938023e-02       2.595028930205e+04 
       1.793045412706e-02       2.587633457360e+04 
       1.936085890181e-02       2.563220816761e+04 
       2.090537352463e-02       2.520935311095e+04 
       2.257309535333e-02       2.460449062286e+04 
       2.437382002918e-02       2.382089158323e+04 
       2.631799944462e-02       2.287046173087e+04 
       2.841644545389e-02       2.177448709674e+04 
       3.067933355377e-02       2.056557563657e+04 
       3.311368470740e-02       1.928724989079e+04 
       3.571840443502e-02       1.799401807141e+04 
       3.847720348444e-02       1.674679699721e+04 
       4.135335538431e-02       1.560465967926e+04 
       4.429361667738e-02       1.461038234434e+04 
       4.724366439141e-02       1.378058534657e+04 
       5.016480835311e-02       1.310508969411e+04 
       5.303989620246e-02       1.255712196590e+04 
       5.586870669566e-02       1.210424297025e+04 
       5.866042680613e-02       1.171468824022e+04 
       6.142798932958e-02       1.136048291138e+04 
       6.418496440164e-02       1.101856765158e+04 
       6.694418833788e-02       1.067068995909e+04 
       6.971731106057e-02       1.030356057261e+04 
       7.251476155766e-02       9.909008138179e+03 
       7.534587671527e-02       9.483768764609e+03 
       7.821907666265e-02       9.029509832149e+03 
       8.114203772912e-02       8.552334949416e+03 
       8.412184535029e-02       8.061911113627e+03 
       8.716512279304e-02       7.570762868003e+03 
       9.027813695930e-02       7.092479152283e+03 
       9.346688431697e-02       6.640511322348e+03 
       9.673716028276e-02       6.226699319636e+03 
       1.000946150830e-01       5.859945800151e+03 
       1.035447986537e-01       5.545247335215e+03 
       1.070931966762e-01       5.283134133298e+03 
       1.107452594425e-01       5.069421765489e+03 
       1.145064249153e-01       4.895254169025e+03 
       1.183821370918e-01       4.747840203401e+03 
       1.223778605862e-01       4.611746976898e+03 
       1.264990921987e-01       4.470617217662e+03 
       1.307513701367e-01       4.310269988819e+03 
       1.351402814784e-01       4.121381885932e+03 
       1.396714684203e-01       3.902052004689e+03 
       1.443506338194e-01       3.658658709320e+03 
       1.491835465229e-01       3.404476513912e+03 
       1.541760469708e-01       3.156680379354e+03 
       1.593340535561e-01       2.931971861896e+03 
       1.646635702297e-01       2.742370483943e+03 
       1.701706958456e-01       2.592261664057e+03 
       1.758616357459e-01       2.477234689707e+03 
       1.817427160982e-01       2.385186127884e+03 
       1.878204015065e-01       2.300359856146e+03 
       1.941013164283e-01       2.205762543183e+03 
       2.005922709503e-01       2.090813351831e+03 
       2.073002914972e-01       1.956468884423e+03 
       2.142326570816e-01       1.814192351413e+03 
       2.213969417533e-01       1.679293835870e+03 
       2.288010639706e-01       1.563849151510e+03 
       2.364533437147e-01       1.472684099188e+03 
       2.443625682930e-01       1.401515205475e+03 
       2.525380679504e-01       1.338414549701e+03 
       2.609898026346e-01       1.270901172507e+03 
       2.697284615565e-01       1.193381615177e+03 
       2.787655775689e-01       1.109339108423e+03 
       2.881136588829e-01       1.028767805622e+03 
       2.977863412677e-01       9.604828973828e+02 
       3.077985646929e-01       9.050203785730e+02 
       3.181667794071e-01       8.561440480338e+02 
       3.289091877812e-01       8.061875434534e+02 
       3.400460299658e-01       7.523911150930e+02 
       3.515999236474e-01       6.989249369869e+02 
       3.635962711085e-01       6.510626982528e+02 
       3.760637506334e-01       6.101211637728e+02 
       3.890349143879e-01       5.721337212543e+02 
       4.025469216825e-01       5.337814497209e+02 
       4.166424456376e-01       4.956325296948e+02 
       4.313708035863e-01       4.604687996967e+02 
       4.467893782977e-01       4.287771321932e+02 
       4.629654199664e-01       3.987730728951e+02 
       4.799783501994e-01       3.692416586387e+02 
       4.979227319373e-01       3.412388132936e+02 
       5.169121270864e-01       3.154846697241e+02 
       5.370841404489e-01       2.908347798224e+02 
       5.586070464571e-01       2.671066762479e+02 
       5.816885094930e-01       2.448089691162e+02 
       6.065870144995e-01       2.235691839249e+02 
       6.336266468475e-01       2.032103369650e+02 
       6.632156059511e-01       1.838783261918e+02 
       6.958678639263e-01       1.653547164150e+02 
       7.322247985589e-01       1.476949839514e+02 
       7.730680195114e-01       1.308339936460e+02 
       8.193049553677e-01       1.148313138370e+02 
       8.718988016039e-01       9.976250511652e+01 
       9.317218031082e-01       8.577823236953e+01 
       9.993660908989e-01       7.305461993843e+01 
       1.075037110174e+00       6.173589222496e+01 
       1.158653485707e+00       5.187922788826e+01 
       1.250099157308e+00       4.344018412809e+01 
       1.349432401273e+00       3.628921040223e+01 
       1.456947457397e+00       3.026799914680e+01 
       1.573135111331e+00       2.521451016217e+01 
       1.698621895592e+00       2.098202385028e+01 
       1.834127512934e+00       1.744236734136e+01 
       1.980444934528e+00       1.448563508645e+01 
       2.138435191726e+00       1.201892968139e+01 
       2.309029199186e+00       9.963115463439e+00 
       2.493232377687e+00       8.251769197783e+00 
       2.692130395285e+00       6.828540154029e+00 
       2.906895534573e+00       5.646155498648e+00 
       3.138793597714e+00       4.664797071403e+00 
       3.389191366484e+00       3.851009696368e+00 
       3.659564657905e+00       3.176799556619e+00 
       3.951507022538e+00       2.618730321027e+00 
       4.266739136701e+00       2.157191618840e+00 
       4.607118943941e+00       1.775764912313e+00 
       4.974652605557e+00       1.460795403531e+00 
       5.371506324689e+00       1.200913684151e+00 
       5.800019113685e+00       9.866424332851e-01 
       6.262716579983e+00       8.100911238656e-01 
       6.762325811764e+00       6.647268295654e-01 
       7.301791451110e+00       5.451151041346e-01 
       7.884293049406e+00       4.467580748969e-01 
       8.513263807261e+00       3.659240259176e-01 
       9.192410809424e+00       2.995352249197e-01 
       9.925736873929e+00       2.450397849560e-01 
       1.071756414427e+01       2.003273129328e-01 
       1.157255956364e+01       1.636635563247e-01 
       1.249576238137e+01       1.336127427453e-01 
       1.349261385375e+01       1.089917072730e-01 
       1.456898931416e+01       8.882850182604e-02 
       1.573123280165e+01       7.232037414264e-02 
       1.698619445202e+01       5.880913569759e-02 
       1.834127087176e+01       4.775351236004e-02 
       1.980444873285e+01       3.870838702304e-02 
       2.138435184532e+01       3.130919384774e-02 
       2.309029198506e+01       2.525699253885e-02 
       2.493232377636e+01       2.030632439870e-02 
       2.692130395282e+01       1.625625806587e-02 
       2.906895534573e+01       1.294344346091e-02 
       3.138793597714e+01       1.023445405531e-02 
       3.389191366484e+01       8.020235901588e-03 
       3.659564657905e+01       6.212714268130e-03 
       3.951507022538e+01       4.740863401816e-03 
       4.266739136701e+01       3.547062756053e-03 
       4.607118943941e+01       2.585450991673e-03 
       4.974652605557e+01       1.819521580334e-03 
       5.371506324689e+01       1.220021653605e-03 
       5.800019113685e+01       7.634018786727e-04 
       6.262716579983e+01       4.302491921196e-04 
       6.762325811764e+01       2.037233173925e-04 
