# Matter power spectrum P(k) at redshift z=0
# for k=1.04775e-05 to 67.6233 h/Mpc,
# number of wavenumbers equal to 246
#    1:k (h/Mpc)              2:P (Mpc/h)^3        
       1.047750691338e-05       5.020964806749e+01 
       1.131335172818e-05       5.407048206553e+01 
       1.221587619877e-05       5.822819063558e+01 
       1.319039970550e-05       6.270562589681e+01 
       1.424266598317e-05       6.752731788102e+01 
       1.537887697396e-05       7.271977200258e+01 
       1.660572938097e-05       7.831147241542e+01 
       1.793045413791e-05       8.433311815128e+01 
       1.936085902737e-05       9.081778242446e+01 
       2.090537469909e-05       9.780108061339e+01 
       2.257310435923e-05       1.053213197032e+02 
       2.437387742372e-05       1.134197377001e+02 
       2.631830745176e-05       1.221408202816e+02 
       2.841785470091e-05       1.315324720916e+02 
       3.068489367268e-05       1.416462093730e+02 
       3.313278604643e-05       1.525374500691e+02 
       3.577595943165e-05       1.642660687078e+02 
       3.862999240274e-05       1.768963504868e+02 
       4.171170631739e-05       1.904975992460e+02 
       4.503926445983e-05       2.051444490305e+02 
       4.863227909323e-05       2.209171463752e+02 
       5.251192705226e-05       2.379022222314e+02 
       5.670107455699e-05       2.561927925606e+02 
       6.122441198393e-05       2.758890441791e+02 
       6.610859938837e-05       2.970989225466e+02 
       7.138242363583e-05       3.199385558200e+02 
       7.707696806873e-05       3.445329780878e+02 
       8.322579570814e-05       3.710167315928e+02 
       8.986514707061e-05       3.995346440954e+02 
       9.703415376577e-05       4.302425403884e+02 
       1.047750691338e-04       4.633080762974e+02 
       1.131335172818e-04       4.989116267507e+02 
       1.221587619877e-04       5.372471946561e+02 
       1.319039970550e-04       5.785234124638e+02 
       1.424266598317e-04       6.229645930980e+02 
       1.537887697396e-04       6.708118484951e+02 
       1.660572938097e-04       7.223242660220e+02 
       1.793045413791e-04       7.777801554224e+02 
       1.936085902737e-04       8.374783607333e+02 
       2.090537469909e-04       9.017396264495e+02 
       2.257310435923e-04       9.709080260152e+02 
       2.437387742372e-04       1.045352448644e+03 
       2.631830745176e-04       1.125468122836e+03 
       2.841785470091e-04       1.211678179511e+03 
       3.068489367268e-04       1.304435249091e+03 
       3.313278604643e-04       1.404223052541e+03 
       3.577595943165e-04       1.511558013390e+03 
       3.862999240274e-04       1.626990836438e+03 
       4.171170631739e-04       1.751108027371e+03 
       4.503926445983e-04       1.884533381345e+03 
       4.863227909323e-04       2.027929376471e+03 
       5.251192705226e-04       2.181998446367e+03 
       5.670107455699e-04       2.347484100857e+03 
       6.122441198393e-04       2.525171869338e+03 
       6.610859938837e-04       2.715889981400e+03 
       7.138242363583e-04       2.920509686091e+03 
       7.707696806873e-04       3.139945097711e+03 
       8.322579570814e-04       3.375152334396e+03 
       8.986514707061e-04       3.627127828231e+03 
       9.703415376577e-04       3.896905450016e+03 
       1.047750691338e-03       4.185552170958e+03 
       1.131335172818e-03       4.494162426791e+03 
       1.221587619877e-03       4.823850702663e+03 
       1.319039970550e-03       5.175742735142e+03 
       1.424266598317e-03       5.551019592521e+03 
       1.537887697396e-03       5.950788335885e+03 
       1.660572938097e-03       6.376123046807e+03 
       1.793045413791e-03       6.828073896114e+03 
       1.936085902737e-03       7.307625375387e+03 
       2.090537469909e-03       7.815671862381e+03 
       2.257310435923e-03       8.352990369392e+03 
       2.437387742372e-03       8.920211057535e+03 
       2.631830745176e-03       9.517783061890e+03 
       2.841785470091e-03       1.014593703671e+04 
       3.068489367268e-03       1.080464505731e+04 
       3.313278604643e-03       1.149357459461e+04 
       3.577595943165e-03       1.221203620827e+04 
       3.862999240274e-03       1.295892538505e+04 
       4.171170631739e-03       1.373266002338e+04 
       4.503926445983e-03       1.453111834595e+04 
       4.863227909323e-03       1.535154984227e+04 
       5.251192705226e-03       1.619063613436e+04 
       5.670107455699e-03       1.704431256586e+04 
       6.122441198393e-03       1.790755938455e+04 
       6.610859938837e-03       1.877460380114e+04 
       7.138242363583e-03       1.963872429095e+04 
       7.707696806873e-03       2.049215713474e+04 
       8.322579570814e-03       2.132607230538e+04 
       8.986514707061e-03       2.213055163456e+04 
       9.703415376577e-03       2.289445470770e+04 
       1.047750691338e-02       2.360548783005e+04 
       1.131335172818e-02       2.425022856815e+04 
       1.221587619877e-02       2.481423924230e+04 
       1.319039970550e-02       2.528218629427e+04 
       1.424266598317e-02       2.563814391324e+04 
       1.537887697392e-02       2.586607660198e+04 
       1.660572938023e-02       2.595028222163e+04 
       1.793045412706e-02       2.587633552937e+04 
       1.936085890181e-02       2.563219810952e+04 
       2.090537352463e-02       2.520936910126e+04 
       2.257309535333e-02       2.460445204810e+04 
       2.437382002918e-02       2.382089976287e+04 
       2.631799944462e-02       2.287047588986e+04 
       2.841644545389e-02       2.177448977902e+04 
       3.067933355377e-02       2.056552745148e+04 
       3.311368470740e-02       1.928735456812e+04 
       3.571840443502e-02       1.799399235851e+04 
       3.847720348444e-02       1.674679745437e+04 
       4.135335538431e-02       1.560458237398e+04 
       4.429361667738e-02       1.461038597850e+04 
       4.724366439141e-02       1.378056338976e+04 
       5.016480835311e-02       1.310509496814e+04 
       5.303989620246e-02       1.255717725411e+04 
       5.586870669566e-02       1.210424942883e+04 
       5.866042680613e-02       1.171465097149e+04 
       6.142798932958e-02       1.136048972049e+04 
       6.418496440164e-02       1.101856681994e+04 
       6.694418833788e-02       1.067066988425e+04 
       6.971731106057e-02       1.030360919617e+04 
       7.251476155766e-02       9.908994854653e+03 
       7.534587671527e-02       9.483770092395e+03 
       7.821907666265e-02       9.029490194679e+03 
       8.114203772912e-02       8.552325377078e+03 
       8.412184535029e-02       8.061966148109e+03 
       8.716512279304e-02       7.570778801628e+03 
       9.027813695930e-02       7.092500042364e+03 
       9.346688431697e-02       6.640486415000e+03 
       9.673716028276e-02       6.226701488932e+03 
       1.000946150830e-01       5.859941171057e+03 
       1.035447986537e-01       5.545235960051e+03 
       1.070931966762e-01       5.283133146147e+03 
       1.107452594425e-01       5.069421535574e+03 
       1.145064249153e-01       4.895239916145e+03 
       1.183821370918e-01       4.747842453291e+03 
       1.223778605862e-01       4.611745411202e+03 
       1.264990921987e-01       4.470627908326e+03 
       1.307513701367e-01       4.310279376917e+03 
       1.351402814784e-01       4.121393693318e+03 
       1.396714684203e-01       3.902072646412e+03 
       1.443506338194e-01       3.658634692815e+03 
       1.491835465229e-01       3.404487358895e+03 
       1.541760469708e-01       3.156677365513e+03 
       1.593340535561e-01       2.931980213696e+03 
       1.646635702297e-01       2.742366712789e+03 
       1.701706958456e-01       2.592261629268e+03 
       1.758616357459e-01       2.477240588409e+03 
       1.817427160982e-01       2.385183728308e+03 
       1.878204015065e-01       2.300363153477e+03 
       1.941013164283e-01       2.205761062705e+03 
       2.005922709503e-01       2.090815534681e+03 
       2.073002914972e-01       1.956466766681e+03 
       2.142326570816e-01       1.814192984326e+03 
       2.213969417533e-01       1.679292998090e+03 
       2.288010639706e-01       1.563847033441e+03 
       2.364533437147e-01       1.472687369303e+03 
       2.443625682930e-01       1.401514269687e+03 
       2.525380679504e-01       1.338410691092e+03 
       2.609898026346e-01       1.270902461193e+03 
       2.697284615565e-01       1.193384039150e+03 
       2.787655775689e-01       1.109342263023e+03 
       2.881136588829e-01       1.028772146401e+03 
       2.977863412677e-01       9.604836521644e+02 
       3.077985646929e-01       9.050238706754e+02 
       3.181667794071e-01       8.561457189749e+02 
       3.289091877812e-01       8.061895867533e+02 
       3.400460299658e-01       7.523914632416e+02 
       3.515999236474e-01       6.989245328536e+02 
       3.635962711085e-01       6.510646999980e+02 
       3.760637506334e-01       6.101234467307e+02 
       3.890349143879e-01       5.721326805245e+02 
       4.025469216825e-01       5.337830947414e+02 
       4.166424456376e-01       4.956329180814e+02 
       4.313708035863e-01       4.604703695077e+02 
       4.467893782977e-01       4.287796293761e+02 
       4.629654199664e-01       3.987731325514e+02 
       4.799783501994e-01       3.692417906009e+02 
       4.979227319373e-01       3.412411981873e+02 
       5.169121270864e-01       3.154854177682e+02 
       5.370841404489e-01       2.908364294324e+02 
       5.586070464571e-01       2.671078536905e+02 
       5.816885094930e-01       2.448097391569e+02 
       6.065870144995e-01       2.235679649838e+02 
       6.336266468475e-01       2.032107466804e+02 
       6.632156059511e-01       1.838796791367e+02 
       6.958678639263e-01       1.653549640676e+02 
       7.322247985589e-01       1.476954690084e+02 
       7.730680195114e-01       1.308338743150e+02 
       8.193049553677e-01       1.148316377656e+02 
       8.718988016039e-01       9.976298106762e+01 
       9.317218031082e-01       8.577812386773e+01 
       9.993660908989e-01       7.305491210925e+01 
       1.075037110174e+00       6.173588344086e+01 
       1.158653485707e+00       5.187959627280e+01 
       1.250099157308e+00       4.344058978604e+01 
       1.349432401273e+00       3.628971174868e+01 
       1.456947457397e+00       3.026818949663e+01 
       1.573135111331e+00       2.521470551531e+01 
       1.698621895592e+00       2.098215226317e+01 
       1.834127512934e+00       1.744244262709e+01 
       1.980444934528e+00       1.448575333540e+01 
       2.138435191726e+00       1.201899559216e+01 
       2.309029199186e+00       9.963209855945e+00 
       2.493232377687e+00       8.251845843128e+00 
       2.692130395285e+00       6.828649142135e+00 
       2.906895534573e+00       5.646271317032e+00 
       3.138793597714e+00       4.664915687917e+00 
       3.389191366484e+00       3.851112056794e+00 
       3.659564657905e+00       3.176951438776e+00 
       3.951507022538e+00       2.618912155981e+00 
       4.266739136701e+00       2.157366617981e+00 
       4.607118943941e+00       1.775951407948e+00 
       4.974652605557e+00       1.460997355246e+00 
       5.371506324689e+00       1.201142799309e+00 
       5.800019113685e+00       9.868928103089e-01 
       6.262716579983e+00       8.103617705806e-01 
       6.762325811764e+00       6.650158580152e-01 
       7.301791451110e+00       5.454291578327e-01 
       7.884293049406e+00       4.470991491391e-01 
       8.513263807261e+00       3.663013723788e-01 
       9.192410809424e+00       2.999425836692e-01 
       9.925736873929e+00       2.454846003530e-01 
       1.071756414427e+01       2.008099067893e-01 
       1.157255956364e+01       1.641852393405e-01 
       1.249576238137e+01       1.341782407369e-01 
       1.349261385375e+01       1.096021710561e-01 
       1.456898931416e+01       8.948940077674e-02 
       1.573123280165e+01       7.303371975629e-02 
       1.698619445202e+01       5.957807720415e-02 
       1.834127087176e+01       4.858132610739e-02 
       1.980444873285e+01       3.959726668779e-02 
       2.138435184532e+01       3.226122997704e-02 
       2.309029198506e+01       2.627354512752e-02 
       2.493232377636e+01       2.138867584952e-02 
       2.692130395282e+01       1.740472584165e-02 
       2.906895534573e+01       1.415742848410e-02 
       3.138793597714e+01       1.151137798812e-02 
       3.389191366484e+01       9.356058902753e-03 
       3.659564657905e+01       7.601345983059e-03 
       3.951507022538e+01       6.173173537446e-03 
       4.266739136701e+01       5.011209504612e-03 
       4.607118943941e+01       4.066230838936e-03 
       4.974652605557e+01       3.298024698581e-03 
       5.371506324689e+01       2.673714124465e-03 
       5.800019113685e+01       2.166583976916e-03 
       6.262716579983e+01       1.754750121816e-03 
       6.762325811764e+01       1.420465758315e-03 
