# Matter power spectrum P(k) at redshift z=99
# for k=1.04775e-05 to 67.6233 h/Mpc,
# number of wavenumbers equal to 246
#    1:k (h/Mpc)              2:P (Mpc/h)^3        
       1.047750691338e-05       7.261927673119e-03 
       1.131335172818e-05       7.820331745737e-03 
       1.221587619877e-05       8.421675986488e-03 
       1.319039970550e-05       9.069258192194e-03 
       1.424266598317e-05       9.766638404421e-03 
       1.537887697396e-05       1.051764069682e-02 
       1.660572938097e-05       1.132639105520e-02 
       1.793045413791e-05       1.219733231416e-02 
       1.936085902737e-05       1.313524224380e-02 
       2.090537469909e-05       1.414527121893e-02 
       2.257310435923e-05       1.523296272192e-02 
       2.437387742372e-05       1.640429444530e-02 
       2.631830745176e-05       1.766569582177e-02 
       2.841785470091e-05       1.902408601793e-02 
       3.068489367268e-05       2.048692970591e-02 
       3.313278604643e-05       2.206225513594e-02 
       3.577595943165e-05       2.375870704909e-02 
       3.862999240274e-05       2.558560727479e-02 
       4.171170631739e-05       2.755297763344e-02 
       4.503926445983e-05       2.967161927315e-02 
       4.863227909323e-05       3.195316450832e-02 
       5.251192705226e-05       3.441013519284e-02 
       5.670107455699e-05       3.705601722523e-02 
       6.122441198393e-05       3.990533413563e-02 
       6.610859938837e-05       4.297372168203e-02 
       7.138242363583e-05       4.627802141688e-02 
       7.707696806873e-05       4.983636194159e-02 
       8.322579570814e-05       5.366826847231e-02 
       8.986514707061e-05       5.779476394569e-02 
       9.703415376577e-05       6.223848243885e-02 
       1.047750691338e-04       6.702379865640e-02 
       1.131335172818e-04       7.217695153381e-02 
       1.221587619877e-04       7.772619073572e-02 
       1.319039970550e-04       8.370193432376e-02 
       1.424266598317e-04       9.013692507547e-02 
       1.537887697396e-04       9.706641242570e-02 
       1.660572938097e-04       1.045283354271e-01 
       1.793045413791e-04       1.125635349068e-01 
       1.936085902737e-04       1.212159614968e-01 
       2.090537469909e-04       1.305329132714e-01 
       2.257310435923e-04       1.405652846215e-01 
       2.437387742372e-04       1.513678302540e-01 
       2.631830745176e-04       1.629994504871e-01 
       2.841785470091e-04       1.755234921224e-01 
       3.068489367268e-04       1.890080670413e-01 
       3.313278604643e-04       2.035264002435e-01 
       3.577595943165e-04       2.191571803681e-01 
       3.862999240274e-04       2.359849437593e-01 
       4.171170631739e-04       2.541004741539e-01 
       4.503926445983e-04       2.736012080277e-01 
       4.863227909323e-04       2.945916790965e-01 
       5.251192705226e-04       3.171839525183e-01 
       5.670107455699e-04       3.414980764002e-01 
       6.122441198393e-04       3.676625413100e-01 
       6.610859938837e-04       3.958147252304e-01 
       7.138242363583e-04       4.261013284913e-01 
       7.707696806873e-04       4.586787792354e-01 
       8.322579570814e-04       4.937136001344e-01 
       8.986514707061e-04       5.313826801401e-01 
       9.703415376577e-04       5.718734972157e-01 
       1.047750691338e-03       6.153841629504e-01 
       1.131335172818e-03       6.621233239466e-01 
       1.221587619877e-03       7.123098220420e-01 
       1.319039970550e-03       7.661720584473e-01 
       1.424266598317e-03       8.239546297731e-01 
       1.537887697396e-03       8.859011173466e-01 
       1.660572938097e-03       9.522588006421e-01 
       1.793045413791e-03       1.023280099819e+00 
       1.936085902737e-03       1.099216304579e+00 
       2.090537469909e-03       1.180312990453e+00 
       2.257310435923e-03       1.266804115853e+00 
       2.437387742372e-03       1.358904853405e+00 
       2.631830745176e-03       1.456802683156e+00 
       2.841785470091e-03       1.560646890522e+00 
       3.068489367268e-03       1.670536062499e+00 
       3.313278604643e-03       1.786503852161e+00 
       3.577595943165e-03       1.908502930787e+00 
       3.862999240274e-03       2.036387730709e+00 
       4.171170631739e-03       2.169896177386e+00 
       4.503926445983e-03       2.308631878994e+00 
       4.863227909323e-03       2.452047290962e+00 
       5.251192705226e-03       2.599430628088e+00 
       5.670107455699e-03       2.749896931858e+00 
       6.122441198393e-03       2.902386513385e+00 
       6.610859938837e-03       3.055668700826e+00 
       7.138242363583e-03       3.208356461546e+00 
       7.707696806873e-03       3.358923893276e+00 
       8.322579570814e-03       3.505725595352e+00 
       8.986514707061e-03       3.647009444288e+00 
       9.703415376577e-03       3.780923304308e+00 
       1.047750691338e-02       3.905490902047e+00 
       1.131335172818e-02       4.018587963333e+00 
       1.221587619877e-02       4.117901586325e+00 
       1.319039970550e-02       4.200915317697e+00 
       1.424266598317e-02       4.264943961817e+00 
       1.537887697392e-02       4.307218763637e+00 
       1.660572938023e-02       4.325062133819e+00 
       1.793045412706e-02       4.316058996970e+00 
       1.936085890181e-02       4.278230546676e+00 
       2.090537352463e-02       4.210203503903e+00 
       2.257309535333e-02       4.111420066459e+00 
       2.437382002918e-02       3.982412654307e+00 
       2.631799944462e-02       3.825177630178e+00 
       2.841644545389e-02       3.643279709343e+00 
       3.067933355377e-02       3.442196134784e+00 
       3.311368470740e-02       3.229241405128e+00 
       3.571840443502e-02       3.013514349758e+00 
       3.847720348444e-02       2.805280792642e+00 
       4.135335538431e-02       2.614414101279e+00 
       4.429361667738e-02       2.448135809876e+00 
       4.724366439141e-02       2.309237297813e+00 
       5.016480835311e-02       2.196112329465e+00 
       5.303989620246e-02       2.104359523216e+00 
       5.586870669566e-02       2.028461115032e+00 
       5.866042680613e-02       1.963152911855e+00 
       6.142798932958e-02       1.903778448305e+00 
       6.418496440164e-02       1.846478499311e+00 
       6.694418833788e-02       1.788196116933e+00 
       6.971731106057e-02       1.726717001555e+00 
       7.251476155766e-02       1.660654941078e+00 
       7.534587671527e-02       1.589471094226e+00 
       7.821907666265e-02       1.513438552672e+00 
       8.114203772912e-02       1.433568137917e+00 
       8.412184535029e-02       1.351495416773e+00 
       8.716512279304e-02       1.269274046168e+00 
       9.027813695930e-02       1.189194810129e+00 
       9.346688431697e-02       1.113505000932e+00 
       9.673716028276e-02       1.044174681261e+00 
       1.000946150830e-01       9.827069102807e-01 
       1.035447986537e-01       9.299379716035e-01 
       1.070931966762e-01       8.859589027221e-01 
       1.107452594425e-01       8.500726802339e-01 
       1.145064249153e-01       8.208034714925e-01 
       1.183821370918e-01       7.960265872866e-01 
       1.223778605862e-01       7.731449715201e-01 
       1.264990921987e-01       7.494531519102e-01 
       1.307513701367e-01       7.225571160838e-01 
       1.351402814784e-01       6.909088511961e-01 
       1.396714684203e-01       6.541804744978e-01 
       1.443506338194e-01       6.134268296163e-01 
       1.491835465229e-01       5.708685144998e-01 
       1.541760469708e-01       5.293626925556e-01 
       1.593340535561e-01       4.917105960362e-01 
       1.646635702297e-01       4.599198062015e-01 
       1.701706958456e-01       4.347286913998e-01 
       1.758616357459e-01       4.154082575466e-01 
       1.817427160982e-01       3.999368942021e-01 
       1.878204015065e-01       3.856821312710e-01 
       1.941013164283e-01       3.698100520118e-01 
       2.005922709503e-01       3.505465642820e-01 
       2.073002914972e-01       3.280432784844e-01 
       2.142326570816e-01       3.042134420367e-01 
       2.213969417533e-01       2.816123415275e-01 
       2.288010639706e-01       2.622567863989e-01 
       2.364533437147e-01       2.469619346200e-01 
       2.443625682930e-01       2.350130465594e-01 
       2.525380679504e-01       2.244180836867e-01 
       2.609898026346e-01       2.130935945209e-01 
       2.697284615565e-01       2.001015946677e-01 
       2.787655775689e-01       1.860196068134e-01 
       2.881136588829e-01       1.725172361109e-01 
       2.977863412677e-01       1.610663163620e-01 
       3.077985646929e-01       1.517611417547e-01 
       3.181667794071e-01       1.435591100919e-01 
       3.289091877812e-01       1.351815611911e-01 
       3.400460299658e-01       1.261645035952e-01 
       3.515999236474e-01       1.172020410083e-01 
       3.635962711085e-01       1.091771266024e-01 
       3.760637506334e-01       1.023098218383e-01 
       3.890349143879e-01       9.593781554044e-02 
       4.025469216825e-01       8.950772081789e-02 
       4.166424456376e-01       8.311160333344e-02 
       4.313708035863e-01       7.721540047513e-02 
       4.467893782977e-01       7.190082658757e-02 
       4.629654199664e-01       6.686918584712e-02 
       4.799783501994e-01       6.191758613798e-02 
       4.979227319373e-01       5.722241366510e-02 
       5.169121270864e-01       5.290296616816e-02 
       5.370841404489e-01       4.876978963742e-02 
       5.586070464571e-01       4.479098973850e-02 
       5.816885094930e-01       4.105183600264e-02 
       6.065870144995e-01       3.748989414806e-02 
       6.336266468475e-01       3.407635298097e-02 
       6.632156059511e-01       3.083463275569e-02 
       6.958678639263e-01       2.772834089598e-02 
       7.322247985589e-01       2.476709770965e-02 
       7.730680195114e-01       2.193959359821e-02 
       8.193049553677e-01       1.925611800169e-02 
       8.718988016039e-01       1.672929329007e-02 
       9.317218031082e-01       1.438424834120e-02 
       9.993660908989e-01       1.225067943074e-02 
       1.075037110174e+00       1.035265517691e-02 
       1.158653485707e+00       8.699746098436e-03 
       1.250099157308e+00       7.284606201065e-03 
       1.349432401273e+00       6.085475979964e-03 
       1.456947457397e+00       5.075750383717e-03 
       1.573135111331e+00       4.228296592884e-03 
       1.698621895592e+00       3.518552598418e-03 
       1.834127512934e+00       2.924986359833e-03 
       1.980444934528e+00       2.429166023484e-03 
       2.138435191726e+00       2.015510271377e-03 
       2.309029199186e+00       1.670770513499e-03 
       2.493232377687e+00       1.383796827926e-03 
       2.692130395285e+00       1.145125773712e-03 
       2.906895534573e+00       9.468567048498e-04 
       3.138793597714e+00       7.822837259217e-04 
       3.389191366484e+00       6.458248405871e-04 
       3.659564657905e+00       5.327690919855e-04 
       3.951507022538e+00       4.391884734972e-04 
       4.266739136701e+00       3.617909458389e-04 
       4.607118943941e+00       2.978301567169e-04 
       4.974652605557e+00       2.450143971806e-04 
       5.371506324689e+00       2.014362321349e-04 
       5.800019113685e+00       1.655067193455e-04 
       6.262716579983e+00       1.359033696373e-04 
       6.762325811764e+00       1.115303127646e-04 
       7.301791451110e+00       9.147612893090e-05 
       7.884293049406e+00       7.498683744600e-05 
       8.513263807261e+00       6.143656035486e-05 
       9.192410809424e+00       5.030870092606e-05 
       9.925736873929e+00       4.117530958028e-05 
       1.071756414427e+01       3.368315839968e-05 
       1.157255956364e+01       2.754144928088e-05 
       1.249576238137e+01       2.250879665747e-05 
       1.349261385375e+01       1.838750718767e-05 
       1.456898931416e+01       1.501426351123e-05 
       1.573123280165e+01       1.225434873982e-05 
       1.698619445202e+01       9.997626855508e-06 
       1.834127087176e+01       8.153047441133e-06 
       1.980444873285e+01       6.646229024378e-06 
       2.138435184532e+01       5.415745849349e-06 
       2.309029198506e+01       4.411341548383e-06 
       2.493232377636e+01       3.591879369646e-06 
       2.692130395282e+01       2.923561109162e-06 
       2.906895534573e+01       2.378720775837e-06 
       3.138793597714e+01       1.934762199831e-06 
       3.389191366484e+01       1.573111297750e-06 
       3.659564657905e+01       1.278628369914e-06 
       3.951507022538e+01       1.038922708969e-06 
       4.266739136701e+01       8.438697132169e-07 
       4.607118943941e+01       6.852022023494e-07 
       4.974652605557e+01       5.562060797264e-07 
       5.371506324689e+01       4.513424943673e-07 
       5.800019113685e+01       3.661344662832e-07 
       6.262716579983e+01       2.969135431609e-07 
       6.762325811764e+01       2.407038568627e-07 
