# Matter power spectrum P(k) at redshift z=99
# for k=1.04775e-05 to 67.6233 h/Mpc,
# number of wavenumbers equal to 246
#    1:k (h/Mpc)              2:P (Mpc/h)^3        
       1.047750691338e-05       7.261927673119e-03 
       1.131335172818e-05       7.820331745737e-03 
       1.221587619877e-05       8.421675986489e-03 
       1.319039970550e-05       9.069258192194e-03 
       1.424266598317e-05       9.766638404421e-03 
       1.537887697396e-05       1.051764069682e-02 
       1.660572938097e-05       1.132639105520e-02 
       1.793045413791e-05       1.219733231416e-02 
       1.936085902737e-05       1.313524224380e-02 
       2.090537469909e-05       1.414527121893e-02 
       2.257310435923e-05       1.523296272192e-02 
       2.437387742372e-05       1.640429444530e-02 
       2.631830745176e-05       1.766569582177e-02 
       2.841785470091e-05       1.902408601793e-02 
       3.068489367268e-05       2.048692970591e-02 
       3.313278604643e-05       2.206225513594e-02 
       3.577595943165e-05       2.375870704909e-02 
       3.862999240274e-05       2.558560727479e-02 
       4.171170631739e-05       2.755297763344e-02 
       4.503926445983e-05       2.967161927316e-02 
       4.863227909323e-05       3.195316450832e-02 
       5.251192705226e-05       3.441013519284e-02 
       5.670107455699e-05       3.705601722529e-02 
       6.122441198393e-05       3.990533413561e-02 
       6.610859938837e-05       4.297372168203e-02 
       7.138242363583e-05       4.627802141688e-02 
       7.707696806873e-05       4.983636194159e-02 
       8.322579570814e-05       5.366826847231e-02 
       8.986514707061e-05       5.779476394568e-02 
       9.703415376577e-05       6.223848243885e-02 
       1.047750691338e-04       6.702379865640e-02 
       1.131335172818e-04       7.217695153381e-02 
       1.221587619877e-04       7.772619073572e-02 
       1.319039970550e-04       8.370193432376e-02 
       1.424266598317e-04       9.013692507548e-02 
       1.537887697396e-04       9.706641242570e-02 
       1.660572938097e-04       1.045283354271e-01 
       1.793045413791e-04       1.125635349068e-01 
       1.936085902737e-04       1.212159614968e-01 
       2.090537469909e-04       1.305329132714e-01 
       2.257310435923e-04       1.405652846215e-01 
       2.437387742372e-04       1.513678302540e-01 
       2.631830745176e-04       1.629994504870e-01 
       2.841785470091e-04       1.755234921224e-01 
       3.068489367268e-04       1.890080670413e-01 
       3.313278604643e-04       2.035264002435e-01 
       3.577595943165e-04       2.191571803681e-01 
       3.862999240274e-04       2.359849437593e-01 
       4.171170631739e-04       2.541004741539e-01 
       4.503926445983e-04       2.736012080277e-01 
       4.863227909323e-04       2.945916790965e-01 
       5.251192705226e-04       3.171839525183e-01 
       5.670107455699e-04       3.414980764002e-01 
       6.122441198393e-04       3.676625413100e-01 
       6.610859938837e-04       3.958147252304e-01 
       7.138242363583e-04       4.261013284906e-01 
       7.707696806873e-04       4.586787792354e-01 
       8.322579570814e-04       4.937136001344e-01 
       8.986514707061e-04       5.313826801402e-01 
       9.703415376577e-04       5.718734972157e-01 
       1.047750691338e-03       6.153841629505e-01 
       1.131335172818e-03       6.621233239465e-01 
       1.221587619877e-03       7.123098220432e-01 
       1.319039970550e-03       7.661720584576e-01 
       1.424266598317e-03       8.239546297731e-01 
       1.537887697396e-03       8.859011173466e-01 
       1.660572938097e-03       9.522588006420e-01 
       1.793045413791e-03       1.023280099819e+00 
       1.936085902737e-03       1.099216304579e+00 
       2.090537469909e-03       1.180312990453e+00 
       2.257310435923e-03       1.266804115851e+00 
       2.437387742372e-03       1.358904853404e+00 
       2.631830745176e-03       1.456802683156e+00 
       2.841785470091e-03       1.560646890522e+00 
       3.068489367268e-03       1.670536062499e+00 
       3.313278604643e-03       1.786503852165e+00 
       3.577595943165e-03       1.908502930788e+00 
       3.862999240274e-03       2.036387730709e+00 
       4.171170631739e-03       2.169896178749e+00 
       4.503926445983e-03       2.308631878994e+00 
       4.863227909323e-03       2.452047290962e+00 
       5.251192705226e-03       2.599430628088e+00 
       5.670107455699e-03       2.749896931841e+00 
       6.122441198393e-03       2.902386513384e+00 
       6.610859938837e-03       3.055668687722e+00 
       7.138242363583e-03       3.208356461546e+00 
       7.707696806873e-03       3.358923892759e+00 
       8.322579570814e-03       3.505724477989e+00 
       8.986514707061e-03       3.647009633379e+00 
       9.703415376577e-03       3.780923304301e+00 
       1.047750691338e-02       3.905490669155e+00 
       1.131335172818e-02       4.018588531483e+00 
       1.221587619877e-02       4.117901584940e+00 
       1.319039970550e-02       4.200915350296e+00 
       1.424266598317e-02       4.264942469402e+00 
       1.537887697392e-02       4.307215837543e+00 
       1.660572938023e-02       4.325063164991e+00 
       1.793045412706e-02       4.316056833531e+00 
       1.936085890181e-02       4.278230637894e+00 
       2.090537352463e-02       4.210210670154e+00 
       2.257309535333e-02       4.111421701529e+00 
       2.437382002918e-02       3.982423241129e+00 
       2.631799944462e-02       3.825169317425e+00 
       2.841644545389e-02       3.643281152843e+00 
       3.067933355377e-02       3.442192721669e+00 
       3.311368470740e-02       3.229237604496e+00 
       3.571840443502e-02       3.013516623885e+00 
       3.847720348444e-02       2.805280790250e+00 
       4.135335538431e-02       2.614411180185e+00 
       4.429361667738e-02       2.448128740111e+00 
       4.724366439141e-02       2.309231408578e+00 
       5.016480835311e-02       2.196114438341e+00 
       5.303989620246e-02       2.104367159390e+00 
       5.586870669566e-02       2.028462411982e+00 
       5.866042680613e-02       1.963154814020e+00 
       6.142798932958e-02       1.903783499781e+00 
       6.418496440164e-02       1.846480585551e+00 
       6.694418833788e-02       1.788197562000e+00 
       6.971731106057e-02       1.726715666081e+00 
       7.251476155766e-02       1.660652404188e+00 
       7.534587671527e-02       1.589468833467e+00 
       7.821907666265e-02       1.513437256570e+00 
       8.114203772912e-02       1.433571859204e+00 
       8.412184535029e-02       1.351492722996e+00 
       8.716512279304e-02       1.269273694941e+00 
       9.027813695930e-02       1.189192311657e+00 
       9.346688431697e-02       1.113501990061e+00 
       9.673716028276e-02       1.044173698811e+00 
       1.000946150830e-01       9.827057987403e-01 
       1.035447986537e-01       9.299392640076e-01 
       1.070931966762e-01       8.859573592658e-01 
       1.107452594425e-01       8.500722029828e-01 
       1.145064249153e-01       8.208024886243e-01 
       1.183821370918e-01       7.960256995135e-01 
       1.223778605862e-01       7.731453550718e-01 
       1.264990921987e-01       7.494513863781e-01 
       1.307513701367e-01       7.225580447655e-01 
       1.351402814784e-01       6.909091525561e-01 
       1.396714684203e-01       6.541814566868e-01 
       1.443506338194e-01       6.134268959550e-01 
       1.491835465229e-01       5.708671931040e-01 
       1.541760469708e-01       5.293640937970e-01 
       1.593340535561e-01       4.917108587425e-01 
       1.646635702297e-01       4.599206116157e-01 
       1.701706958456e-01       4.347286509299e-01 
       1.758616357459e-01       4.154080499450e-01 
       1.817427160982e-01       3.999366918009e-01 
       1.878204015065e-01       3.856825467450e-01 
       1.941013164283e-01       3.698097248554e-01 
       2.005922709503e-01       3.505463743579e-01 
       2.073002914972e-01       3.280438162139e-01 
       2.142326570816e-01       3.042139580385e-01 
       2.213969417533e-01       2.816118577814e-01 
       2.288010639706e-01       2.622574703808e-01 
       2.364533437147e-01       2.469622328584e-01 
       2.443625682930e-01       2.350130072687e-01 
       2.525380679504e-01       2.244176489362e-01 
       2.609898026346e-01       2.130940726644e-01 
       2.697284615565e-01       2.001013645063e-01 
       2.787655775689e-01       1.860193971993e-01 
       2.881136588829e-01       1.725176184056e-01 
       2.977863412677e-01       1.610663746118e-01 
       3.077985646929e-01       1.517608722503e-01 
       3.181667794071e-01       1.435596318824e-01 
       3.289091877812e-01       1.351818190158e-01 
       3.400460299658e-01       1.261644510977e-01 
       3.515999236474e-01       1.172020487303e-01 
       3.635962711085e-01       1.091771361030e-01 
       3.760637506334e-01       1.023095139659e-01 
       3.890349143879e-01       9.593766220585e-02 
       4.025469216825e-01       8.950776425662e-02 
       4.166424456376e-01       8.311170541210e-02 
       4.313708035863e-01       7.721547095964e-02 
       4.467893782977e-01       7.190095309554e-02 
       4.629654199664e-01       6.686918376660e-02 
       4.799783501994e-01       6.191750590531e-02 
       4.979227319373e-01       5.722217681119e-02 
       5.169121270864e-01       5.290289401702e-02 
       5.370841404489e-01       4.876987227114e-02 
       5.586070464571e-01       4.479099787326e-02 
       5.816885094930e-01       4.105192236601e-02 
       6.065870144995e-01       3.748996509801e-02 
       6.336266468475e-01       3.407629556557e-02 
       6.632156059511e-01       3.083468068926e-02 
       6.958678639263e-01       2.772834603569e-02 
       7.322247985589e-01       2.476708203825e-02 
       7.730680195114e-01       2.193956512887e-02 
       8.193049553677e-01       1.925614758865e-02 
       8.718988016039e-01       1.672921495529e-02 
       9.317218031082e-01       1.438424593493e-02 
       9.993660908989e-01       1.225064655648e-02 
       1.075037110174e+00       1.035257708776e-02 
       1.158653485707e+00       8.699643012448e-03 
       1.250099157308e+00       7.284499039356e-03 
       1.349432401273e+00       6.085391240404e-03 
       1.456947457397e+00       5.075604141136e-03 
       1.573135111331e+00       4.228219242358e-03 
       1.698621895592e+00       3.518425784657e-03 
       1.834127512934e+00       2.924848963334e-03 
       1.980444934528e+00       2.429017122911e-03 
       2.138435191726e+00       2.015342553587e-03 
       2.309029199186e+00       1.670597390644e-03 
       2.493232377687e+00       1.383598897117e-03 
       2.692130395285e+00       1.144911477989e-03 
       2.906895534573e+00       9.466250768990e-04 
       3.138793597714e+00       7.820342503194e-04 
       3.389191366484e+00       6.455431496799e-04 
       3.659564657905e+00       5.324582892772e-04 
       3.951507022538e+00       4.388466101204e-04 
       4.266739136701e+00       3.614209706431e-04 
       4.607118943941e+00       2.974231702568e-04 
       4.974652605557e+00       2.445735216563e-04 
       5.371506324689e+00       2.009557515332e-04 
       5.800019113685e+00       1.649834265219e-04 
       6.262716579983e+00       1.353348984979e-04 
       6.762325811764e+00       1.109125625420e-04 
       7.301791451110e+00       9.080685195874e-05 
       7.884293049406e+00       7.426178102194e-05 
       8.513263807261e+00       6.065348252984e-05 
       9.192410809424e+00       4.946344338766e-05 
       9.925736873929e+00       4.026590318731e-05 
       1.071756414427e+01       3.270687607609e-05 
       1.157255956364e+01       2.649566091442e-05 
       1.249576238137e+01       2.139203781980e-05 
       1.349261385375e+01       1.719912380927e-05 
       1.456898931416e+01       1.375442166430e-05 
       1.573123280165e+01       1.092514488090e-05 
       1.698619445202e+01       8.602644721288e-06 
       1.834127087176e+01       6.698365941846e-06 
       1.980444873285e+01       5.140353771530e-06 
       2.138435184532e+01       3.870591970582e-06 
       2.309029198506e+01       2.842343161516e-06 
       2.493232377636e+01       2.018285331766e-06 
       2.692130395282e+01       1.368591142735e-06 
       2.906895534573e+01       8.693297622524e-07 
       3.138793597714e+01       5.007609453738e-07 
       3.389191366484e+01       2.458407779811e-07 
       3.659564657905e+01       8.872373817153e-08 
       3.951507022538e+01       1.334835684635e-08 
       4.266739136701e+01       2.360424634681e-09 
       4.607118943941e+01       3.653597614883e-08 
       4.974652605557e+01       9.502873917022e-08 
       5.371506324689e+01       1.567180704917e-07 
       5.800019113685e+01       2.026643423667e-07 
       6.262716579983e+01       2.194049405258e-07 
       6.762325811764e+01       2.021287106079e-07 
