# Matter power spectrum P(k) at redshift z=0
# for k=1.04775e-05 to 67.6233 h/Mpc,
# number of wavenumbers equal to 246
#    1:k (h/Mpc)              2:P (Mpc/h)^3        
       1.047750691338e-05       5.020964806750e+01 
       1.131335172818e-05       5.407048206553e+01 
       1.221587619877e-05       5.822819064105e+01 
       1.319039970550e-05       6.270562589681e+01 
       1.424266598317e-05       6.752731788102e+01 
       1.537887697396e-05       7.271977200257e+01 
       1.660572938097e-05       7.831147241542e+01 
       1.793045413791e-05       8.433311815128e+01 
       1.936085902737e-05       9.081778242446e+01 
       2.090537469909e-05       9.780108061340e+01 
       2.257310435923e-05       1.053213197032e+02 
       2.437387742372e-05       1.134197377001e+02 
       2.631830745176e-05       1.221408202815e+02 
       2.841785470091e-05       1.315324720916e+02 
       3.068489367268e-05       1.416462093730e+02 
       3.313278604643e-05       1.525374500691e+02 
       3.577595943165e-05       1.642660687078e+02 
       3.862999240274e-05       1.768963504868e+02 
       4.171170631739e-05       1.904975992460e+02 
       4.503926445983e-05       2.051444490305e+02 
       4.863227909323e-05       2.209171463752e+02 
       5.251192705226e-05       2.379022222314e+02 
       5.670107455699e-05       2.561927925780e+02 
       6.122441198393e-05       2.758890441790e+02 
       6.610859938837e-05       2.970989225466e+02 
       7.138242363583e-05       3.199385558200e+02 
       7.707696806873e-05       3.445329780878e+02 
       8.322579570814e-05       3.710167315928e+02 
       8.986514707061e-05       3.995346440953e+02 
       9.703415376577e-05       4.302425403884e+02 
       1.047750691338e-04       4.633080762974e+02 
       1.131335172818e-04       4.989116267507e+02 
       1.221587619877e-04       5.372471946561e+02 
       1.319039970550e-04       5.785234124628e+02 
       1.424266598317e-04       6.229645930980e+02 
       1.537887697396e-04       6.708118484951e+02 
       1.660572938097e-04       7.223242660220e+02 
       1.793045413791e-04       7.777801552652e+02 
       1.936085902737e-04       8.374783607333e+02 
       2.090537469909e-04       9.017396264495e+02 
       2.257310435923e-04       9.709080260152e+02 
       2.437387742372e-04       1.045352448644e+03 
       2.631830745176e-04       1.125468122836e+03 
       2.841785470091e-04       1.211678179511e+03 
       3.068489367268e-04       1.304435249091e+03 
       3.313278604643e-04       1.404223052541e+03 
       3.577595943165e-04       1.511558013390e+03 
       3.862999240274e-04       1.626990836467e+03 
       4.171170631739e-04       1.751108027370e+03 
       4.503926445983e-04       1.884533381345e+03 
       4.863227909323e-04       2.027929376470e+03 
       5.251192705226e-04       2.181998446367e+03 
       5.670107455699e-04       2.347484100857e+03 
       6.122441198393e-04       2.525171869336e+03 
       6.610859938837e-04       2.715889981401e+03 
       7.138242363583e-04       2.920509686089e+03 
       7.707696806873e-04       3.139945097711e+03 
       8.322579570814e-04       3.375152334396e+03 
       8.986514707061e-04       3.627127828231e+03 
       9.703415376577e-04       3.896905450016e+03 
       1.047750691338e-03       4.185552170957e+03 
       1.131335172818e-03       4.494162426791e+03 
       1.221587619877e-03       4.823850702665e+03 
       1.319039970550e-03       5.175742738849e+03 
       1.424266598317e-03       5.551019592524e+03 
       1.537887697396e-03       5.950788335885e+03 
       1.660572938097e-03       6.376123046805e+03 
       1.793045413791e-03       6.828073896111e+03 
       1.936085902737e-03       7.307625375387e+03 
       2.090537469909e-03       7.815671860124e+03 
       2.257310435923e-03       8.352990369398e+03 
       2.437387742372e-03       8.920211057544e+03 
       2.631830745176e-03       9.517783061890e+03 
       2.841785470091e-03       1.014593703671e+04 
       3.068489367268e-03       1.080464505736e+04 
       3.313278604643e-03       1.149357459546e+04 
       3.577595943165e-03       1.221203620826e+04 
       3.862999240274e-03       1.295892538505e+04 
       4.171170631739e-03       1.373266002564e+04 
       4.503926445983e-03       1.453111834595e+04 
       4.863227909323e-03       1.535154984227e+04 
       5.251192705226e-03       1.619063613434e+04 
       5.670107455699e-03       1.704431256582e+04 
       6.122441198393e-03       1.790755938457e+04 
       6.610859938837e-03       1.877460370869e+04 
       7.138242363583e-03       1.963872429099e+04 
       7.707696806873e-03       2.049215713473e+04 
       8.322579570814e-03       2.132607230459e+04 
       8.986514707061e-03       2.213055073540e+04 
       9.703415376577e-03       2.289445470794e+04 
       1.047750691338e-02       2.360549109117e+04 
       1.131335172818e-02       2.425022856526e+04 
       1.221587619877e-02       2.481423919925e+04 
       1.319039970550e-02       2.528218778035e+04 
       1.424266598317e-02       2.563814322874e+04 
       1.537887697392e-02       2.586608278669e+04 
       1.660572938023e-02       2.595027597733e+04 
       1.793045412706e-02       2.587633015971e+04 
       1.936085890181e-02       2.563221453938e+04 
       2.090537352463e-02       2.520934888323e+04 
       2.257309535333e-02       2.460448072084e+04 
       2.437382002918e-02       2.382091079061e+04 
       2.631799944462e-02       2.287043251871e+04 
       2.841644545389e-02       2.177454810393e+04 
       3.067933355377e-02       2.056555996625e+04 
       3.311368470740e-02       1.928732967251e+04 
       3.571840443502e-02       1.799401381599e+04 
       3.847720348444e-02       1.674686171927e+04 
       4.135335538431e-02       1.560461132089e+04 
       4.429361667738e-02       1.461038634907e+04 
       4.724366439141e-02       1.378057292749e+04 
       5.016480835311e-02       1.310506443909e+04 
       5.303989620246e-02       1.255714648716e+04 
       5.586870669566e-02       1.210427640161e+04 
       5.866042680613e-02       1.171466380764e+04 
       6.142798932958e-02       1.136046382977e+04 
       6.418496440164e-02       1.101852826319e+04 
       6.694418833788e-02       1.067071408705e+04 
       6.971731106057e-02       1.030357565897e+04 
       7.251476155766e-02       9.908991756613e+03 
       7.534587671527e-02       9.483796828861e+03 
       7.821907666265e-02       9.029493077078e+03 
       8.114203772912e-02       8.552315221815e+03 
       8.412184535029e-02       8.061962305046e+03 
       8.716512279304e-02       7.570756917936e+03 
       9.027813695930e-02       7.092511770920e+03 
       9.346688431697e-02       6.640522040435e+03 
       9.673716028276e-02       6.226703894234e+03 
       1.000946150830e-01       5.859937037145e+03 
       1.035447986537e-01       5.545229396764e+03 
       1.070931966762e-01       5.283135082177e+03 
       1.107452594425e-01       5.069435150415e+03 
       1.145064249153e-01       4.895243019844e+03 
       1.183821370918e-01       4.747844727449e+03 
       1.223778605862e-01       4.611732481974e+03 
       1.264990921987e-01       4.470622836554e+03 
       1.307513701367e-01       4.310277726832e+03 
       1.351402814784e-01       4.121394101544e+03 
       1.396714684203e-01       3.902066975692e+03 
       1.443506338194e-01       3.658641014357e+03 
       1.491835465229e-01       3.404481214637e+03 
       1.541760469708e-01       3.156671721536e+03 
       1.593340535561e-01       2.931974505407e+03 
       1.646635702297e-01       2.742374575495e+03 
       1.701706958456e-01       2.592264311590e+03 
       1.758616357459e-01       2.477242911830e+03 
       1.817427160982e-01       2.385182065511e+03 
       1.878204015065e-01       2.300354269519e+03 
       1.941013164283e-01       2.205762191959e+03 
       2.005922709503e-01       2.090815683674e+03 
       2.073002914972e-01       1.956469132230e+03 
       2.142326570816e-01       1.814194310468e+03 
       2.213969417533e-01       1.679297431668e+03 
       2.288010639706e-01       1.563846250858e+03 
       2.364533437147e-01       1.472683533086e+03 
       2.443625682930e-01       1.401514006718e+03 
       2.525380679504e-01       1.338415380885e+03 
       2.609898026346e-01       1.270898517119e+03 
       2.697284615565e-01       1.193380880145e+03 
       2.787655775689e-01       1.109340544448e+03 
       2.881136588829e-01       1.028771523231e+03 
       2.977863412677e-01       9.604810114097e+02 
       3.077985646929e-01       9.050201820222e+02 
       3.181667794071e-01       8.561447417077e+02 
       3.289091877812e-01       8.061887643241e+02 
       3.400460299658e-01       7.523936078687e+02 
       3.515999236474e-01       6.989230417537e+02 
       3.635962711085e-01       6.510633008453e+02 
       3.760637506334e-01       6.101227934184e+02 
       3.890349143879e-01       5.721323429685e+02 
       4.025469216825e-01       5.337817466005e+02 
       4.166424456376e-01       4.956332162677e+02 
       4.313708035863e-01       4.604713748508e+02 
       4.467893782977e-01       4.287779180245e+02 
       4.629654199664e-01       3.987733103450e+02 
       4.799783501994e-01       3.692416332000e+02 
       4.979227319373e-01       3.412411320941e+02 
       5.169121270864e-01       3.154841558302e+02 
       5.370841404489e-01       2.908360509553e+02 
       5.586070464571e-01       2.671073873720e+02 
       5.816885094930e-01       2.448092091772e+02 
       6.065870144995e-01       2.235681727535e+02 
       6.336266468475e-01       2.032103859305e+02 
       6.632156059511e-01       1.838787738186e+02 
       6.958678639263e-01       1.653549994118e+02 
       7.322247985589e-01       1.476960284147e+02 
       7.730680195114e-01       1.308340643958e+02 
       8.193049553677e-01       1.148308816983e+02 
       8.718988016039e-01       9.976273959316e+01 
       9.317218031082e-01       8.577804799856e+01 
       9.993660908989e-01       7.305500196587e+01 
       1.075037110174e+00       6.173586434706e+01 
       1.158653485707e+00       5.187933971641e+01 
       1.250099157308e+00       4.344027217760e+01 
       1.349432401273e+00       3.628941910421e+01 
       1.456947457397e+00       3.026796625328e+01 
       1.573135111331e+00       2.521449904235e+01 
       1.698621895592e+00       2.098199202507e+01 
       1.834127512934e+00       1.744233193052e+01 
       1.980444934528e+00       1.448566102878e+01 
       2.138435191726e+00       1.201896141922e+01 
       2.309029199186e+00       9.963151302710e+00 
       2.493232377687e+00       8.251797839867e+00 
       2.692130395285e+00       6.828630270575e+00 
       2.906895534573e+00       5.646240827436e+00 
       3.138793597714e+00       4.664894500160e+00 
       3.389191366484e+00       3.851096668140e+00 
       3.659564657905e+00       3.176949764073e+00 
       3.951507022538e+00       2.618875886152e+00 
       4.266739136701e+00       2.157332608823e+00 
       4.607118943941e+00       1.775892593534e+00 
       4.974652605557e+00       1.461004146020e+00 
       5.371506324689e+00       1.201124898960e+00 
       5.800019113685e+00       9.868771040417e-01 
       6.262716579983e+00       8.103557282534e-01 
       6.762325811764e+00       6.650094503725e-01 
       7.301791451110e+00       5.454265609599e-01 
       7.884293049406e+00       4.470950913552e-01 
       8.513263807261e+00       3.662984583407e-01 
       9.192410809424e+00       2.999416073512e-01 
       9.925736873929e+00       2.454803363302e-01 
       1.071756414427e+01       2.008078386788e-01 
       1.157255956364e+01       1.641845941172e-01 
       1.249576238137e+01       1.341766743385e-01 
       1.349261385375e+01       1.096024898809e-01 
       1.456898931416e+01       8.948831834351e-02 
       1.573123280165e+01       7.303384402552e-02 
       1.698619445202e+01       5.957814426534e-02 
       1.834127087176e+01       4.858102451358e-02 
       1.980444873285e+01       3.959709902282e-02 
       2.138435184532e+01       3.226089163009e-02 
       2.309029198506e+01       2.627306713481e-02 
       2.493232377636e+01       2.138836107534e-02 
       2.692130395282e+01       1.740449875330e-02 
       2.906895534573e+01       1.415699591133e-02 
       3.138793597714e+01       1.151121472020e-02 
       3.389191366484e+01       9.355723257708e-03 
       3.659564657905e+01       7.600923909514e-03 
       3.951507022538e+01       6.172748582768e-03 
       4.266739136701e+01       5.010797355017e-03 
       4.607118943941e+01       4.065866495507e-03 
       4.974652605557e+01       3.297620738202e-03 
       5.371506324689e+01       2.673296657443e-03 
       5.800019113685e+01       2.166113613486e-03 
       6.262716579983e+01       1.754276275815e-03 
       6.762325811764e+01       1.419962762636e-03 
