# Matter power spectrum P(k) at redshift z=99
# for k=1.04775e-05 to 67.6233 h/Mpc,
# number of wavenumbers equal to 246
#    1:k (h/Mpc)              2:P (Mpc/h)^3        
       1.047750691338e-05       7.261927673143e-03 
       1.131335172818e-05       7.820331745763e-03 
       1.221587619877e-05       8.421675986517e-03 
       1.319039970550e-05       9.069258192225e-03 
       1.424266598317e-05       9.766638404454e-03 
       1.537887697396e-05       1.051764069685e-02 
       1.660572938097e-05       1.132639105523e-02 
       1.793045413791e-05       1.219733231421e-02 
       1.936085902737e-05       1.313524224385e-02 
       2.090537469909e-05       1.414527121898e-02 
       2.257310435923e-05       1.523296272197e-02 
       2.437387742372e-05       1.640429444535e-02 
       2.631830745176e-05       1.766569582183e-02 
       2.841785470091e-05       1.902408601799e-02 
       3.068489367268e-05       2.048692970598e-02 
       3.313278604643e-05       2.206225513601e-02 
       3.577595943165e-05       2.375870704917e-02 
       3.862999240274e-05       2.558560727487e-02 
       4.171170631739e-05       2.755297763353e-02 
       4.503926445983e-05       2.967161927325e-02 
       4.863227909323e-05       3.195316450842e-02 
       5.251192705226e-05       3.441013519296e-02 
       5.670107455699e-05       3.705601722538e-02 
       6.122441198393e-05       3.990533413576e-02 
       6.610859938837e-05       4.297372168217e-02 
       7.138242363583e-05       4.627802141704e-02 
       7.707696806873e-05       4.983636194176e-02 
       8.322579570814e-05       5.366826847249e-02 
       8.986514707061e-05       5.779476394588e-02 
       9.703415376577e-05       6.223848243906e-02 
       1.047750691338e-04       6.702379865662e-02 
       1.131335172818e-04       7.217695153405e-02 
       1.221587619877e-04       7.772619073599e-02 
       1.319039970550e-04       8.370193432404e-02 
       1.424266598317e-04       9.013692507577e-02 
       1.537887697396e-04       9.706641242603e-02 
       1.660572938097e-04       1.045283354275e-01 
       1.793045413791e-04       1.125635349072e-01 
       1.936085902737e-04       1.212159614972e-01 
       2.090537469909e-04       1.305329132719e-01 
       2.257310435923e-04       1.405652846219e-01 
       2.437387742372e-04       1.513678302545e-01 
       2.631830745176e-04       1.629994504876e-01 
       2.841785470091e-04       1.755234921230e-01 
       3.068489367268e-04       1.890080670419e-01 
       3.313278604643e-04       2.035264002442e-01 
       3.577595943165e-04       2.191571803688e-01 
       3.862999240274e-04       2.359849437600e-01 
       4.171170631739e-04       2.541004741547e-01 
       4.503926445983e-04       2.736012080286e-01 
       4.863227909323e-04       2.945916790974e-01 
       5.251192705226e-04       3.171839525192e-01 
       5.670107455699e-04       3.414980764012e-01 
       6.122441198393e-04       3.676625413111e-01 
       6.610859938837e-04       3.958147252315e-01 
       7.138242363583e-04       4.261013284926e-01 
       7.707696806873e-04       4.586787792362e-01 
       8.322579570814e-04       4.937136001385e-01 
       8.986514707061e-04       5.313826801413e-01 
       9.703415376577e-04       5.718734972169e-01 
       1.047750691338e-03       6.153841629514e-01 
       1.131335172818e-03       6.621233239476e-01 
       1.221587619877e-03       7.123098220431e-01 
       1.319039970550e-03       7.661720584607e-01 
       1.424266598317e-03       8.239546297732e-01 
       1.537887697396e-03       8.859011173465e-01 
       1.660572938097e-03       9.522588006350e-01 
       1.793045413791e-03       1.023280099818e+00 
       1.936085902737e-03       1.099216304576e+00 
       2.090537469909e-03       1.180312990449e+00 
       2.257310435923e-03       1.266804115840e+00 
       2.437387742372e-03       1.358904853397e+00 
       2.631830745176e-03       1.456802683143e+00 
       2.841785470091e-03       1.560646890504e+00 
       3.068489367268e-03       1.670536062477e+00 
       3.313278604643e-03       1.786503852126e+00 
       3.577595943165e-03       1.908502930748e+00 
       3.862999240274e-03       2.036387730656e+00 
       4.171170631739e-03       2.169896178477e+00 
       4.503926445983e-03       2.308631878907e+00 
       4.863227909323e-03       2.452047290851e+00 
       5.251192705226e-03       2.599430627947e+00 
       5.670107455699e-03       2.749896931629e+00 
       6.122441198393e-03       2.902386513161e+00 
       6.610859938837e-03       3.055668698954e+00 
       7.138242363583e-03       3.208356461192e+00 
       7.707696806873e-03       3.358923892837e+00 
       8.322579570814e-03       3.505725594840e+00 
       8.986514707061e-03       3.647009253125e+00 
       9.703415376577e-03       3.780923303395e+00 
       1.047750691338e-02       3.905490116304e+00 
       1.131335172818e-02       4.018587640084e+00 
       1.221587619877e-02       4.117901586841e+00 
       1.319039970550e-02       4.200915315257e+00 
       1.424266598317e-02       4.264942563782e+00 
       1.537887697392e-02       4.307217950451e+00 
       1.660572938023e-02       4.325062216618e+00 
       1.793045412706e-02       4.316057622622e+00 
       1.936085890181e-02       4.278226701230e+00 
       2.090537352463e-02       4.210199240288e+00 
       2.257309535333e-02       4.111422445779e+00 
       2.437382002918e-02       3.982421193607e+00 
       2.631799944462e-02       3.825166664331e+00 
       2.841644545389e-02       3.643283604117e+00 
       3.067933355377e-02       3.442194537204e+00 
       3.311368470740e-02       3.229240185767e+00 
       3.571840443502e-02       3.013521572989e+00 
       3.847720348444e-02       2.805280763243e+00 
       4.135335538431e-02       2.614405429900e+00 
       4.429361667738e-02       2.448140383949e+00 
       4.724366439141e-02       2.309238794839e+00 
       5.016480835311e-02       2.196114444588e+00 
       5.303989620246e-02       2.104367522773e+00 
       5.586870669566e-02       2.028466041184e+00 
       5.866042680613e-02       1.963153945867e+00 
       6.142798932958e-02       1.903782963854e+00 
       6.418496440164e-02       1.846479614356e+00 
       6.694418833788e-02       1.788197774985e+00 
       6.971731106057e-02       1.726716841259e+00 
       7.251476155766e-02       1.660654098690e+00 
       7.534587671527e-02       1.589470334034e+00 
       7.821907666265e-02       1.513439060709e+00 
       8.114203772912e-02       1.433568103017e+00 
       8.412184535029e-02       1.351491593485e+00 
       8.716512279304e-02       1.269274626874e+00 
       9.027813695930e-02       1.189193733551e+00 
       9.346688431697e-02       1.113500232447e+00 
       9.673716028276e-02       1.044174176345e+00 
       1.000946150830e-01       9.827044855217e-01 
       1.035447986537e-01       9.299376358268e-01 
       1.070931966762e-01       8.859591110126e-01 
       1.107452594425e-01       8.500711200908e-01 
       1.145064249153e-01       8.208025549437e-01 
       1.183821370918e-01       7.960254553535e-01 
       1.223778605862e-01       7.731461188644e-01 
       1.264990921987e-01       7.494508811739e-01 
       1.307513701367e-01       7.225562983395e-01 
       1.351402814784e-01       6.909090220573e-01 
       1.396714684203e-01       6.541805326317e-01 
       1.443506338194e-01       6.134266295819e-01 
       1.491835465229e-01       5.708686538929e-01 
       1.541760469708e-01       5.293621722997e-01 
       1.593340535561e-01       4.917095505096e-01 
       1.646635702297e-01       4.599186037130e-01 
       1.701706958456e-01       4.347264570766e-01 
       1.758616357459e-01       4.154065061751e-01 
       1.817427160982e-01       3.999340991607e-01 
       1.878204015065e-01       3.856804964352e-01 
       1.941013164283e-01       3.698067600147e-01 
       2.005922709503e-01       3.505446863427e-01 
       2.073002914972e-01       3.280427636221e-01 
       2.142326570816e-01       3.042113653790e-01 
       2.213969417533e-01       2.816082935478e-01 
       2.288010639706e-01       2.622533026079e-01 
       2.364533437147e-01       2.469575227804e-01 
       2.443625682930e-01       2.350089419828e-01 
       2.525380679504e-01       2.244130141819e-01 
       2.609898026346e-01       2.130902205588e-01 
       2.697284615565e-01       2.000970878613e-01 
       2.787655775689e-01       1.860146736442e-01 
       2.881136588829e-01       1.725114155551e-01 
       2.977863412677e-01       1.610602604267e-01 
       3.077985646929e-01       1.517547422795e-01 
       3.181667794071e-01       1.435531292497e-01 
       3.289091877812e-01       1.351749552440e-01 
       3.400460299658e-01       1.261573399605e-01 
       3.515999236474e-01       1.171945514869e-01 
       3.635962711085e-01       1.091689478550e-01 
       3.760637506334e-01       1.023012216702e-01 
       3.890349143879e-01       9.592871248026e-02 
       4.025469216825e-01       8.949868897700e-02 
       4.166424456376e-01       8.310211790373e-02 
       4.313708035863e-01       7.720524596455e-02 
       4.467893782977e-01       7.188981096830e-02 
       4.629654199664e-01       6.685770823113e-02 
       4.799783501994e-01       6.190554591500e-02 
       4.979227319373e-01       5.720964908206e-02 
       5.169121270864e-01       5.288957085253e-02 
       5.370841404489e-01       4.875563447523e-02 
       5.586070464571e-01       4.477582683630e-02 
       5.816885094930e-01       4.103598991279e-02 
       6.065870144995e-01       3.747291061610e-02 
       6.336266468475e-01       3.405830131554e-02 
       6.632156059511e-01       3.081533364432e-02 
       6.958678639263e-01       2.770773949427e-02 
       7.322247985589e-01       2.474494531552e-02 
       7.730680195114e-01       2.191573353490e-02 
       8.193049553677e-01       1.923034953504e-02 
       8.718988016039e-01       1.670111128521e-02 
       9.317218031082e-01       1.435348019205e-02 
       9.993660908989e-01       1.221693729652e-02 
       1.075037110174e+00       1.031544151918e-02 
       1.158653485707e+00       8.658760153418e-03 
       1.250099157308e+00       7.239371178211e-03 
       1.349432401273e+00       6.035684292738e-03 
       1.456947457397e+00       5.020948909437e-03 
       1.573135111331e+00       4.168115990746e-03 
       1.698621895592e+00       3.452562324050e-03 
       1.834127512934e+00       2.852741124175e-03 
       1.980444934528e+00       2.350289883856e-03 
       2.138435191726e+00       1.929592362684e-03 
       2.309029199186e+00       1.577474442707e-03 
       2.493232377687e+00       1.282807564173e-03 
       2.692130395285e+00       1.036275500457e-03 
       2.906895534573e+00       8.300630664210e-04 
       3.138793597714e+00       6.576919053067e-04 
       3.389191366484e+00       5.137926162179e-04 
       3.659564657905e+00       3.939900960086e-04 
       3.951507022538e+00       2.947480849373e-04 
       4.266739136701e+00       2.132459332109e-04 
       4.607118943941e+00       1.472852745173e-04 
       4.974652605557e+00       9.516543023563e-05 
       5.371506324689e+00       5.556553607417e-05 
       5.800019113685e+00       2.740012970793e-05 
       6.262716579983e+00       9.655273500017e-06 
       6.762325811764e+00       1.199084325483e-06 
       7.301791451110e+00       5.887779414110e-07 
       7.884293049406e+00       5.912405488790e-06 
       8.513263807261e+00       1.472596055890e-05 
       9.192410809424e+00       2.416880954391e-05 
       9.925736873929e+00       3.132099872975e-05 
       1.071756414427e+01       3.382151870480e-05 
       1.157255956364e+01       3.061404664692e-05 
       1.249576238137e+01       2.254538250185e-05 
       1.349261385375e+01       1.238147037242e-05 
       1.456898931416e+01       3.895923408426e-06 
       1.573123280165e+01       1.004288267579e-07 
       1.698619445202e+01       1.417775697515e-06 
       1.834127087176e+01       5.162509302868e-06 
       1.980444873285e+01       7.304590565611e-06 
       2.138435184532e+01       5.721339920796e-06 
       2.309029198506e+01       2.107208164602e-06 
       2.493232377636e+01       4.395105288078e-08 
       2.692130395282e+01       7.548244303327e-07 
       2.906895534573e+01       1.847099279801e-06 
       3.138793597714e+01       1.202817160478e-06 
       3.389191366484e+01       9.774468774997e-08 
       3.659564657905e+01       2.073383011133e-07 
       3.951507022538e+01       4.914520107555e-07 
       4.266739136701e+01       1.170878030157e-07 
       4.607118943941e+01       3.648550708203e-08 
       4.974652605557e+01       1.302407274278e-07 
       5.371506324689e+01       8.265999334880e-09 
       5.800019113685e+01       3.166373004976e-08 
       6.262716579983e+01       1.156678694473e-08 
       6.762325811764e+01       6.612565576394e-09 
