# Matter power spectrum P(k) at redshift z=99
# for k=1.04775e-05 to 67.6233 h/Mpc,
# number of wavenumbers equal to 246
#    1:k (h/Mpc)              2:P (Mpc/h)^3        
       1.047750691338e-05       7.261927673119e-03 
       1.131335172818e-05       7.820331745737e-03 
       1.221587619877e-05       8.421675986489e-03 
       1.319039970550e-05       9.069258192194e-03 
       1.424266598317e-05       9.766638404421e-03 
       1.537887697396e-05       1.051764069682e-02 
       1.660572938097e-05       1.132639105520e-02 
       1.793045413791e-05       1.219733231416e-02 
       1.936085902737e-05       1.313524224380e-02 
       2.090537469909e-05       1.414527121893e-02 
       2.257310435923e-05       1.523296272192e-02 
       2.437387742372e-05       1.640429444530e-02 
       2.631830745176e-05       1.766569582177e-02 
       2.841785470091e-05       1.902408601793e-02 
       3.068489367268e-05       2.048692970591e-02 
       3.313278604643e-05       2.206225513594e-02 
       3.577595943165e-05       2.375870704909e-02 
       3.862999240274e-05       2.558560727479e-02 
       4.171170631739e-05       2.755297763344e-02 
       4.503926445983e-05       2.967161927315e-02 
       4.863227909323e-05       3.195316450832e-02 
       5.251192705226e-05       3.441013519284e-02 
       5.670107455699e-05       3.705601722528e-02 
       6.122441198393e-05       3.990533413563e-02 
       6.610859938837e-05       4.297372168203e-02 
       7.138242363583e-05       4.627802141688e-02 
       7.707696806873e-05       4.983636194159e-02 
       8.322579570814e-05       5.366826847231e-02 
       8.986514707061e-05       5.779476394568e-02 
       9.703415376577e-05       6.223848243885e-02 
       1.047750691338e-04       6.702379865640e-02 
       1.131335172818e-04       7.217695153380e-02 
       1.221587619877e-04       7.772619073572e-02 
       1.319039970550e-04       8.370193432376e-02 
       1.424266598317e-04       9.013692507548e-02 
       1.537887697396e-04       9.706641242570e-02 
       1.660572938097e-04       1.045283354271e-01 
       1.793045413791e-04       1.125635349068e-01 
       1.936085902737e-04       1.212159614968e-01 
       2.090537469909e-04       1.305329132714e-01 
       2.257310435923e-04       1.405652846215e-01 
       2.437387742372e-04       1.513678302540e-01 
       2.631830745176e-04       1.629994504871e-01 
       2.841785470091e-04       1.755234921224e-01 
       3.068489367268e-04       1.890080670413e-01 
       3.313278604643e-04       2.035264002435e-01 
       3.577595943165e-04       2.191571803681e-01 
       3.862999240274e-04       2.359849437594e-01 
       4.171170631739e-04       2.541004741539e-01 
       4.503926445983e-04       2.736012080277e-01 
       4.863227909323e-04       2.945916790965e-01 
       5.251192705226e-04       3.171839525182e-01 
       5.670107455699e-04       3.414980764002e-01 
       6.122441198393e-04       3.676625413100e-01 
       6.610859938837e-04       3.958147252304e-01 
       7.138242363583e-04       4.261013284918e-01 
       7.707696806873e-04       4.586787792351e-01 
       8.322579570814e-04       4.937136001347e-01 
       8.986514707061e-04       5.313826801401e-01 
       9.703415376577e-04       5.718734972157e-01 
       1.047750691338e-03       6.153841629505e-01 
       1.131335172818e-03       6.621233239466e-01 
       1.221587619877e-03       7.123098220426e-01 
       1.319039970550e-03       7.661720584338e-01 
       1.424266598317e-03       8.239546297729e-01 
       1.537887697396e-03       8.859011173466e-01 
       1.660572938097e-03       9.522588006421e-01 
       1.793045413791e-03       1.023280099819e+00 
       1.936085902737e-03       1.099216304579e+00 
       2.090537469909e-03       1.180312990453e+00 
       2.257310435923e-03       1.266804115855e+00 
       2.437387742372e-03       1.358904853406e+00 
       2.631830745176e-03       1.456802683156e+00 
       2.841785470091e-03       1.560646890522e+00 
       3.068489367268e-03       1.670536062499e+00 
       3.313278604643e-03       1.786503852157e+00 
       3.577595943165e-03       1.908502930788e+00 
       3.862999240274e-03       2.036387730709e+00 
       4.171170631739e-03       2.169896178782e+00 
       4.503926445983e-03       2.308631878994e+00 
       4.863227909323e-03       2.452047290962e+00 
       5.251192705226e-03       2.599430628087e+00 
       5.670107455699e-03       2.749896931853e+00 
       6.122441198393e-03       2.902386513382e+00 
       6.610859938837e-03       3.055668697847e+00 
       7.138242363583e-03       3.208356461549e+00 
       7.707696806873e-03       3.358923893298e+00 
       8.322579570814e-03       3.505725595328e+00 
       8.986514707061e-03       3.647009642556e+00 
       9.703415376577e-03       3.780923304267e+00 
       1.047750691338e-02       3.905490629288e+00 
       1.131335172818e-02       4.018587641350e+00 
       1.221587619877e-02       4.117901586884e+00 
       1.319039970550e-02       4.200915346447e+00 
       1.424266598317e-02       4.264942297470e+00 
       1.537887697392e-02       4.307218912213e+00 
       1.660572938023e-02       4.325065579858e+00 
       1.793045412706e-02       4.316057045952e+00 
       1.936085890181e-02       4.278228724654e+00 
       2.090537352463e-02       4.210198103912e+00 
       2.257309535333e-02       4.111419878564e+00 
       2.437382002918e-02       3.982418677012e+00 
       2.631799944462e-02       3.825169156242e+00 
       2.841644545389e-02       3.643276881756e+00 
       3.067933355377e-02       3.442195801746e+00 
       3.311368470740e-02       3.229231638372e+00 
       3.571840443502e-02       3.013510027806e+00 
       3.847720348444e-02       2.805285373355e+00 
       4.135335538431e-02       2.614410471608e+00 
       4.429361667738e-02       2.448120566101e+00 
       4.724366439141e-02       2.309238506887e+00 
       5.016480835311e-02       2.196111067640e+00 
       5.303989620246e-02       2.104362172367e+00 
       5.586870669566e-02       2.028475284058e+00 
       5.866042680613e-02       1.963152207397e+00 
       6.142798932958e-02       1.903781747325e+00 
       6.418496440164e-02       1.846476779561e+00 
       6.694418833788e-02       1.788198765708e+00 
       6.971731106057e-02       1.726714270388e+00 
       7.251476155766e-02       1.660654281926e+00 
       7.534587671527e-02       1.589471697440e+00 
       7.821907666265e-02       1.513439209837e+00 
       8.114203772912e-02       1.433566598563e+00 
       8.412184535029e-02       1.351494020656e+00 
       8.716512279304e-02       1.269277042802e+00 
       9.027813695930e-02       1.189191936905e+00 
       9.346688431697e-02       1.113501692134e+00 
       9.673716028276e-02       1.044173930361e+00 
       1.000946150830e-01       9.827059637538e-01 
       1.035447986537e-01       9.299317694905e-01 
       1.070931966762e-01       8.859592752557e-01 
       1.107452594425e-01       8.500705576743e-01 
       1.145064249153e-01       8.208052190627e-01 
       1.183821370918e-01       7.960244575974e-01 
       1.223778605862e-01       7.731449731428e-01 
       1.264990921987e-01       7.494510495600e-01 
       1.307513701367e-01       7.225582824178e-01 
       1.351402814784e-01       6.909104581158e-01 
       1.396714684203e-01       6.541810939182e-01 
       1.443506338194e-01       6.134254829967e-01 
       1.491835465229e-01       5.708674315847e-01 
       1.541760469708e-01       5.293630566599e-01 
       1.593340535561e-01       4.917115498777e-01 
       1.646635702297e-01       4.599202913248e-01 
       1.701706958456e-01       4.347278345694e-01 
       1.758616357459e-01       4.154087687418e-01 
       1.817427160982e-01       3.999371148144e-01 
       1.878204015065e-01       3.856832954524e-01 
       1.941013164283e-01       3.698097434735e-01 
       2.005922709503e-01       3.505462034561e-01 
       2.073002914972e-01       3.280426286633e-01 
       2.142326570816e-01       3.042137750264e-01 
       2.213969417533e-01       2.816123392946e-01 
       2.288010639706e-01       2.622571440602e-01 
       2.364533437147e-01       2.469622031513e-01 
       2.443625682930e-01       2.350129125746e-01 
       2.525380679504e-01       2.244178402805e-01 
       2.609898026346e-01       2.130936400314e-01 
       2.697284615565e-01       2.001015825149e-01 
       2.787655775689e-01       1.860203623516e-01 
       2.881136588829e-01       1.725170858104e-01 
       2.977863412677e-01       1.610661937878e-01 
       3.077985646929e-01       1.517610553353e-01 
       3.181667794071e-01       1.435590266016e-01 
       3.289091877812e-01       1.351815638218e-01 
       3.400460299658e-01       1.261644422308e-01 
       3.515999236474e-01       1.172019119907e-01 
       3.635962711085e-01       1.091768499224e-01 
       3.760637506334e-01       1.023092811275e-01 
       3.890349143879e-01       9.593774804358e-02 
       4.025469216825e-01       8.950780670758e-02 
       4.166424456376e-01       8.311191014823e-02 
       4.313708035863e-01       7.721570426161e-02 
       4.467893782977e-01       7.190075893454e-02 
       4.629654199664e-01       6.686913928580e-02 
       4.799783501994e-01       6.191768679363e-02 
       4.979227319373e-01       5.722234616660e-02 
       5.169121270864e-01       5.290294355869e-02 
       5.370841404489e-01       4.876972763303e-02 
       5.586070464571e-01       4.479081176153e-02 
       5.816885094930e-01       4.105190628135e-02 
       6.065870144995e-01       3.748989294497e-02 
       6.336266468475e-01       3.407625987821e-02 
       6.632156059511e-01       3.083451658284e-02 
       6.958678639263e-01       2.772838120331e-02 
       7.322247985589e-01       2.476709688115e-02 
       7.730680195114e-01       2.193952990574e-02 
       8.193049553677e-01       1.925614494717e-02 
       8.718988016039e-01       1.672925627124e-02 
       9.317218031082e-01       1.438421453831e-02 
       9.993660908989e-01       1.225062469272e-02 
       1.075037110174e+00       1.035260952610e-02 
       1.158653485707e+00       8.699714152273e-03 
       1.250099157308e+00       7.284574179153e-03 
       1.349432401273e+00       6.085457825986e-03 
       1.456947457397e+00       5.075726423068e-03 
       1.573135111331e+00       4.228302688173e-03 
       1.698621895592e+00       3.518533076220e-03 
       1.834127512934e+00       2.924976755291e-03 
       1.980444934528e+00       2.429158506496e-03 
       2.138435191726e+00       2.015501615479e-03 
       2.309029199186e+00       1.670760170044e-03 
       2.493232377687e+00       1.383774778834e-03 
       2.692130395285e+00       1.145114275352e-03 
       2.906895534573e+00       9.468397213895e-04 
       3.138793597714e+00       7.822627452205e-04 
       3.389191366484e+00       6.457990199543e-04 
       3.659564657905e+00       5.327394142982e-04 
       3.951507022538e+00       4.391545375074e-04 
       4.266739136701e+00       3.617530842111e-04 
       4.607118943941e+00       2.977903062080e-04 
       4.974652605557e+00       2.449693422601e-04 
       5.371506324689e+00       2.013897665530e-04 
       5.800019113685e+00       1.654567015834e-04 
       6.262716579983e+00       1.358483498851e-04 
       6.762325811764e+00       1.114704471131e-04 
       7.301791451110e+00       9.141069088815e-05 
       7.884293049406e+00       7.491398713364e-05 
       8.513263807261e+00       6.135821265600e-05 
       9.192410809424e+00       5.022338954515e-05 
       9.925736873929e+00       4.108267673864e-05 
       1.071756414427e+01       3.358335814614e-05 
       1.157255956364e+01       2.743280190610e-05 
       1.249576238137e+01       2.239133951120e-05 
       1.349261385375e+01       1.826024050772e-05 
       1.456898931416e+01       1.487672202474e-05 
       1.573123280165e+01       1.210613552851e-05 
       1.698619445202e+01       9.838020829622e-06 
       1.834127087176e+01       7.981727783306e-06 
       1.980444873285e+01       6.462491734056e-06 
       2.138435184532e+01       5.219261671338e-06 
       2.309029198506e+01       4.201947118879e-06 
       2.493232377636e+01       3.369356275325e-06 
       2.692130395282e+01       2.688068929794e-06 
       2.906895534573e+01       2.130626128803e-06 
       3.138793597714e+01       1.674688968152e-06 
       3.389191366484e+01       1.302195617388e-06 
       3.659564657905e+01       9.984206066247e-07 
       3.951507022538e+01       7.515934177192e-07 
       4.266739136701e+01       5.522386798516e-07 
       4.607118943941e+01       3.927853386181e-07 
       4.974652605557e+01       2.672178716827e-07 
       5.371506324689e+01       1.707036243930e-07 
       5.800019113685e+01       9.930116398701e-08 
       6.262716579983e+01       4.963928720876e-08 
       6.762325811764e+01       1.864402310531e-08 
