# Matter power spectrum P(k) at redshift z=99
# for k=1.04775e-05 to 134.926 h/Mpc,
# number of wavenumbers equal to 255
#    1:k (h/Mpc)              2:P (Mpc/h)^3        
       1.047750691338e-05       7.261927095232e-03 
       1.131335172818e-05       7.820332150697e-03 
       1.221587619877e-05       8.421675382268e-03 
       1.319039970550e-05       9.069257737936e-03 
       1.424266598317e-05       9.766636451054e-03 
       1.537887697396e-05       1.051763973633e-02 
       1.660572938097e-05       1.132639250744e-02 
       1.793045413791e-05       1.219733201500e-02 
       1.936085902737e-05       1.313524187194e-02 
       2.090537469909e-05       1.414527084968e-02 
       2.257310435923e-05       1.523296544482e-02 
       2.437387742372e-05       1.640429654630e-02 
       2.631830745176e-05       1.766569603275e-02 
       2.841785470091e-05       1.902408711151e-02 
       3.068489367268e-05       2.048692967432e-02 
       3.313278604643e-05       2.206225467536e-02 
       3.577595943165e-05       2.375870883839e-02 
       3.862999240274e-05       2.558560669808e-02 
       4.171170631739e-05       2.755297672492e-02 
       4.503926445983e-05       2.967161933397e-02 
       4.863227909323e-05       3.195316455639e-02 
       5.251192705226e-05       3.441013466116e-02 
       5.670107455699e-05       3.705601741682e-02 
       6.122441198393e-05       3.990533412814e-02 
       6.610859938837e-05       4.297372242508e-02 
       7.138242363583e-05       4.627802054825e-02 
       7.707696806873e-05       4.983636159860e-02 
       8.322579570814e-05       5.366826786904e-02 
       8.986514707061e-05       5.779476319702e-02 
       9.703415376577e-05       6.223848221802e-02 
       1.047750691338e-04       6.702379824985e-02 
       1.131335172818e-04       7.217695031041e-02 
       1.221587619877e-04       7.772619030321e-02 
       1.319039970550e-04       8.370193379997e-02 
       1.424266598317e-04       9.013692506621e-02 
       1.537887697396e-04       9.706641130350e-02 
       1.660572938097e-04       1.045283343106e-01 
       1.793045413791e-04       1.125635329180e-01 
       1.936085902737e-04       1.212159592304e-01 
       2.090537469909e-04       1.305329107430e-01 
       2.257310435923e-04       1.405652819355e-01 
       2.437387742372e-04       1.513678275070e-01 
       2.631830745176e-04       1.629994475127e-01 
       2.841785470091e-04       1.755234890472e-01 
       3.068489367268e-04       1.890080645293e-01 
       3.313278604643e-04       2.035263977425e-01 
       3.577595943165e-04       2.191571778038e-01 
       3.862999240274e-04       2.359849423254e-01 
       4.171170631739e-04       2.541004712996e-01 
       4.503926445983e-04       2.736012061153e-01 
       4.863227909323e-04       2.945916774637e-01 
       5.251192705226e-04       3.171839507857e-01 
       5.670107455699e-04       3.414980769101e-01 
       6.122441198393e-04       3.676625416294e-01 
       6.610859938837e-04       3.958147272858e-01 
       7.138242363583e-04       4.261013332058e-01 
       7.707696806873e-04       4.586787880843e-01 
       8.322579570814e-04       4.937136112815e-01 
       8.986514707061e-04       5.313826962071e-01 
       9.703415376577e-04       5.718735176799e-01 
       1.047750691338e-03       6.153841926246e-01 
       1.131335172818e-03       6.621233623119e-01 
       1.221587619877e-03       7.123098743651e-01 
       1.319039970550e-03       7.661721263786e-01 
       1.424266598317e-03       8.239547181302e-01 
       1.537887697396e-03       8.859012282818e-01 
       1.660572938097e-03       9.522589495755e-01 
       1.793045413791e-03       1.023280284737e+00 
       1.936085902737e-03       1.099216542128e+00 
       2.090537469909e-03       1.180313285061e+00 
       2.257310435923e-03       1.266804486836e+00 
       2.437387742372e-03       1.358905328494e+00 
       2.631830745176e-03       1.456803285985e+00 
       2.841785470091e-03       1.560647663077e+00 
       3.068489367268e-03       1.670537010622e+00 
       3.313278604643e-03       1.786505039690e+00 
       3.577595943165e-03       1.908504410176e+00 
       3.862999240274e-03       2.036389468824e+00 
       4.171170631739e-03       2.169898252876e+00 
       4.503926445983e-03       2.308634492052e+00 
       4.863227909323e-03       2.452050674868e+00 
       5.251192705226e-03       2.599434681236e+00 
       5.670107455699e-03       2.749901126581e+00 
       6.122441198393e-03       2.902390058461e+00 
       6.610859938837e-03       3.055671269984e+00 
       7.138242363583e-03       3.208360123036e+00 
       7.707696806873e-03       3.358926651601e+00 
       8.322579570814e-03       3.505726890180e+00 
       8.986514707061e-03       3.647012438282e+00 
       9.703415376577e-03       3.780926179946e+00 
       1.047750691338e-02       3.905492881532e+00 
       1.131335172818e-02       4.018589827221e+00 
       1.221587619877e-02       4.117902890409e+00 
       1.319039970550e-02       4.200917702589e+00 
       1.424266598317e-02       4.264943741954e+00 
       1.537887697392e-02       4.307219673715e+00 
       1.660572938023e-02       4.325062463191e+00 
       1.793045412706e-02       4.316060399040e+00 
       1.936085890181e-02       4.278228940736e+00 
       2.090537352463e-02       4.210204483513e+00 
       2.257309535333e-02       4.111418760343e+00 
       2.437382002918e-02       3.982420949960e+00 
       2.631799944462e-02       3.825168699918e+00 
       2.841644545389e-02       3.643282261692e+00 
       3.067933355377e-02       3.442198722095e+00 
       3.311368470740e-02       3.229241617174e+00 
       3.571840443502e-02       3.013516355445e+00 
       3.847720348444e-02       2.805283969309e+00 
       4.135335538431e-02       2.614410698987e+00 
       4.429361667738e-02       2.448132224469e+00 
       4.724366439141e-02       2.309240697930e+00 
       5.016480835311e-02       2.196115255947e+00 
       5.303989620246e-02       2.104369933279e+00 
       5.586870669566e-02       2.028462682189e+00 
       5.866042680613e-02       1.963155416846e+00 
       6.142798932958e-02       1.903779832208e+00 
       6.418496440164e-02       1.846479350502e+00 
       6.694418833788e-02       1.788197635475e+00 
       6.971731106057e-02       1.726715853794e+00 
       7.251476155766e-02       1.660654578518e+00 
       7.534587671527e-02       1.589470055545e+00 
       7.821907666265e-02       1.513436791031e+00 
       8.114203772912e-02       1.433568993400e+00 
       8.412184535029e-02       1.351492504061e+00 
       8.716512279304e-02       1.269273992506e+00 
       9.027813695930e-02       1.189193441259e+00 
       9.346688431697e-02       1.113501391900e+00 
       9.673716028276e-02       1.044174742942e+00 
       1.000946150830e-01       9.827062823020e-01 
       1.035447986537e-01       9.299368087812e-01 
       1.070931966762e-01       8.859588017041e-01 
       1.107452594425e-01       8.500713812414e-01 
       1.145064249153e-01       8.208036220710e-01 
       1.183821370918e-01       7.960245314672e-01 
       1.223778605862e-01       7.731459364274e-01 
       1.264990921987e-01       7.494523403973e-01 
       1.307513701367e-01       7.225578206256e-01 
       1.351402814784e-01       6.909098658827e-01 
       1.396714684203e-01       6.541826655806e-01 
       1.443506338194e-01       6.134281227771e-01 
       1.491835465229e-01       5.708687815450e-01 
       1.541760469708e-01       5.293640602571e-01 
       1.593340535561e-01       4.917105766215e-01 
       1.646635702297e-01       4.599196372859e-01 
       1.701706958456e-01       4.347275486493e-01 
       1.758616357459e-01       4.154073954607e-01 
       1.817427160982e-01       3.999357317163e-01 
       1.878204015065e-01       3.856852647898e-01 
       1.941013164283e-01       3.698119141779e-01 
       2.005922709503e-01       3.505486689926e-01 
       2.073002914972e-01       3.280457243771e-01 
       2.142326570816e-01       3.042130908107e-01 
       2.213969417533e-01       2.816107133810e-01 
       2.288010639706e-01       2.622557841442e-01 
       2.364533437147e-01       2.469607570016e-01 
       2.443625682930e-01       2.350117756327e-01 
       2.525380679504e-01       2.244188431927e-01 
       2.609898026346e-01       2.130948177212e-01 
       2.697284615565e-01       2.001012049235e-01 
       2.787655775689e-01       1.860185067262e-01 
       2.881136588829e-01       1.725154897638e-01 
       2.977863412677e-01       1.610642828493e-01 
       3.077985646929e-01       1.517590183140e-01 
       3.181667794071e-01       1.435576932049e-01 
       3.289091877812e-01       1.351801074975e-01 
       3.400460299658e-01       1.261624066139e-01 
       3.515999236474e-01       1.171998133815e-01 
       3.635962711085e-01       1.091745902675e-01 
       3.760637506334e-01       1.023070274040e-01 
       3.890349143879e-01       9.593515194941e-02 
       4.025469216825e-01       8.950499626610e-02 
       4.166424456376e-01       8.310891613163e-02 
       4.313708035863e-01       7.721253088153e-02 
       4.467893782977e-01       7.189747047082e-02 
       4.629654199664e-01       6.686576548086e-02 
       4.799783501994e-01       6.191397998661e-02 
       4.979227319373e-01       5.721865010272e-02 
       5.169121270864e-01       5.289904013587e-02 
       5.370841404489e-01       4.876569174320e-02 
       5.586070464571e-01       4.478655880217e-02 
       5.816885094930e-01       4.104734939756e-02 
       6.065870144995e-01       3.748509010028e-02 
       6.336266468475e-01       3.407117521014e-02 
       6.632156059511e-01       3.082908187072e-02 
       6.958678639263e-01       2.772250230196e-02 
       7.322247985589e-01       2.476084806175e-02 
       7.730680195114e-01       2.193287830494e-02 
       8.193049553677e-01       1.924888935608e-02 
       8.718988016039e-01       1.672130256006e-02 
       9.317218031082e-01       1.437555556093e-02 
       9.993660908989e-01       1.224116094414e-02 
       1.075037110174e+00       1.034213793838e-02 
       1.158653485707e+00       8.688173127061e-03 
       1.250099157308e+00       7.271775094379e-03 
       1.349432401273e+00       6.071369983063e-03 
       1.456947457397e+00       5.060174279701e-03 
       1.573135111331e+00       4.211200535633e-03 
       1.698621895592e+00       3.499744112628e-03 
       1.834127512934e+00       2.904307939924e-03 
       1.980444934528e+00       2.406459171981e-03 
       2.138435191726e+00       1.991732582986e-03 
       2.309029199186e+00       1.643542573568e-03 
       2.493232377687e+00       1.354011726116e-03 
       2.692130395285e+00       1.112695873308e-03 
       2.906895534573e+00       9.115660454575e-04 
       3.138793597714e+00       7.440967358509e-04 
       3.389191366484e+00       6.044668075172e-04 
       3.659564657905e+00       4.881574232435e-04 
       3.951507022538e+00       3.912431502684e-04 
       4.266739136701e+00       3.106798352183e-04 
       4.607118943941e+00       2.436676951557e-04 
       4.974652605557e+00       1.878955963773e-04 
       5.371506324689e+00       1.418452104050e-04 
       5.800019113685e+00       1.040019795168e-04 
       6.262716579983e+00       7.323000459093e-05 
       6.762325811764e+00       4.871872567121e-05 
       7.301791451110e+00       2.982731812963e-05 
       7.884293049406e+00       1.594651293507e-05 
       8.513263807261e+00       6.700113666283e-06 
       9.192410809424e+00       1.550884428336e-06 
       9.925736873929e+00       1.802283127861e-11 
       1.071756414427e+01       1.302030131254e-06 
       1.157255956364e+01       4.528404036723e-06 
       1.249576238137e+01       8.550687249201e-06 
       1.349261385375e+01       1.218042141355e-05 
       1.456898931416e+01       1.412373929594e-05 
       1.573123280165e+01       1.381270310831e-05 
       1.698619445202e+01       1.122186834464e-05 
       1.834127087176e+01       7.128031104057e-06 
       1.980444873285e+01       3.061036049709e-06 
       2.138435184532e+01       4.746469253816e-07 
       2.309029198506e+01       1.240575864231e-07 
       2.493232377636e+01       1.429642965469e-06 
       2.692130395282e+01       2.831403359565e-06 
       2.906895534573e+01       2.877340080214e-06 
       3.138793597714e+01       1.574448610350e-06 
       3.389191366484e+01       2.583095900283e-07 
       3.659564657905e+01       7.725213436758e-08 
       3.951507022538e+01       6.200421911051e-07 
       4.266739136701e+01       7.084669565254e-07 
       4.607118943941e+01       2.112537572177e-07 
       4.974652605557e+01       7.911607200883e-09 
       5.371506324689e+01       1.606961444413e-07 
       5.800019113685e+01       1.271595512666e-07 
       6.262716579983e+01       8.156427723938e-10 
       6.762325811764e+01       4.901098533824e-08 
       7.301791451110e+01       2.741007809196e-08 
       7.884293049406e+01       5.460715133625e-09 
       8.513263807261e+01       1.190034726932e-08 
       9.192410809424e+01       5.354769716489e-11 
       9.925736873929e+01       3.345046135354e-09 
       1.071756414427e+02       8.175377942999e-11 
       1.157255956364e+02       6.434650309456e-12 
       1.249576238137e+02       2.408795102927e-10 
       1.349261385375e+02       6.369245722257e-10 
