# Matter power spectrum P(k) at redshift z=99
# for k=1.04775e-05 to 67.6233 h/Mpc,
# number of wavenumbers equal to 246
#    1:k (h/Mpc)              2:P (Mpc/h)^3        
       1.047750691338e-05       7.261927673119e-03 
       1.131335172818e-05       7.820331745737e-03 
       1.221587619877e-05       8.421675986488e-03 
       1.319039970550e-05       9.069258192194e-03 
       1.424266598317e-05       9.766638404421e-03 
       1.537887697396e-05       1.051764069682e-02 
       1.660572938097e-05       1.132639105520e-02 
       1.793045413791e-05       1.219733231416e-02 
       1.936085902737e-05       1.313524224380e-02 
       2.090537469909e-05       1.414527121893e-02 
       2.257310435923e-05       1.523296272192e-02 
       2.437387742372e-05       1.640429444530e-02 
       2.631830745176e-05       1.766569582177e-02 
       2.841785470091e-05       1.902408601793e-02 
       3.068489367268e-05       2.048692970591e-02 
       3.313278604643e-05       2.206225513594e-02 
       3.577595943165e-05       2.375870704909e-02 
       3.862999240274e-05       2.558560727479e-02 
       4.171170631739e-05       2.755297763344e-02 
       4.503926445983e-05       2.967161927314e-02 
       4.863227909323e-05       3.195316450832e-02 
       5.251192705226e-05       3.441013519284e-02 
       5.670107455699e-05       3.705601722526e-02 
       6.122441198393e-05       3.990533413562e-02 
       6.610859938837e-05       4.297372168203e-02 
       7.138242363583e-05       4.627802141688e-02 
       7.707696806873e-05       4.983636194159e-02 
       8.322579570814e-05       5.366826847231e-02 
       8.986514707061e-05       5.779476394569e-02 
       9.703415376577e-05       6.223848243885e-02 
       1.047750691338e-04       6.702379865640e-02 
       1.131335172818e-04       7.217695153381e-02 
       1.221587619877e-04       7.772619073570e-02 
       1.319039970550e-04       8.370193432376e-02 
       1.424266598317e-04       9.013692507548e-02 
       1.537887697396e-04       9.706641242570e-02 
       1.660572938097e-04       1.045283354271e-01 
       1.793045413791e-04       1.125635349068e-01 
       1.936085902737e-04       1.212159614968e-01 
       2.090537469909e-04       1.305329132714e-01 
       2.257310435923e-04       1.405652846215e-01 
       2.437387742372e-04       1.513678302540e-01 
       2.631830745176e-04       1.629994504871e-01 
       2.841785470091e-04       1.755234921224e-01 
       3.068489367268e-04       1.890080670413e-01 
       3.313278604643e-04       2.035264002435e-01 
       3.577595943165e-04       2.191571803681e-01 
       3.862999240274e-04       2.359849437593e-01 
       4.171170631739e-04       2.541004741539e-01 
       4.503926445983e-04       2.736012080277e-01 
       4.863227909323e-04       2.945916790965e-01 
       5.251192705226e-04       3.171839525183e-01 
       5.670107455699e-04       3.414980764002e-01 
       6.122441198393e-04       3.676625413100e-01 
       6.610859938837e-04       3.958147252304e-01 
       7.138242363583e-04       4.261013284921e-01 
       7.707696806873e-04       4.586787792354e-01 
       8.322579570814e-04       4.937136001348e-01 
       8.986514707061e-04       5.313826801402e-01 
       9.703415376577e-04       5.718734972157e-01 
       1.047750691338e-03       6.153841629505e-01 
       1.131335172818e-03       6.621233239465e-01 
       1.221587619877e-03       7.123098220431e-01 
       1.319039970550e-03       7.661720584654e-01 
       1.424266598317e-03       8.239546297730e-01 
       1.537887697396e-03       8.859011173467e-01 
       1.660572938097e-03       9.522588006421e-01 
       1.793045413791e-03       1.023280099819e+00 
       1.936085902737e-03       1.099216304579e+00 
       2.090537469909e-03       1.180312990454e+00 
       2.257310435923e-03       1.266804115848e+00 
       2.437387742372e-03       1.358904853406e+00 
       2.631830745176e-03       1.456802683156e+00 
       2.841785470091e-03       1.560646890522e+00 
       3.068489367268e-03       1.670536062499e+00 
       3.313278604643e-03       1.786503852159e+00 
       3.577595943165e-03       1.908502930789e+00 
       3.862999240274e-03       2.036387730709e+00 
       4.171170631739e-03       2.169896178593e+00 
       4.503926445983e-03       2.308631878994e+00 
       4.863227909323e-03       2.452047290962e+00 
       5.251192705226e-03       2.599430628088e+00 
       5.670107455699e-03       2.749896931814e+00 
       6.122441198393e-03       2.902386513385e+00 
       6.610859938837e-03       3.055668639216e+00 
       7.138242363583e-03       3.208356461544e+00 
       7.707696806873e-03       3.358923892830e+00 
       8.322579570814e-03       3.505725595283e+00 
       8.986514707061e-03       3.647009650814e+00 
       9.703415376577e-03       3.780923304255e+00 
       1.047750691338e-02       3.905491625741e+00 
       1.131335172818e-02       4.018587641346e+00 
       1.221587619877e-02       4.117901589046e+00 
       1.319039970550e-02       4.200915277250e+00 
       1.424266598317e-02       4.264942425656e+00 
       1.537887697392e-02       4.307219489597e+00 
       1.660572938023e-02       4.325064242225e+00 
       1.793045412706e-02       4.316057049858e+00 
       1.936085890181e-02       4.278228465864e+00 
       2.090537352463e-02       4.210205580309e+00 
       2.257309535333e-02       4.111417956023e+00 
       2.437382002918e-02       3.982422649586e+00 
       2.631799944462e-02       3.825172995906e+00 
       2.841644545389e-02       3.643279153708e+00 
       3.067933355377e-02       3.442191554629e+00 
       3.311368470740e-02       3.229247199604e+00 
       3.571840443502e-02       3.013510790449e+00 
       3.847720348444e-02       2.805276115579e+00 
       4.135335538431e-02       2.614406694941e+00 
       4.429361667738e-02       2.448133448067e+00 
       4.724366439141e-02       2.309241218556e+00 
       5.016480835311e-02       2.196116242369e+00 
       5.303989620246e-02       2.104368856176e+00 
       5.586870669566e-02       2.028462933447e+00 
       5.866042680613e-02       1.963153854503e+00 
       6.142798932958e-02       1.903782678332e+00 
       6.418496440164e-02       1.846478479897e+00 
       6.694418833788e-02       1.788194190004e+00 
       6.971731106057e-02       1.726720078177e+00 
       7.251476155766e-02       1.660653086097e+00 
       7.534587671527e-02       1.589469130983e+00 
       7.821907666265e-02       1.513437044945e+00 
       8.114203772912e-02       1.433568802733e+00 
       8.412184535029e-02       1.351492979391e+00 
       8.716512279304e-02       1.269274578472e+00 
       9.027813695930e-02       1.189192183926e+00 
       9.346688431697e-02       1.113498486490e+00 
       9.673716028276e-02       1.044174685260e+00 
       1.000946150830e-01       9.827072502329e-01 
       1.035447986537e-01       9.299374739434e-01 
       1.070931966762e-01       8.859600211693e-01 
       1.107452594425e-01       8.500711362995e-01 
       1.145064249153e-01       8.208025468139e-01 
       1.183821370918e-01       7.960254108969e-01 
       1.223778605862e-01       7.731471360431e-01 
       1.264990921987e-01       7.494519773884e-01 
       1.307513701367e-01       7.225583872438e-01 
       1.351402814784e-01       6.909092648323e-01 
       1.396714684203e-01       6.541817008918e-01 
       1.443506338194e-01       6.134263031293e-01 
       1.491835465229e-01       5.708682517574e-01 
       1.541760469708e-01       5.293641691053e-01 
       1.593340535561e-01       4.917113670542e-01 
       1.646635702297e-01       4.599192829899e-01 
       1.701706958456e-01       4.347291335102e-01 
       1.758616357459e-01       4.154083485249e-01 
       1.817427160982e-01       3.999372770043e-01 
       1.878204015065e-01       3.856831767790e-01 
       1.941013164283e-01       3.698096059205e-01 
       2.005922709503e-01       3.505463820691e-01 
       2.073002914972e-01       3.280433167566e-01 
       2.142326570816e-01       3.042138270527e-01 
       2.213969417533e-01       2.816116199655e-01 
       2.288010639706e-01       2.622570236829e-01 
       2.364533437147e-01       2.469620683956e-01 
       2.443625682930e-01       2.350131255209e-01 
       2.525380679504e-01       2.244173649535e-01 
       2.609898026346e-01       2.130935852168e-01 
       2.697284615565e-01       2.001018764247e-01 
       2.787655775689e-01       1.860205675888e-01 
       2.881136588829e-01       1.725175039457e-01 
       2.977863412677e-01       1.610664281233e-01 
       3.077985646929e-01       1.517610907153e-01 
       3.181667794071e-01       1.435593672352e-01 
       3.289091877812e-01       1.351816253215e-01 
       3.400460299658e-01       1.261643012112e-01 
       3.515999236474e-01       1.172021014914e-01 
       3.635962711085e-01       1.091771235720e-01 
       3.760637506334e-01       1.023095006351e-01 
       3.890349143879e-01       9.593772517855e-02 
       4.025469216825e-01       8.950775880127e-02 
       4.166424456376e-01       8.311182108707e-02 
       4.313708035863e-01       7.721562601221e-02 
       4.467893782977e-01       7.190074639844e-02 
       4.629654199664e-01       6.686899143903e-02 
       4.799783501994e-01       6.191751520316e-02 
       4.979227319373e-01       5.722233970010e-02 
       5.169121270864e-01       5.290301069773e-02 
       5.370841404489e-01       4.876991604228e-02 
       5.586070464571e-01       4.479102892533e-02 
       5.816885094930e-01       4.105189865425e-02 
       6.065870144995e-01       3.748991958342e-02 
       6.336266468475e-01       3.407630245251e-02 
       6.632156059511e-01       3.083470130641e-02 
       6.958678639263e-01       2.772834761752e-02 
       7.322247985589e-01       2.476707567170e-02 
       7.730680195114e-01       2.193958582587e-02 
       8.193049553677e-01       1.925618580606e-02 
       8.718988016039e-01       1.672932674693e-02 
       9.317218031082e-01       1.438421476412e-02 
       9.993660908989e-01       1.225065858383e-02 
       1.075037110174e+00       1.035257308250e-02 
       1.158653485707e+00       8.699753628598e-03 
       1.250099157308e+00       7.284619891487e-03 
       1.349432401273e+00       6.085493915797e-03 
       1.456947457397e+00       5.075739512679e-03 
       1.573135111331e+00       4.228314272090e-03 
       1.698621895592e+00       3.518554534814e-03 
       1.834127512934e+00       2.924973681590e-03 
       1.980444934528e+00       2.429163280737e-03 
       2.138435191726e+00       2.015510426666e-03 
       2.309029199186e+00       1.670771905399e-03 
       2.493232377687e+00       1.383790570591e-03 
       2.692130395285e+00       1.145131428050e-03 
       2.906895534573e+00       9.468557660623e-04 
       3.138793597714e+00       7.822894329556e-04 
       3.389191366484e+00       6.458208013419e-04 
       3.659564657905e+00       5.327680478788e-04 
       3.951507022538e+00       4.391886934376e-04 
       4.266739136701e+00       3.617904121194e-04 
       4.607118943941e+00       2.978291284220e-04 
       4.974652605557e+00       2.450129478352e-04 
       5.371506324689e+00       2.014366991613e-04 
       5.800019113685e+00       1.655080822510e-04 
       6.262716579983e+00       1.359041631886e-04 
       6.762325811764e+00       1.115300653339e-04 
       7.301791451110e+00       9.147576848757e-05 
       7.884293049406e+00       7.498647122724e-05 
       8.513263807261e+00       6.143651221987e-05 
       9.192410809424e+00       5.030837389942e-05 
       9.925736873929e+00       4.117549346441e-05 
       1.071756414427e+01       3.368346236925e-05 
       1.157255956364e+01       2.754140753095e-05 
       1.249576238137e+01       2.250896709090e-05 
       1.349261385375e+01       1.838755398526e-05 
       1.456898931416e+01       1.501418541171e-05 
       1.573123280165e+01       1.225434812124e-05 
       1.698619445202e+01       9.997567376746e-06 
       1.834127087176e+01       8.153105840150e-06 
       1.980444873285e+01       6.646239550543e-06 
       2.138435184532e+01       5.415735652767e-06 
       2.309029198506e+01       4.411334225170e-06 
       2.493232377636e+01       3.591899058004e-06 
       2.692130395282e+01       2.923543830848e-06 
       2.906895534573e+01       2.378732188320e-06 
       3.138793597714e+01       1.934775209740e-06 
       3.389191366484e+01       1.573105927047e-06 
       3.659564657905e+01       1.278628431965e-06 
       3.951507022538e+01       1.038921980868e-06 
       4.266739136701e+01       8.438677977479e-07 
       4.607118943941e+01       6.852104420583e-07 
       4.974652605557e+01       5.562045304736e-07 
       5.371506324689e+01       4.513375936027e-07 
       5.800019113685e+01       3.661299305996e-07 
       6.262716579983e+01       2.969119750941e-07 
       6.762325811764e+01       2.407030868756e-07 
