# Matter power spectrum P(k) at redshift z=0
# for k=1.04775e-05 to 67.6233 h/Mpc,
# number of wavenumbers equal to 246
#    1:k (h/Mpc)              2:P (Mpc/h)^3        
       1.047750691338e-05       5.020964806749e+01 
       1.131335172818e-05       5.407048206554e+01 
       1.221587619877e-05       5.822819063667e+01 
       1.319039970550e-05       6.270562589677e+01 
       1.424266598317e-05       6.752731788102e+01 
       1.537887697396e-05       7.271977200258e+01 
       1.660572938097e-05       7.831147241542e+01 
       1.793045413791e-05       8.433311815128e+01 
       1.936085902737e-05       9.081778242446e+01 
       2.090537469909e-05       9.780108061340e+01 
       2.257310435923e-05       1.053213197032e+02 
       2.437387742372e-05       1.134197377001e+02 
       2.631830745176e-05       1.221408202815e+02 
       2.841785470091e-05       1.315324720916e+02 
       3.068489367268e-05       1.416462093729e+02 
       3.313278604643e-05       1.525374500691e+02 
       3.577595943165e-05       1.642660687078e+02 
       3.862999240274e-05       1.768963504868e+02 
       4.171170631739e-05       1.904975992460e+02 
       4.503926445983e-05       2.051444490305e+02 
       4.863227909323e-05       2.209171463752e+02 
       5.251192705226e-05       2.379022222314e+02 
       5.670107455699e-05       2.561927925494e+02 
       6.122441198393e-05       2.758890441791e+02 
       6.610859938837e-05       2.970989225466e+02 
       7.138242363583e-05       3.199385558200e+02 
       7.707696806873e-05       3.445329780878e+02 
       8.322579570814e-05       3.710167315928e+02 
       8.986514707061e-05       3.995346440954e+02 
       9.703415376577e-05       4.302425403884e+02 
       1.047750691338e-04       4.633080762974e+02 
       1.131335172818e-04       4.989116267507e+02 
       1.221587619877e-04       5.372471946561e+02 
       1.319039970550e-04       5.785234124630e+02 
       1.424266598317e-04       6.229645930980e+02 
       1.537887697396e-04       6.708118484951e+02 
       1.660572938097e-04       7.223242660219e+02 
       1.793045413791e-04       7.777801554393e+02 
       1.936085902737e-04       8.374783607333e+02 
       2.090537469909e-04       9.017396264495e+02 
       2.257310435923e-04       9.709080260152e+02 
       2.437387742372e-04       1.045352448644e+03 
       2.631830745176e-04       1.125468122836e+03 
       2.841785470091e-04       1.211678179511e+03 
       3.068489367268e-04       1.304435249091e+03 
       3.313278604643e-04       1.404223052541e+03 
       3.577595943165e-04       1.511558013390e+03 
       3.862999240274e-04       1.626990836374e+03 
       4.171170631739e-04       1.751108027370e+03 
       4.503926445983e-04       1.884533381345e+03 
       4.863227909323e-04       2.027929376470e+03 
       5.251192705226e-04       2.181998446367e+03 
       5.670107455699e-04       2.347484100857e+03 
       6.122441198393e-04       2.525171869335e+03 
       6.610859938837e-04       2.715889981401e+03 
       7.138242363583e-04       2.920509686089e+03 
       7.707696806873e-04       3.139945097710e+03 
       8.322579570814e-04       3.375152334396e+03 
       8.986514707061e-04       3.627127828231e+03 
       9.703415376577e-04       3.896905450016e+03 
       1.047750691338e-03       4.185552170959e+03 
       1.131335172818e-03       4.494162426791e+03 
       1.221587619877e-03       4.823850702664e+03 
       1.319039970550e-03       5.175742734642e+03 
       1.424266598317e-03       5.551019592528e+03 
       1.537887697396e-03       5.950788335883e+03 
       1.660572938097e-03       6.376123046806e+03 
       1.793045413791e-03       6.828073896121e+03 
       1.936085902737e-03       7.307625375386e+03 
       2.090537469909e-03       7.815671898268e+03 
       2.257310435923e-03       8.352990369400e+03 
       2.437387742372e-03       8.920211057537e+03 
       2.631830745176e-03       9.517783061890e+03 
       2.841785470091e-03       1.014593703671e+04 
       3.068489367268e-03       1.080464505737e+04 
       3.313278604643e-03       1.149357459422e+04 
       3.577595943165e-03       1.221203620826e+04 
       3.862999240274e-03       1.295892538505e+04 
       4.171170631739e-03       1.373266002140e+04 
       4.503926445983e-03       1.453111834595e+04 
       4.863227909323e-03       1.535154984226e+04 
       5.251192705226e-03       1.619063613432e+04 
       5.670107455699e-03       1.704431256616e+04 
       6.122441198393e-03       1.790755938460e+04 
       6.610859938837e-03       1.877460379279e+04 
       7.138242363583e-03       1.963872429105e+04 
       7.707696806873e-03       2.049215713091e+04 
       8.322579570814e-03       2.132607230522e+04 
       8.986514707061e-03       2.213055090741e+04 
       9.703415376577e-03       2.289445470819e+04 
       1.047750691338e-02       2.360548372239e+04 
       1.131335172818e-02       2.425023193208e+04 
       1.221587619877e-02       2.481423922676e+04 
       1.319039970550e-02       2.528218771311e+04 
       1.424266598317e-02       2.563814358952e+04 
       1.537887697392e-02       2.586607118388e+04 
       1.660572938023e-02       2.595027851058e+04 
       1.793045412706e-02       2.587634263823e+04 
       1.936085890181e-02       2.563218246239e+04 
       2.090537352463e-02       2.520933361852e+04 
       2.257309535333e-02       2.460445993988e+04 
       2.437382002918e-02       2.382086523072e+04 
       2.631799944462e-02       2.287042064730e+04 
       2.841644545389e-02       2.177451520086e+04 
       3.067933355377e-02       2.056559210603e+04 
       3.311368470740e-02       1.928730432658e+04 
       3.571840443502e-02       1.799399364288e+04 
       3.847720348444e-02       1.674679151437e+04 
       4.135335538431e-02       1.560461990821e+04 
       4.429361667738e-02       1.461036404404e+04 
       4.724366439141e-02       1.378058083684e+04 
       5.016480835311e-02       1.310507918236e+04 
       5.303989620246e-02       1.255714670068e+04 
       5.586870669566e-02       1.210424341765e+04 
       5.866042680613e-02       1.171464800173e+04 
       6.142798932958e-02       1.136050522523e+04 
       6.418496440164e-02       1.101857941434e+04 
       6.694418833788e-02       1.067069774932e+04 
       6.971731106057e-02       1.030355946282e+04 
       7.251476155766e-02       9.908999594495e+03 
       7.534587671527e-02       9.483801846327e+03 
       7.821907666265e-02       9.029490708737e+03 
       8.114203772912e-02       8.552328511545e+03 
       8.412184535029e-02       8.061955453161e+03 
       8.716512279304e-02       7.570756986743e+03 
       9.027813695930e-02       7.092494297993e+03 
       9.346688431697e-02       6.640534433279e+03 
       9.673716028276e-02       6.226722090890e+03 
       1.000946150830e-01       5.859946472016e+03 
       1.035447986537e-01       5.545246084080e+03 
       1.070931966762e-01       5.283132532987e+03 
       1.107452594425e-01       5.069417869100e+03 
       1.145064249153e-01       4.895247626805e+03 
       1.183821370918e-01       4.747867064786e+03 
       1.223778605862e-01       4.611740130266e+03 
       1.264990921987e-01       4.470620780712e+03 
       1.307513701367e-01       4.310276587364e+03 
       1.351402814784e-01       4.121384283071e+03 
       1.396714684203e-01       3.902056427701e+03 
       1.443506338194e-01       3.658642815282e+03 
       1.491835465229e-01       3.404487737310e+03 
       1.541760469708e-01       3.156674757752e+03 
       1.593340535561e-01       2.931977198810e+03 
       1.646635702297e-01       2.742377115973e+03 
       1.701706958456e-01       2.592261873671e+03 
       1.758616357459e-01       2.477249226013e+03 
       1.817427160982e-01       2.385178374534e+03 
       1.878204015065e-01       2.300365673160e+03 
       1.941013164283e-01       2.205756897260e+03 
       2.005922709503e-01       2.090810805270e+03 
       2.073002914972e-01       1.956465110739e+03 
       2.142326570816e-01       1.814186027688e+03 
       2.213969417533e-01       1.679297533258e+03 
       2.288010639706e-01       1.563850321764e+03 
       2.364533437147e-01       1.472686919547e+03 
       2.443625682930e-01       1.401512138348e+03 
       2.525380679504e-01       1.338417647585e+03 
       2.609898026346e-01       1.270902549380e+03 
       2.697284615565e-01       1.193382752113e+03 
       2.787655775689e-01       1.109343046180e+03 
       2.881136588829e-01       1.028771004840e+03 
       2.977863412677e-01       9.604849905105e+02 
       3.077985646929e-01       9.050230749269e+02 
       3.181667794071e-01       8.561464382811e+02 
       3.289091877812e-01       8.061885453168e+02 
       3.400460299658e-01       7.523920603213e+02 
       3.515999236474e-01       6.989231951109e+02 
       3.635962711085e-01       6.510634096996e+02 
       3.760637506334e-01       6.101222336326e+02 
       3.890349143879e-01       5.721329472317e+02 
       4.025469216825e-01       5.337831266904e+02 
       4.166424456376e-01       4.956326797282e+02 
       4.313708035863e-01       4.604690062174e+02 
       4.467893782977e-01       4.287771573727e+02 
       4.629654199664e-01       3.987744204955e+02 
       4.799783501994e-01       3.692421842958e+02 
       4.979227319373e-01       3.412399619931e+02 
       5.169121270864e-01       3.154836398103e+02 
       5.370841404489e-01       2.908366482638e+02 
       5.586070464571e-01       2.671062566131e+02 
       5.816885094930e-01       2.448089487721e+02 
       6.065870144995e-01       2.235679341420e+02 
       6.336266468475e-01       2.032105700072e+02 
       6.632156059511e-01       1.838789167913e+02 
       6.958678639263e-01       1.653551171283e+02 
       7.322247985589e-01       1.476958766158e+02 
       7.730680195114e-01       1.308342958837e+02 
       8.193049553677e-01       1.148312338265e+02 
       8.718988016039e-01       9.976284602044e+01 
       9.317218031082e-01       8.577797216030e+01 
       9.993660908989e-01       7.305460895807e+01 
       1.075037110174e+00       6.173586297807e+01 
       1.158653485707e+00       5.187915647689e+01 
       1.250099157308e+00       4.344029400938e+01 
       1.349432401273e+00       3.628931979290e+01 
       1.456947457397e+00       3.026798692678e+01 
       1.573135111331e+00       2.521456639141e+01 
       1.698621895592e+00       2.098200777458e+01 
       1.834127512934e+00       1.744234586122e+01 
       1.980444934528e+00       1.448558004327e+01 
       2.138435191726e+00       1.201889947829e+01 
       2.309029199186e+00       9.963131836806e+00 
       2.493232377687e+00       8.251861758906e+00 
       2.692130395285e+00       6.828597498851e+00 
       2.906895534573e+00       5.646244164989e+00 
       3.138793597714e+00       4.664905888781e+00 
       3.389191366484e+00       3.851126305723e+00 
       3.659564657905e+00       3.176940853238e+00 
       3.951507022538e+00       2.618863751492e+00 
       4.266739136701e+00       2.157296367157e+00 
       4.607118943941e+00       1.775932664715e+00 
       4.974652605557e+00       1.460987039349e+00 
       5.371506324689e+00       1.201127878504e+00 
       5.800019113685e+00       9.868760165692e-01 
       6.262716579983e+00       8.103488776972e-01 
       6.762325811764e+00       6.650048947136e-01 
       7.301791451110e+00       5.454224234823e-01 
       7.884293049406e+00       4.471017679759e-01 
       8.513263807261e+00       3.662937276923e-01 
       9.192410809424e+00       2.999397020258e-01 
       9.925736873929e+00       2.454771825933e-01 
       1.071756414427e+01       2.008056758278e-01 
       1.157255956364e+01       1.641816306288e-01 
       1.249576238137e+01       1.341742176563e-01 
       1.349261385375e+01       1.095995331465e-01 
       1.456898931416e+01       8.948483781789e-02 
       1.573123280165e+01       7.302956656194e-02 
       1.698619445202e+01       5.957333899870e-02 
       1.834127087176e+01       4.857568303848e-02 
       1.980444873285e+01       3.959117319703e-02 
       2.138435184532e+01       3.225445106052e-02 
       2.309029198506e+01       2.626662055414e-02 
       2.493232377636e+01       2.138094773121e-02 
       2.692130395282e+01       1.739652816758e-02 
       2.906895534573e+01       1.414854915439e-02 
       3.138793597714e+01       1.150171272443e-02 
       3.389191366484e+01       9.345630326344e-03 
       3.659564657905e+01       7.590040013531e-03 
       3.951507022538e+01       6.160939287182e-03 
       4.266739136701e+01       4.998022395009e-03 
       4.607118943941e+01       4.052023990162e-03 
       4.974652605557e+01       3.282777799352e-03 
       5.371506324689e+01       2.657358145318e-03 
       5.800019113685e+01       2.148967849558e-03 
       6.262716579983e+01       1.735899422215e-03 
       6.762325811764e+01       1.400272313067e-03 
