# Matter power spectrum P(k) at redshift z=0
# for k=1.04775e-05 to 67.6233 h/Mpc,
# number of wavenumbers equal to 246
#    1:k (h/Mpc)              2:P (Mpc/h)^3        
       1.047750691338e-05       5.020964806750e+01 
       1.131335172818e-05       5.407048206553e+01 
       1.221587619877e-05       5.822819063851e+01 
       1.319039970550e-05       6.270562589684e+01 
       1.424266598317e-05       6.752731788102e+01 
       1.537887697396e-05       7.271977200257e+01 
       1.660572938097e-05       7.831147241542e+01 
       1.793045413791e-05       8.433311815128e+01 
       1.936085902737e-05       9.081778242446e+01 
       2.090537469909e-05       9.780108061341e+01 
       2.257310435923e-05       1.053213197032e+02 
       2.437387742372e-05       1.134197377001e+02 
       2.631830745176e-05       1.221408202816e+02 
       2.841785470091e-05       1.315324720916e+02 
       3.068489367268e-05       1.416462093729e+02 
       3.313278604643e-05       1.525374500691e+02 
       3.577595943165e-05       1.642660687078e+02 
       3.862999240274e-05       1.768963504868e+02 
       4.171170631739e-05       1.904975992460e+02 
       4.503926445983e-05       2.051444490305e+02 
       4.863227909323e-05       2.209171463752e+02 
       5.251192705226e-05       2.379022222314e+02 
       5.670107455699e-05       2.561927926151e+02 
       6.122441198393e-05       2.758890441791e+02 
       6.610859938837e-05       2.970989225465e+02 
       7.138242363583e-05       3.199385558200e+02 
       7.707696806873e-05       3.445329780878e+02 
       8.322579570814e-05       3.710167315928e+02 
       8.986514707061e-05       3.995346440954e+02 
       9.703415376577e-05       4.302425403884e+02 
       1.047750691338e-04       4.633080762974e+02 
       1.131335172818e-04       4.989116267507e+02 
       1.221587619877e-04       5.372471946561e+02 
       1.319039970550e-04       5.785234124628e+02 
       1.424266598317e-04       6.229645930980e+02 
       1.537887697396e-04       6.708118484951e+02 
       1.660572938097e-04       7.223242660219e+02 
       1.793045413791e-04       7.777801553948e+02 
       1.936085902737e-04       8.374783607333e+02 
       2.090537469909e-04       9.017396264495e+02 
       2.257310435923e-04       9.709080260152e+02 
       2.437387742372e-04       1.045352448644e+03 
       2.631830745176e-04       1.125468122836e+03 
       2.841785470091e-04       1.211678179510e+03 
       3.068489367268e-04       1.304435249091e+03 
       3.313278604643e-04       1.404223052541e+03 
       3.577595943165e-04       1.511558013390e+03 
       3.862999240274e-04       1.626990836441e+03 
       4.171170631739e-04       1.751108027370e+03 
       4.503926445983e-04       1.884533381345e+03 
       4.863227909323e-04       2.027929376471e+03 
       5.251192705226e-04       2.181998446367e+03 
       5.670107455699e-04       2.347484100856e+03 
       6.122441198393e-04       2.525171869337e+03 
       6.610859938837e-04       2.715889981400e+03 
       7.138242363583e-04       2.920509686082e+03 
       7.707696806873e-04       3.139945097709e+03 
       8.322579570814e-04       3.375152334393e+03 
       8.986514707061e-04       3.627127828229e+03 
       9.703415376577e-04       3.896905450013e+03 
       1.047750691338e-03       4.185552170958e+03 
       1.131335172818e-03       4.494162426787e+03 
       1.221587619877e-03       4.823850702657e+03 
       1.319039970550e-03       5.175742735220e+03 
       1.424266598317e-03       5.551019592507e+03 
       1.537887697396e-03       5.950788335867e+03 
       1.660572938097e-03       6.376123046783e+03 
       1.793045413791e-03       6.828073896098e+03 
       1.936085902737e-03       7.307625375364e+03 
       2.090537469909e-03       7.815671850566e+03 
       2.257310435923e-03       8.352990369349e+03 
       2.437387742372e-03       8.920211057471e+03 
       2.631830745176e-03       9.517783061830e+03 
       2.841785470091e-03       1.014593703664e+04 
       3.068489367268e-03       1.080464505720e+04 
       3.313278604643e-03       1.149357459532e+04 
       3.577595943165e-03       1.221203620811e+04 
       3.862999240274e-03       1.295892538486e+04 
       4.171170631739e-03       1.373266002350e+04 
       4.503926445983e-03       1.453111834565e+04 
       4.863227909323e-03       1.535154983136e+04 
       5.251192705226e-03       1.619063606981e+04 
       5.670107455699e-03       1.704431256278e+04 
       6.122441198393e-03       1.790755942200e+04 
       6.610859938837e-03       1.877460419832e+04 
       7.138242363583e-03       1.963872441350e+04 
       7.707696806873e-03       2.049215713218e+04 
       8.322579570814e-03       2.132611020588e+04 
       8.986514707061e-03       2.213055066306e+04 
       9.703415376577e-03       2.289445517918e+04 
       1.047750691338e-02       2.360548663346e+04 
       1.131335172818e-02       2.425022757945e+04 
       1.221587619877e-02       2.481423935740e+04 
       1.319039970550e-02       2.528219059874e+04 
       1.424266598317e-02       2.563814250571e+04 
       1.537887697392e-02       2.586607777891e+04 
       1.660572938023e-02       2.595025564085e+04 
       1.793045412706e-02       2.587637069983e+04 
       1.936085890181e-02       2.563219589866e+04 
       2.090537352463e-02       2.520933433993e+04 
       2.257309535333e-02       2.460447406895e+04 
       2.437382002918e-02       2.382085995305e+04 
       2.631799944462e-02       2.287044390759e+04 
       2.841644545389e-02       2.177463480576e+04 
       3.067933355377e-02       2.056554638395e+04 
       3.311368470740e-02       1.928732273824e+04 
       3.571840443502e-02       1.799398517610e+04 
       3.847720348444e-02       1.674675044863e+04 
       4.135335538431e-02       1.560455415570e+04 
       4.429361667738e-02       1.461036186591e+04 
       4.724366439141e-02       1.378053616979e+04 
       5.016480835311e-02       1.310502672175e+04 
       5.303989620246e-02       1.255711461459e+04 
       5.586870669566e-02       1.210427925861e+04 
       5.866042680613e-02       1.171469376017e+04 
       6.142798932958e-02       1.136051377057e+04 
       6.418496440164e-02       1.101862063432e+04 
       6.694418833788e-02       1.067068541071e+04 
       6.971731106057e-02       1.030362563636e+04 
       7.251476155766e-02       9.909056278957e+03 
       7.534587671527e-02       9.483720388574e+03 
       7.821907666265e-02       9.029424932113e+03 
       8.114203772912e-02       8.552343412717e+03 
       8.412184535029e-02       8.061968836163e+03 
       8.716512279304e-02       7.570790421993e+03 
       9.027813695930e-02       7.092491829764e+03 
       9.346688431697e-02       6.640521241586e+03 
       9.673716028276e-02       6.226725394255e+03 
       1.000946150830e-01       5.859942201181e+03 
       1.035447986537e-01       5.545276975668e+03 
       1.070931966762e-01       5.283162033714e+03 
       1.107452594425e-01       5.069434756961e+03 
       1.145064249153e-01       4.895243871913e+03 
       1.183821370918e-01       4.747854174822e+03 
       1.223778605862e-01       4.611734850873e+03 
       1.264990921987e-01       4.470618846826e+03 
       1.307513701367e-01       4.310250987847e+03 
       1.351402814784e-01       4.121391034066e+03 
       1.396714684203e-01       3.902050911453e+03 
       1.443506338194e-01       3.658658109345e+03 
       1.491835465229e-01       3.404473318719e+03 
       1.541760469708e-01       3.156648023174e+03 
       1.593340535561e-01       2.931943910244e+03 
       1.646635702297e-01       2.742353894628e+03 
       1.701706958456e-01       2.592238322600e+03 
       1.758616357459e-01       2.477214200917e+03 
       1.817427160982e-01       2.385161170348e+03 
       1.878204015065e-01       2.300352276051e+03 
       1.941013164283e-01       2.205781597931e+03 
       2.005922709503e-01       2.090841470827e+03 
       2.073002914972e-01       1.956467180548e+03 
       2.142326570816e-01       1.814172550287e+03 
       2.213969417533e-01       1.679270605713e+03 
       2.288010639706e-01       1.563832133652e+03 
       2.364533437147e-01       1.472666086829e+03 
       2.443625682930e-01       1.401502873860e+03 
       2.525380679504e-01       1.338418333552e+03 
       2.609898026346e-01       1.270905117367e+03 
       2.697284615565e-01       1.193360110955e+03 
       2.787655775689e-01       1.109328761339e+03 
       2.881136588829e-01       1.028762034121e+03 
       2.977863412677e-01       9.604744660518e+02 
       3.077985646929e-01       9.050161220439e+02 
       3.181667794071e-01       8.561376638364e+02 
       3.289091877812e-01       8.061818869100e+02 
       3.400460299658e-01       7.523793224845e+02 
       3.515999236474e-01       6.989135567430e+02 
       3.635962711085e-01       6.510496076981e+02 
       3.760637506334e-01       6.101162625914e+02 
       3.890349143879e-01       5.721210303548e+02 
       4.025469216825e-01       5.337718032329e+02 
       4.166424456376e-01       4.956236541491e+02 
       4.313708035863e-01       4.604612197192e+02 
       4.467893782977e-01       4.287716760110e+02 
       4.629654199664e-01       3.987669045692e+02 
       4.799783501994e-01       3.692332653085e+02 
       4.979227319373e-01       3.412301259261e+02 
       5.169121270864e-01       3.154758898918e+02 
       5.370841404489e-01       2.908272018058e+02 
       5.586070464571e-01       2.670967631290e+02 
       5.816885094930e-01       2.447990870897e+02 
       6.065870144995e-01       2.235601378430e+02 
       6.336266468475e-01       2.032023704014e+02 
       6.632156059511e-01       1.838701674481e+02 
       6.958678639263e-01       1.653452437512e+02 
       7.322247985589e-01       1.476860881312e+02 
       7.730680195114e-01       1.308231987003e+02 
       8.193049553677e-01       1.148200351275e+02 
       8.718988016039e-01       9.975009062873e+01 
       9.317218031082e-01       8.576542754907e+01 
       9.993660908989e-01       7.304028590653e+01 
       1.075037110174e+00       6.172018542849e+01 
       1.158653485707e+00       5.186151469048e+01 
       1.250099157308e+00       4.342104944127e+01 
       1.349432401273e+00       3.626829610312e+01 
       1.456947457397e+00       3.024479831745e+01 
       1.573135111331e+00       2.518897473053e+01 
       1.698621895592e+00       2.095391848165e+01 
       1.834127512934e+00       1.741156289567e+01 
       1.980444934528e+00       1.445174404209e+01 
       2.138435191726e+00       1.198159922100e+01 
       2.309029199186e+00       9.922242084953e+00 
       2.493232377687e+00       8.206980537165e+00 
       2.692130395285e+00       6.779486100391e+00 
       2.906895534573e+00       5.592509142713e+00 
       3.138793597714e+00       4.606168560226e+00 
       3.389191366484e+00       3.787078312011e+00 
       3.659564657905e+00       3.107163737395e+00 
       3.951507022538e+00       2.543045341813e+00 
       4.266739136701e+00       2.075077792819e+00 
       4.607118943941e+00       1.686927178227e+00 
       4.974652605557e+00       1.364972130482e+00 
       5.371506324689e+00       1.097931069957e+00 
       5.800019113685e+00       8.764453632120e-01 
       6.262716579983e+00       6.927799193015e-01 
       6.762325811764e+00       5.406106043573e-01 
       7.301791451110e+00       4.148029789929e-01 
       7.884293049406e+00       3.111807996848e-01 
       8.513263807261e+00       2.264472584872e-01 
       9.192410809424e+00       1.580083736343e-01 
       9.925736873929e+00       1.038459736563e-01 
       1.071756414427e+01       6.240358154136e-02 
       1.157255956364e+01       3.243312415897e-02 
       1.249576238137e+01       1.283927421913e-02 
       1.349261385375e+01       2.500341641221e-03 
       1.456898931416e+01       7.937628397456e-05 
       1.573123280165e+01       3.857281604212e-03 
       1.698619445202e+01       1.163763283433e-02 
       1.834127087176e+01       2.079483287639e-02 
       1.980444873285e+01       2.853626401700e-02 
       2.138435184532e+01       3.240791515851e-02 
       2.309029198506e+01       3.097743304718e-02 
       2.493232377636e+01       2.447111576452e-02 
       2.692130395282e+01       1.499886932465e-02 
       2.906895534573e+01       5.984006364297e-03 
       3.138793597714e+01       7.091259148381e-04 
       3.389191366484e+01       4.924069420255e-04 
       3.659564657905e+01       3.672876465842e-03 
       3.951507022538e+01       6.558660756775e-03 
       4.266739136701e+01       6.240374230297e-03 
       4.607118943941e+01       3.125502456012e-03 
       4.974652605557e+01       3.871984389610e-04 
       5.371506324689e+01       2.706690521235e-04 
       5.800019113685e+01       1.480341673686e-03 
       6.262716579983e+01       1.457423210793e-03 
       6.762325811764e+01       3.421439274002e-04 
