# Matter power spectrum P(k) at redshift z=99
# for k=1.04775e-05 to 67.6233 h/Mpc,
# number of wavenumbers equal to 246
#    1:k (h/Mpc)              2:P (Mpc/h)^3        
       1.047750691338e-05       7.261927673119e-03 
       1.131335172818e-05       7.820331745737e-03 
       1.221587619877e-05       8.421675986489e-03 
       1.319039970550e-05       9.069258192194e-03 
       1.424266598317e-05       9.766638404421e-03 
       1.537887697396e-05       1.051764069682e-02 
       1.660572938097e-05       1.132639105520e-02 
       1.793045413791e-05       1.219733231416e-02 
       1.936085902737e-05       1.313524224380e-02 
       2.090537469909e-05       1.414527121893e-02 
       2.257310435923e-05       1.523296272192e-02 
       2.437387742372e-05       1.640429444530e-02 
       2.631830745176e-05       1.766569582178e-02 
       2.841785470091e-05       1.902408601793e-02 
       3.068489367268e-05       2.048692970591e-02 
       3.313278604643e-05       2.206225513594e-02 
       3.577595943165e-05       2.375870704909e-02 
       3.862999240274e-05       2.558560727479e-02 
       4.171170631739e-05       2.755297763344e-02 
       4.503926445983e-05       2.967161927314e-02 
       4.863227909323e-05       3.195316450832e-02 
       5.251192705226e-05       3.441013519284e-02 
       5.670107455699e-05       3.705601722530e-02 
       6.122441198393e-05       3.990533413563e-02 
       6.610859938837e-05       4.297372168203e-02 
       7.138242363583e-05       4.627802141688e-02 
       7.707696806873e-05       4.983636194159e-02 
       8.322579570814e-05       5.366826847231e-02 
       8.986514707061e-05       5.779476394569e-02 
       9.703415376577e-05       6.223848243885e-02 
       1.047750691338e-04       6.702379865640e-02 
       1.131335172818e-04       7.217695153381e-02 
       1.221587619877e-04       7.772619073572e-02 
       1.319039970550e-04       8.370193432376e-02 
       1.424266598317e-04       9.013692507548e-02 
       1.537887697396e-04       9.706641242570e-02 
       1.660572938097e-04       1.045283354271e-01 
       1.793045413791e-04       1.125635349068e-01 
       1.936085902737e-04       1.212159614968e-01 
       2.090537469909e-04       1.305329132714e-01 
       2.257310435923e-04       1.405652846215e-01 
       2.437387742372e-04       1.513678302540e-01 
       2.631830745176e-04       1.629994504870e-01 
       2.841785470091e-04       1.755234921224e-01 
       3.068489367268e-04       1.890080670413e-01 
       3.313278604643e-04       2.035264002435e-01 
       3.577595943165e-04       2.191571803681e-01 
       3.862999240274e-04       2.359849437593e-01 
       4.171170631739e-04       2.541004741539e-01 
       4.503926445983e-04       2.736012080278e-01 
       4.863227909323e-04       2.945916790965e-01 
       5.251192705226e-04       3.171839525182e-01 
       5.670107455699e-04       3.414980764002e-01 
       6.122441198393e-04       3.676625413100e-01 
       6.610859938837e-04       3.958147252304e-01 
       7.138242363583e-04       4.261013284906e-01 
       7.707696806873e-04       4.586787792354e-01 
       8.322579570814e-04       4.937136001343e-01 
       8.986514707061e-04       5.313826801402e-01 
       9.703415376577e-04       5.718734972157e-01 
       1.047750691338e-03       6.153841629505e-01 
       1.131335172818e-03       6.621233239466e-01 
       1.221587619877e-03       7.123098220425e-01 
       1.319039970550e-03       7.661720584196e-01 
       1.424266598317e-03       8.239546297727e-01 
       1.537887697396e-03       8.859011173466e-01 
       1.660572938097e-03       9.522588006420e-01 
       1.793045413791e-03       1.023280099819e+00 
       1.936085902737e-03       1.099216304579e+00 
       2.090537469909e-03       1.180312990453e+00 
       2.257310435923e-03       1.266804115853e+00 
       2.437387742372e-03       1.358904853409e+00 
       2.631830745176e-03       1.456802683156e+00 
       2.841785470091e-03       1.560646890522e+00 
       3.068489367268e-03       1.670536062500e+00 
       3.313278604643e-03       1.786503852162e+00 
       3.577595943165e-03       1.908502930789e+00 
       3.862999240274e-03       2.036387730709e+00 
       4.171170631739e-03       2.169896178736e+00 
       4.503926445983e-03       2.308631878994e+00 
       4.863227909323e-03       2.452047290962e+00 
       5.251192705226e-03       2.599430628088e+00 
       5.670107455699e-03       2.749896931808e+00 
       6.122441198393e-03       2.902386513385e+00 
       6.610859938837e-03       3.055668681145e+00 
       7.138242363583e-03       3.208356461545e+00 
       7.707696806873e-03       3.358923892866e+00 
       8.322579570814e-03       3.505725595220e+00 
       8.986514707061e-03       3.647009945455e+00 
       9.703415376577e-03       3.780923304297e+00 
       1.047750691338e-02       3.905491113186e+00 
       1.131335172818e-02       4.018587641377e+00 
       1.221587619877e-02       4.117901585213e+00 
       1.319039970550e-02       4.200915393637e+00 
       1.424266598317e-02       4.264942518619e+00 
       1.537887697392e-02       4.307221925188e+00 
       1.660572938023e-02       4.325067379129e+00 
       1.793045412706e-02       4.316057039855e+00 
       1.936085890181e-02       4.278226633034e+00 
       2.090537352463e-02       4.210202334395e+00 
       2.257309535333e-02       4.111411645207e+00 
       2.437382002918e-02       3.982418861345e+00 
       2.631799944462e-02       3.825166078072e+00 
       2.841644545389e-02       3.643288789632e+00 
       3.067933355377e-02       3.442190538606e+00 
       3.311368470740e-02       3.229243963891e+00 
       3.571840443502e-02       3.013509089759e+00 
       3.847720348444e-02       2.805281029836e+00 
       4.135335538431e-02       2.614413469411e+00 
       4.429361667738e-02       2.448139205128e+00 
       4.724366439141e-02       2.309241734956e+00 
       5.016480835311e-02       2.196111959921e+00 
       5.303989620246e-02       2.104363522869e+00 
       5.586870669566e-02       2.028460680789e+00 
       5.866042680613e-02       1.963151496172e+00 
       6.142798932958e-02       1.903780654357e+00 
       6.418496440164e-02       1.846475898627e+00 
       6.694418833788e-02       1.788196267020e+00 
       6.971731106057e-02       1.726717329557e+00 
       7.251476155766e-02       1.660653425998e+00 
       7.534587671527e-02       1.589470867989e+00 
       7.821907666265e-02       1.513438517182e+00 
       8.114203772912e-02       1.433569133522e+00 
       8.412184535029e-02       1.351495295804e+00 
       8.716512279304e-02       1.269274895937e+00 
       9.027813695930e-02       1.189193737429e+00 
       9.346688431697e-02       1.113500862307e+00 
       9.673716028276e-02       1.044174004141e+00 
       1.000946150830e-01       9.827070687867e-01 
       1.035447986537e-01       9.299348668296e-01 
       1.070931966762e-01       8.859565763579e-01 
       1.107452594425e-01       8.500742282404e-01 
       1.145064249153e-01       8.208021714161e-01 
       1.183821370918e-01       7.960240260149e-01 
       1.223778605862e-01       7.731452509337e-01 
       1.264990921987e-01       7.494519346713e-01 
       1.307513701367e-01       7.225572636532e-01 
       1.351402814784e-01       6.909084767197e-01 
       1.396714684203e-01       6.541811978602e-01 
       1.443506338194e-01       6.134273752640e-01 
       1.491835465229e-01       5.708687977490e-01 
       1.541760469708e-01       5.293642512141e-01 
       1.593340535561e-01       4.917107795831e-01 
       1.646635702297e-01       4.599195778766e-01 
       1.701706958456e-01       4.347287558838e-01 
       1.758616357459e-01       4.154090421456e-01 
       1.817427160982e-01       3.999369066278e-01 
       1.878204015065e-01       3.856826507246e-01 
       1.941013164283e-01       3.698094162885e-01 
       2.005922709503e-01       3.505468987979e-01 
       2.073002914972e-01       3.280430827138e-01 
       2.142326570816e-01       3.042139596421e-01 
       2.213969417533e-01       2.816121161117e-01 
       2.288010639706e-01       2.622575730685e-01 
       2.364533437147e-01       2.469619576143e-01 
       2.443625682930e-01       2.350130553501e-01 
       2.525380679504e-01       2.244179054084e-01 
       2.609898026346e-01       2.130937490046e-01 
       2.697284615565e-01       2.001015574014e-01 
       2.787655775689e-01       1.860197901635e-01 
       2.881136588829e-01       1.725175834824e-01 
       2.977863412677e-01       1.610662780620e-01 
       3.077985646929e-01       1.517610683571e-01 
       3.181667794071e-01       1.435595016018e-01 
       3.289091877812e-01       1.351813634675e-01 
       3.400460299658e-01       1.261643648208e-01 
       3.515999236474e-01       1.172020389096e-01 
       3.635962711085e-01       1.091769001998e-01 
       3.760637506334e-01       1.023094860013e-01 
       3.890349143879e-01       9.593779810154e-02 
       4.025469216825e-01       8.950766093913e-02 
       4.166424456376e-01       8.311167874529e-02 
       4.313708035863e-01       7.721567768403e-02 
       4.467893782977e-01       7.190074501808e-02 
       4.629654199664e-01       6.686904942023e-02 
       4.799783501994e-01       6.191738078192e-02 
       4.979227319373e-01       5.722242063803e-02 
       5.169121270864e-01       5.290294527948e-02 
       5.370841404489e-01       4.876989892403e-02 
       5.586070464571e-01       4.479090305253e-02 
       5.816885094930e-01       4.105194915968e-02 
       6.065870144995e-01       3.748988729665e-02 
       6.336266468475e-01       3.407634946262e-02 
       6.632156059511e-01       3.083466191432e-02 
       6.958678639263e-01       2.772828726187e-02 
       7.322247985589e-01       2.476716680520e-02 
       7.730680195114e-01       2.193963225969e-02 
       8.193049553677e-01       1.925610134360e-02 
       8.718988016039e-01       1.672921691136e-02 
       9.317218031082e-01       1.438424759645e-02 
       9.993660908989e-01       1.225063687912e-02 
       1.075037110174e+00       1.035262838839e-02 
       1.158653485707e+00       8.699701950898e-03 
       1.250099157308e+00       7.284615325361e-03 
       1.349432401273e+00       6.085447092259e-03 
       1.456947457397e+00       5.075726981432e-03 
       1.573135111331e+00       4.228307578517e-03 
       1.698621895592e+00       3.518552879986e-03 
       1.834127512934e+00       2.924986392748e-03 
       1.980444934528e+00       2.429162196229e-03 
       2.138435191726e+00       2.015510523910e-03 
       2.309029199186e+00       1.670770789543e-03 
       2.493232377687e+00       1.383794601100e-03 
       2.692130395285e+00       1.145124844687e-03 
       2.906895534573e+00       9.468537510710e-04 
       3.138793597714e+00       7.822854777428e-04 
       3.389191366484e+00       6.458179299530e-04 
       3.659564657905e+00       5.327651627527e-04 
       3.951507022538e+00       4.391817855934e-04 
       4.266739136701e+00       3.617853116375e-04 
       4.607118943941e+00       2.978226075303e-04 
       4.974652605557e+00       2.450107200378e-04 
       5.371506324689e+00       2.014311376216e-04 
       5.800019113685e+00       1.655025849424e-04 
       6.262716579983e+00       1.358972799095e-04 
       6.762325811764e+00       1.115235228950e-04 
       7.301791451110e+00       9.146935913628e-05 
       7.884293049406e+00       7.497857322341e-05 
       8.513263807261e+00       6.142787441676e-05 
       9.192410809424e+00       5.029908772513e-05 
       9.925736873929e+00       4.116494676613e-05 
       1.071756414427e+01       3.367235799564e-05 
       1.157255956364e+01       2.752949202017e-05 
       1.249576238137e+01       2.249603000248e-05 
       1.349261385375e+01       1.837353614421e-05 
       1.456898931416e+01       1.499897513321e-05 
       1.573123280165e+01       1.223788996115e-05 
       1.698619445202e+01       9.979730663987e-06 
       1.834127087176e+01       8.133738028025e-06 
       1.980444873285e+01       6.625264243195e-06 
       2.138435184532e+01       5.393021252355e-06 
       2.309029198506e+01       4.386822280094e-06 
       2.493232377636e+01       3.565404940513e-06 
       2.692130395282e+01       2.895052238554e-06 
       2.906895534573e+01       2.348092087534e-06 
       3.138793597714e+01       1.901854021700e-06 
       3.389191366484e+01       1.537836337757e-06 
       3.659564657905e+01       1.240912329155e-06 
       3.951507022538e+01       9.986895709265e-07 
       4.266739136701e+01       8.011007659430e-07 
       4.607118943941e+01       6.399032174680e-07 
       4.974652605557e+01       5.083829245283e-07 
       5.371506324689e+01       4.011070993929e-07 
       5.800019113685e+01       3.136483988540e-07 
       6.262716579983e+01       2.424323771285e-07 
       6.762325811764e+01       1.845797377994e-07 
