# Matter power spectrum P(k) at redshift z=0
# for k=1.04775e-05 to 67.6233 h/Mpc,
# number of wavenumbers equal to 246
#    1:k (h/Mpc)              2:P (Mpc/h)^3        
       1.047750691338e-05       5.020964806749e+01 
       1.131335172818e-05       5.407048206554e+01 
       1.221587619877e-05       5.822819063858e+01 
       1.319039970550e-05       6.270562589678e+01 
       1.424266598317e-05       6.752731788102e+01 
       1.537887697396e-05       7.271977200258e+01 
       1.660572938097e-05       7.831147241542e+01 
       1.793045413791e-05       8.433311815128e+01 
       1.936085902737e-05       9.081778242446e+01 
       2.090537469909e-05       9.780108061341e+01 
       2.257310435923e-05       1.053213197032e+02 
       2.437387742372e-05       1.134197377001e+02 
       2.631830745176e-05       1.221408202816e+02 
       2.841785470091e-05       1.315324720916e+02 
       3.068489367268e-05       1.416462093730e+02 
       3.313278604643e-05       1.525374500691e+02 
       3.577595943165e-05       1.642660687078e+02 
       3.862999240274e-05       1.768963504868e+02 
       4.171170631739e-05       1.904975992460e+02 
       4.503926445983e-05       2.051444490305e+02 
       4.863227909323e-05       2.209171463752e+02 
       5.251192705226e-05       2.379022222314e+02 
       5.670107455699e-05       2.561927925454e+02 
       6.122441198393e-05       2.758890441791e+02 
       6.610859938837e-05       2.970989225466e+02 
       7.138242363583e-05       3.199385558200e+02 
       7.707696806873e-05       3.445329780878e+02 
       8.322579570814e-05       3.710167315928e+02 
       8.986514707061e-05       3.995346440954e+02 
       9.703415376577e-05       4.302425403884e+02 
       1.047750691338e-04       4.633080762974e+02 
       1.131335172818e-04       4.989116267507e+02 
       1.221587619877e-04       5.372471946561e+02 
       1.319039970550e-04       5.785234124632e+02 
       1.424266598317e-04       6.229645930980e+02 
       1.537887697396e-04       6.708118484951e+02 
       1.660572938097e-04       7.223242660220e+02 
       1.793045413791e-04       7.777801552921e+02 
       1.936085902737e-04       8.374783607334e+02 
       2.090537469909e-04       9.017396264495e+02 
       2.257310435923e-04       9.709080260152e+02 
       2.437387742372e-04       1.045352448644e+03 
       2.631830745176e-04       1.125468122836e+03 
       2.841785470091e-04       1.211678179511e+03 
       3.068489367268e-04       1.304435249091e+03 
       3.313278604643e-04       1.404223052541e+03 
       3.577595943165e-04       1.511558013390e+03 
       3.862999240274e-04       1.626990836516e+03 
       4.171170631739e-04       1.751108027370e+03 
       4.503926445983e-04       1.884533381345e+03 
       4.863227909323e-04       2.027929376471e+03 
       5.251192705226e-04       2.181998446367e+03 
       5.670107455699e-04       2.347484100857e+03 
       6.122441198393e-04       2.525171869337e+03 
       6.610859938837e-04       2.715889981401e+03 
       7.138242363583e-04       2.920509686091e+03 
       7.707696806873e-04       3.139945097711e+03 
       8.322579570814e-04       3.375152334396e+03 
       8.986514707061e-04       3.627127828231e+03 
       9.703415376577e-04       3.896905450016e+03 
       1.047750691338e-03       4.185552170959e+03 
       1.131335172818e-03       4.494162426791e+03 
       1.221587619877e-03       4.823850702664e+03 
       1.319039970550e-03       5.175742739581e+03 
       1.424266598317e-03       5.551019592518e+03 
       1.537887697396e-03       5.950788335885e+03 
       1.660572938097e-03       6.376123046782e+03 
       1.793045413791e-03       6.828073896116e+03 
       1.936085902737e-03       7.307625375386e+03 
       2.090537469909e-03       7.815671908413e+03 
       2.257310435923e-03       8.352990369400e+03 
       2.437387742372e-03       8.920211057543e+03 
       2.631830745176e-03       9.517783061888e+03 
       2.841785470091e-03       1.014593703671e+04 
       3.068489367268e-03       1.080464505738e+04 
       3.313278604643e-03       1.149357459476e+04 
       3.577595943165e-03       1.221203620826e+04 
       3.862999240274e-03       1.295892538505e+04 
       4.171170631739e-03       1.373266002336e+04 
       4.503926445983e-03       1.453111834594e+04 
       4.863227909323e-03       1.535154984188e+04 
       5.251192705226e-03       1.619063613208e+04 
       5.670107455699e-03       1.704431256594e+04 
       6.122441198393e-03       1.790755938580e+04 
       6.610859938837e-03       1.877460418418e+04 
       7.138242363583e-03       1.963872429532e+04 
       7.707696806873e-03       2.049215713684e+04 
       8.322579570814e-03       2.132606824433e+04 
       8.986514707061e-03       2.213055012275e+04 
       9.703415376577e-03       2.289445472537e+04 
       1.047750691338e-02       2.360548712260e+04 
       1.131335172818e-02       2.425022853216e+04 
       1.221587619877e-02       2.481423923956e+04 
       1.319039970550e-02       2.528218784418e+04 
       1.424266598317e-02       2.563814386770e+04 
       1.537887697392e-02       2.586606655918e+04 
       1.660572938023e-02       2.595028110460e+04 
       1.793045412706e-02       2.587634032459e+04 
       1.936085890181e-02       2.563219541529e+04 
       2.090537352463e-02       2.520936802352e+04 
       2.257309535333e-02       2.460449613022e+04 
       2.437382002918e-02       2.382085712525e+04 
       2.631799944462e-02       2.287042762935e+04 
       2.841644545389e-02       2.177447573382e+04 
       3.067933355377e-02       2.056552339607e+04 
       3.311368470740e-02       1.928727977382e+04 
       3.571840443502e-02       1.799400483403e+04 
       3.847720348444e-02       1.674684520048e+04 
       4.135335538431e-02       1.560459678328e+04 
       4.429361667738e-02       1.461041826335e+04 
       4.724366439141e-02       1.378055028144e+04 
       5.016480835311e-02       1.310504305450e+04 
       5.303989620246e-02       1.255716188422e+04 
       5.586870669566e-02       1.210427195391e+04 
       5.866042680613e-02       1.171463919618e+04 
       6.142798932958e-02       1.136054950203e+04 
       6.418496440164e-02       1.101852760971e+04 
       6.694418833788e-02       1.067066391201e+04 
       6.971731106057e-02       1.030359826647e+04 
       7.251476155766e-02       9.908959742338e+03 
       7.534587671527e-02       9.483786316993e+03 
       7.821907666265e-02       9.029467580938e+03 
       8.114203772912e-02       8.552290606771e+03 
       8.412184535029e-02       8.061949486760e+03 
       8.716512279304e-02       7.570716062677e+03 
       9.027813695930e-02       7.092541251119e+03 
       9.346688431697e-02       6.640457463403e+03 
       9.673716028276e-02       6.226709646964e+03 
       1.000946150830e-01       5.859944214599e+03 
       1.035447986537e-01       5.545210841722e+03 
       1.070931966762e-01       5.283105589625e+03 
       1.107452594425e-01       5.069427566626e+03 
       1.145064249153e-01       4.895265218183e+03 
       1.183821370918e-01       4.747828419880e+03 
       1.223778605862e-01       4.611722085822e+03 
       1.264990921987e-01       4.470611626090e+03 
       1.307513701367e-01       4.310258584190e+03 
       1.351402814784e-01       4.121373265943e+03 
       1.396714684203e-01       3.902037046823e+03 
       1.443506338194e-01       3.658630454520e+03 
       1.491835465229e-01       3.404469222696e+03 
       1.541760469708e-01       3.156661603861e+03 
       1.593340535561e-01       2.931954506739e+03 
       1.646635702297e-01       2.742360479059e+03 
       1.701706958456e-01       2.592248011768e+03 
       1.758616357459e-01       2.477221068980e+03 
       1.817427160982e-01       2.385163423959e+03 
       1.878204015065e-01       2.300337846658e+03 
       1.941013164283e-01       2.205742111414e+03 
       2.005922709503e-01       2.090796191637e+03 
       2.073002914972e-01       1.956444660754e+03 
       2.142326570816e-01       1.814166395541e+03 
       2.213969417533e-01       1.679268089804e+03 
       2.288010639706e-01       1.563820699507e+03 
       2.364533437147e-01       1.472659570111e+03 
       2.443625682930e-01       1.401479321976e+03 
       2.525380679504e-01       1.338381600450e+03 
       2.609898026346e-01       1.270861454893e+03 
       2.697284615565e-01       1.193342822463e+03 
       2.787655775689e-01       1.109296715927e+03 
       2.881136588829e-01       1.028724922018e+03 
       2.977863412677e-01       9.604370572075e+02 
       3.077985646929e-01       9.049757800852e+02 
       3.181667794071e-01       8.560942245187e+02 
       3.289091877812e-01       8.061356665721e+02 
       3.400460299658e-01       7.523342284851e+02 
       3.515999236474e-01       6.988627571706e+02 
       3.635962711085e-01       6.509999585167e+02 
       3.760637506334e-01       6.100569088636e+02 
       3.890349143879e-01       5.720625901674e+02 
       4.025469216825e-01       5.337072935029e+02 
       4.166424456376e-01       4.955526357526e+02 
       4.313708035863e-01       4.603850292234e+02 
       4.467893782977e-01       4.286904528923e+02 
       4.629654199664e-01       3.986817190881e+02 
       4.799783501994e-01       3.691433951428e+02 
       4.979227319373e-01       3.411372151403e+02 
       5.169121270864e-01       3.153742561338e+02 
       5.370841404489e-01       2.907200483073e+02 
       5.586070464571e-01       2.669845359832e+02 
       5.816885094930e-01       2.446805232572e+02 
       6.065870144995e-01       2.234301666682e+02 
       6.336266468475e-01       2.030650735493e+02 
       6.632156059511e-01       1.837234257944e+02 
       6.958678639263e-01       1.651887460258e+02 
       7.322247985589e-01       1.475173244893e+02 
       7.730680195114e-01       1.306419969224e+02 
       8.193049553677e-01       1.146239230426e+02 
       8.718988016039e-01       9.953738848839e+01 
       9.317218031082e-01       8.553282441349e+01 
       9.993660908989e-01       7.278643695140e+01 
       1.075037110174e+00       6.144157929347e+01 
       1.158653485707e+00       5.155634098779e+01 
       1.250099157308e+00       4.308601875566e+01 
       1.349432401273e+00       3.590183594549e+01 
       1.456947457397e+00       2.984424819844e+01 
       1.573135111331e+00       2.475234654164e+01 
       1.698621895592e+00       2.047935340515e+01 
       1.834127512934e+00       1.689704234895e+01 
       1.980444934528e+00       1.389579053948e+01 
       2.138435191726e+00       1.138301563209e+01 
       2.309029199186e+00       9.280296512870e+00 
       2.493232377687e+00       7.521605332743e+00 
       2.692130395285e+00       6.051607356765e+00 
       2.906895534573e+00       4.824215070822e+00 
       3.138793597714e+00       3.800918213470e+00 
       3.389191366484e+00       2.950036323569e+00 
       3.659564657905e+00       2.245598287991e+00 
       3.951507022538e+00       1.666462632366e+00 
       4.266739136701e+00       1.195553392560e+00 
       4.607118943941e+00       8.191150869798e-01 
       4.974652605557e+00       5.259570727403e-01 
       5.371506324689e+00       3.067113081527e-01 
       5.800019113685e+00       1.530460716476e-01 
       6.262716579983e+00       5.683401468290e-02 
       6.762325811764e+00       9.410888753340e-03 
       7.301791451110e+00       9.424077618621e-04 
       7.884293049406e+00       2.013148056338e-02 
       8.513263807261e+00       5.444382688220e-02 
       9.192410809424e+00       9.100245851164e-02 
       9.925736873929e+00       1.182106073964e-01 
       1.071756414427e+01       1.278466681922e-01 
       1.157255956364e+01       1.170815234088e-01 
       1.249576238137e+01       8.948961950173e-02 
       1.349261385375e+01       5.418273016222e-02 
       1.456898931416e+01       2.262227552227e-02 
       1.573123280165e+01       3.875261667394e-03 
       1.698619445202e+01       3.859492224511e-04 
       1.834127087176e+01       6.923710062369e-03 
       1.980444873285e+01       1.412068734993e-02 
       2.138435184532e+01       1.490491535574e-02 
       2.309029198506e+01       9.176640255408e-03 
       2.493232377636e+01       2.535395697666e-03 
       2.692130395282e+01       2.266634013237e-06 
       2.906895534573e+01       1.190005080369e-03 
       3.138793597714e+01       2.211893212179e-03 
       3.389191366484e+01       1.286440370361e-03 
       3.659564657905e+01       1.319123911254e-04 
       3.951507022538e+01       1.089557019242e-04 
       4.266739136701e+01       3.312973743979e-04 
       4.607118943941e+01       1.248565727572e-04 
       4.974652605557e+01       9.034136335997e-07 
       5.371506324689e+01       4.984278808032e-05 
       5.800019113685e+01       1.809860788337e-05 
       6.262716579983e+01       1.518651763360e-06 
       6.762325811764e+01       6.983898787335e-06 
