# Matter power spectrum P(k) at redshift z=99
# for k=1.04775e-05 to 67.6233 h/Mpc,
# number of wavenumbers equal to 246
#    1:k (h/Mpc)              2:P (Mpc/h)^3        
       1.047750691338e-05       7.261927673119e-03 
       1.131335172818e-05       7.820331745737e-03 
       1.221587619877e-05       8.421675986488e-03 
       1.319039970550e-05       9.069258192194e-03 
       1.424266598317e-05       9.766638404421e-03 
       1.537887697396e-05       1.051764069682e-02 
       1.660572938097e-05       1.132639105520e-02 
       1.793045413791e-05       1.219733231416e-02 
       1.936085902737e-05       1.313524224380e-02 
       2.090537469909e-05       1.414527121893e-02 
       2.257310435923e-05       1.523296272192e-02 
       2.437387742372e-05       1.640429444530e-02 
       2.631830745176e-05       1.766569582178e-02 
       2.841785470091e-05       1.902408601793e-02 
       3.068489367268e-05       2.048692970591e-02 
       3.313278604643e-05       2.206225513594e-02 
       3.577595943165e-05       2.375870704909e-02 
       3.862999240274e-05       2.558560727479e-02 
       4.171170631739e-05       2.755297763344e-02 
       4.503926445983e-05       2.967161927315e-02 
       4.863227909323e-05       3.195316450832e-02 
       5.251192705226e-05       3.441013519284e-02 
       5.670107455699e-05       3.705601722529e-02 
       6.122441198393e-05       3.990533413562e-02 
       6.610859938837e-05       4.297372168203e-02 
       7.138242363583e-05       4.627802141688e-02 
       7.707696806873e-05       4.983636194159e-02 
       8.322579570814e-05       5.366826847231e-02 
       8.986514707061e-05       5.779476394569e-02 
       9.703415376577e-05       6.223848243885e-02 
       1.047750691338e-04       6.702379865640e-02 
       1.131335172818e-04       7.217695153381e-02 
       1.221587619877e-04       7.772619073573e-02 
       1.319039970550e-04       8.370193432376e-02 
       1.424266598317e-04       9.013692507548e-02 
       1.537887697396e-04       9.706641242570e-02 
       1.660572938097e-04       1.045283354271e-01 
       1.793045413791e-04       1.125635349068e-01 
       1.936085902737e-04       1.212159614968e-01 
       2.090537469909e-04       1.305329132714e-01 
       2.257310435923e-04       1.405652846215e-01 
       2.437387742372e-04       1.513678302540e-01 
       2.631830745176e-04       1.629994504870e-01 
       2.841785470091e-04       1.755234921224e-01 
       3.068489367268e-04       1.890080670413e-01 
       3.313278604643e-04       2.035264002435e-01 
       3.577595943165e-04       2.191571803681e-01 
       3.862999240274e-04       2.359849437593e-01 
       4.171170631739e-04       2.541004741539e-01 
       4.503926445983e-04       2.736012080277e-01 
       4.863227909323e-04       2.945916790965e-01 
       5.251192705226e-04       3.171839525183e-01 
       5.670107455699e-04       3.414980764002e-01 
       6.122441198393e-04       3.676625413100e-01 
       6.610859938837e-04       3.958147252303e-01 
       7.138242363583e-04       4.261013284908e-01 
       7.707696806873e-04       4.586787792351e-01 
       8.322579570814e-04       4.937136001368e-01 
       8.986514707061e-04       5.313826801401e-01 
       9.703415376577e-04       5.718734972157e-01 
       1.047750691338e-03       6.153841629505e-01 
       1.131335172818e-03       6.621233239465e-01 
       1.221587619877e-03       7.123098220428e-01 
       1.319039970550e-03       7.661720584735e-01 
       1.424266598317e-03       8.239546297730e-01 
       1.537887697396e-03       8.859011173466e-01 
       1.660572938097e-03       9.522588006422e-01 
       1.793045413791e-03       1.023280099819e+00 
       1.936085902737e-03       1.099216304579e+00 
       2.090537469909e-03       1.180312990454e+00 
       2.257310435923e-03       1.266804115852e+00 
       2.437387742372e-03       1.358904853405e+00 
       2.631830745176e-03       1.456802683156e+00 
       2.841785470091e-03       1.560646890522e+00 
       3.068489367268e-03       1.670536062500e+00 
       3.313278604643e-03       1.786503852160e+00 
       3.577595943165e-03       1.908502930789e+00 
       3.862999240274e-03       2.036387730709e+00 
       4.171170631739e-03       2.169896178265e+00 
       4.503926445983e-03       2.308631878994e+00 
       4.863227909323e-03       2.452047290962e+00 
       5.251192705226e-03       2.599430628088e+00 
       5.670107455699e-03       2.749896931805e+00 
       6.122441198393e-03       2.902386513384e+00 
       6.610859938837e-03       3.055668702801e+00 
       7.138242363583e-03       3.208356461542e+00 
       7.707696806873e-03       3.358923893059e+00 
       8.322579570814e-03       3.505725595021e+00 
       8.986514707061e-03       3.647009573936e+00 
       9.703415376577e-03       3.780923304290e+00 
       1.047750691338e-02       3.905490833192e+00 
       1.131335172818e-02       4.018588040476e+00 
       1.221587619877e-02       4.117901584424e+00 
       1.319039970550e-02       4.200915318565e+00 
       1.424266598317e-02       4.264942483436e+00 
       1.537887697392e-02       4.307220997405e+00 
       1.660572938023e-02       4.325062061904e+00 
       1.793045412706e-02       4.316057440928e+00 
       1.936085890181e-02       4.278230377058e+00 
       2.090537352463e-02       4.210202973885e+00 
       2.257309535333e-02       4.111418904912e+00 
       2.437382002918e-02       3.982422131389e+00 
       2.631799944462e-02       3.825169942389e+00 
       2.841644545389e-02       3.643275413567e+00 
       3.067933355377e-02       3.442192575062e+00 
       3.311368470740e-02       3.229236031824e+00 
       3.571840443502e-02       3.013520325802e+00 
       3.847720348444e-02       2.805288067344e+00 
       4.135335538431e-02       2.614412325989e+00 
       4.429361667738e-02       2.448136401272e+00 
       4.724366439141e-02       2.309236686733e+00 
       5.016480835311e-02       2.196118411610e+00 
       5.303989620246e-02       2.104364253374e+00 
       5.586870669566e-02       2.028465163566e+00 
       5.866042680613e-02       1.963153802418e+00 
       6.142798932958e-02       1.903783403009e+00 
       6.418496440164e-02       1.846481151576e+00 
       6.694418833788e-02       1.788198257975e+00 
       6.971731106057e-02       1.726717058109e+00 
       7.251476155766e-02       1.660652492093e+00 
       7.534587671527e-02       1.589471065199e+00 
       7.821907666265e-02       1.513440568278e+00 
       8.114203772912e-02       1.433568248856e+00 
       8.412184535029e-02       1.351494080329e+00 
       8.716512279304e-02       1.269275661966e+00 
       9.027813695930e-02       1.189193152501e+00 
       9.346688431697e-02       1.113502371015e+00 
       9.673716028276e-02       1.044179091893e+00 
       1.000946150830e-01       9.827058306700e-01 
       1.035447986537e-01       9.299368706511e-01 
       1.070931966762e-01       8.859597368310e-01 
       1.107452594425e-01       8.500712844215e-01 
       1.145064249153e-01       8.208030003996e-01 
       1.183821370918e-01       7.960232053194e-01 
       1.223778605862e-01       7.731451776443e-01 
       1.264990921987e-01       7.494513069477e-01 
       1.307513701367e-01       7.225578633662e-01 
       1.351402814784e-01       6.909091889975e-01 
       1.396714684203e-01       6.541828313627e-01 
       1.443506338194e-01       6.134268408496e-01 
       1.491835465229e-01       5.708675040374e-01 
       1.541760469708e-01       5.293638210902e-01 
       1.593340535561e-01       4.917110555418e-01 
       1.646635702297e-01       4.599204230240e-01 
       1.701706958456e-01       4.347283903063e-01 
       1.758616357459e-01       4.154088282638e-01 
       1.817427160982e-01       3.999366010146e-01 
       1.878204015065e-01       3.856821887527e-01 
       1.941013164283e-01       3.698095951550e-01 
       2.005922709503e-01       3.505469706996e-01 
       2.073002914972e-01       3.280438433814e-01 
       2.142326570816e-01       3.042134069541e-01 
       2.213969417533e-01       2.816127411897e-01 
       2.288010639706e-01       2.622570182505e-01 
       2.364533437147e-01       2.469620788413e-01 
       2.443625682930e-01       2.350131490639e-01 
       2.525380679504e-01       2.244180336326e-01 
       2.609898026346e-01       2.130941954625e-01 
       2.697284615565e-01       2.001015345206e-01 
       2.787655775689e-01       1.860198615143e-01 
       2.881136588829e-01       1.725174726494e-01 
       2.977863412677e-01       1.610659724919e-01 
       3.077985646929e-01       1.517614270960e-01 
       3.181667794071e-01       1.435591173049e-01 
       3.289091877812e-01       1.351815373779e-01 
       3.400460299658e-01       1.261646332232e-01 
       3.515999236474e-01       1.172020024771e-01 
       3.635962711085e-01       1.091768429300e-01 
       3.760637506334e-01       1.023096280459e-01 
       3.890349143879e-01       9.593767745936e-02 
       4.025469216825e-01       8.950782042989e-02 
       4.166424456376e-01       8.311190794795e-02 
       4.313708035863e-01       7.721545438274e-02 
       4.467893782977e-01       7.190078311711e-02 
       4.629654199664e-01       6.686897140389e-02 
       4.799783501994e-01       6.191749674533e-02 
       4.979227319373e-01       5.722223416500e-02 
       5.169121270864e-01       5.290278889356e-02 
       5.370841404489e-01       4.876976849152e-02 
       5.586070464571e-01       4.479081422515e-02 
       5.816885094930e-01       4.105193266832e-02 
       6.065870144995e-01       3.748993214433e-02 
       6.336266468475e-01       3.407623054421e-02 
       6.632156059511e-01       3.083466040796e-02 
       6.958678639263e-01       2.772845729072e-02 
       7.322247985589e-01       2.476720984432e-02 
       7.730680195114e-01       2.193955627992e-02 
       8.193049553677e-01       1.925611227403e-02 
       8.718988016039e-01       1.672923959106e-02 
       9.317218031082e-01       1.438423229436e-02 
       9.993660908989e-01       1.225069534569e-02 
       1.075037110174e+00       1.035259626560e-02 
       1.158653485707e+00       8.699730450379e-03 
       1.250099157308e+00       7.284591855533e-03 
       1.349432401273e+00       6.085470180129e-03 
       1.456947457397e+00       5.075713177061e-03 
       1.573135111331e+00       4.228283950542e-03 
       1.698621895592e+00       3.518536815502e-03 
       1.834127512934e+00       2.924985655632e-03 
       1.980444934528e+00       2.429171567115e-03 
       2.138435191726e+00       2.015501756242e-03 
       2.309029199186e+00       1.670760462469e-03 
       2.493232377687e+00       1.383783771491e-03 
       2.692130395285e+00       1.145122152952e-03 
       2.906895534573e+00       9.468478660588e-04 
       3.138793597714e+00       7.822753263864e-04 
       3.389191366484e+00       6.458101987374e-04 
       3.659564657905e+00       5.327557367881e-04 
       3.951507022538e+00       4.391703084383e-04 
       4.266739136701e+00       3.617700837114e-04 
       4.607118943941e+00       2.978081477763e-04 
       4.974652605557e+00       2.449921933825e-04 
       5.371506324689e+00       2.014116112567e-04 
       5.800019113685e+00       1.654793048719e-04 
       6.262716579983e+00       1.358739899773e-04 
       6.762325811764e+00       1.114983336990e-04 
       7.301791451110e+00       9.144051245774e-05 
       7.884293049406e+00       7.494755369981e-05 
       8.513263807261e+00       6.139457289090e-05 
       9.192410809424e+00       5.026264314130e-05 
       9.925736873929e+00       4.112576570735e-05 
       1.071756414427e+01       3.362939913697e-05 
       1.157255956364e+01       2.748280967225e-05 
       1.249576238137e+01       2.244537813794e-05 
       1.349261385375e+01       1.831867843143e-05 
       1.456898931416e+01       1.493961554756e-05 
       1.573123280165e+01       1.217371865615e-05 
       1.698619445202e+01       9.910577643266e-06 
       1.834127087176e+01       8.059352621619e-06 
       1.980444873285e+01       6.545320308913e-06 
       2.138435184532e+01       5.307324744981e-06 
       2.309029198506e+01       4.295124571465e-06 
       2.493232377636e+01       3.467677989889e-06 
       2.692130395282e+01       2.791119221083e-06 
       2.906895534573e+01       2.238051385198e-06 
       3.138793597714e+01       1.785794528929e-06 
       3.389191366484e+01       1.416108245576e-06 
       3.659564657905e+01       1.113977205032e-06 
       3.951507022538e+01       8.672970261374e-07 
       4.266739136701e+01       6.662328227661e-07 
       4.607118943941e+01       5.028747687591e-07 
       4.974652605557e+01       3.708853822538e-07 
       5.371506324689e+01       2.651997209039e-07 
       5.800019113685e+01       1.817899890386e-07 
       6.262716579983e+01       1.174308403677e-07 
       6.762325811764e+01       6.950227596988e-08 
