# Matter power spectrum P(k) at redshift z=99
# for k=1.04775e-05 to 67.6233 h/Mpc,
# number of wavenumbers equal to 246
#    1:k (h/Mpc)              2:P (Mpc/h)^3        
       1.047750691338e-05       7.261927673119e-03 
       1.131335172818e-05       7.820331745737e-03 
       1.221587619877e-05       8.421675986489e-03 
       1.319039970550e-05       9.069258192194e-03 
       1.424266598317e-05       9.766638404421e-03 
       1.537887697396e-05       1.051764069682e-02 
       1.660572938097e-05       1.132639105520e-02 
       1.793045413791e-05       1.219733231416e-02 
       1.936085902737e-05       1.313524224380e-02 
       2.090537469909e-05       1.414527121893e-02 
       2.257310435923e-05       1.523296272192e-02 
       2.437387742372e-05       1.640429444530e-02 
       2.631830745176e-05       1.766569582178e-02 
       2.841785470091e-05       1.902408601793e-02 
       3.068489367268e-05       2.048692970591e-02 
       3.313278604643e-05       2.206225513594e-02 
       3.577595943165e-05       2.375870704909e-02 
       3.862999240274e-05       2.558560727479e-02 
       4.171170631739e-05       2.755297763344e-02 
       4.503926445983e-05       2.967161927315e-02 
       4.863227909323e-05       3.195316450832e-02 
       5.251192705226e-05       3.441013519284e-02 
       5.670107455699e-05       3.705601722527e-02 
       6.122441198393e-05       3.990533413563e-02 
       6.610859938837e-05       4.297372168203e-02 
       7.138242363583e-05       4.627802141688e-02 
       7.707696806873e-05       4.983636194159e-02 
       8.322579570814e-05       5.366826847231e-02 
       8.986514707061e-05       5.779476394569e-02 
       9.703415376577e-05       6.223848243885e-02 
       1.047750691338e-04       6.702379865640e-02 
       1.131335172818e-04       7.217695153381e-02 
       1.221587619877e-04       7.772619073569e-02 
       1.319039970550e-04       8.370193432376e-02 
       1.424266598317e-04       9.013692507547e-02 
       1.537887697396e-04       9.706641242570e-02 
       1.660572938097e-04       1.045283354271e-01 
       1.793045413791e-04       1.125635349068e-01 
       1.936085902737e-04       1.212159614968e-01 
       2.090537469909e-04       1.305329132714e-01 
       2.257310435923e-04       1.405652846215e-01 
       2.437387742372e-04       1.513678302540e-01 
       2.631830745176e-04       1.629994504871e-01 
       2.841785470091e-04       1.755234921224e-01 
       3.068489367268e-04       1.890080670413e-01 
       3.313278604643e-04       2.035264002435e-01 
       3.577595943165e-04       2.191571803681e-01 
       3.862999240274e-04       2.359849437594e-01 
       4.171170631739e-04       2.541004741539e-01 
       4.503926445983e-04       2.736012080277e-01 
       4.863227909323e-04       2.945916790965e-01 
       5.251192705226e-04       3.171839525183e-01 
       5.670107455699e-04       3.414980764002e-01 
       6.122441198393e-04       3.676625413100e-01 
       6.610859938837e-04       3.958147252304e-01 
       7.138242363583e-04       4.261013284917e-01 
       7.707696806873e-04       4.586787792353e-01 
       8.322579570814e-04       4.937136001343e-01 
       8.986514707061e-04       5.313826801401e-01 
       9.703415376577e-04       5.718734972157e-01 
       1.047750691338e-03       6.153841629505e-01 
       1.131335172818e-03       6.621233239466e-01 
       1.221587619877e-03       7.123098220427e-01 
       1.319039970550e-03       7.661720584747e-01 
       1.424266598317e-03       8.239546297730e-01 
       1.537887697396e-03       8.859011173467e-01 
       1.660572938097e-03       9.522588006423e-01 
       1.793045413791e-03       1.023280099819e+00 
       1.936085902737e-03       1.099216304579e+00 
       2.090537469909e-03       1.180312990453e+00 
       2.257310435923e-03       1.266804115852e+00 
       2.437387742372e-03       1.358904853406e+00 
       2.631830745176e-03       1.456802683156e+00 
       2.841785470091e-03       1.560646890522e+00 
       3.068489367268e-03       1.670536062501e+00 
       3.313278604643e-03       1.786503852158e+00 
       3.577595943165e-03       1.908502930787e+00 
       3.862999240274e-03       2.036387730709e+00 
       4.171170631739e-03       2.169896178696e+00 
       4.503926445983e-03       2.308631878994e+00 
       4.863227909323e-03       2.452047290962e+00 
       5.251192705226e-03       2.599430628088e+00 
       5.670107455699e-03       2.749896931837e+00 
       6.122441198393e-03       2.902386513385e+00 
       6.610859938837e-03       3.055668689245e+00 
       7.138242363583e-03       3.208356461542e+00 
       7.707696806873e-03       3.358923892579e+00 
       8.322579570814e-03       3.505725595254e+00 
       8.986514707061e-03       3.647008939112e+00 
       9.703415376577e-03       3.780923304305e+00 
       1.047750691338e-02       3.905490210958e+00 
       1.131335172818e-02       4.018588042376e+00 
       1.221587619877e-02       4.117901583721e+00 
       1.319039970550e-02       4.200915407095e+00 
       1.424266598317e-02       4.264939995815e+00 
       1.537887697392e-02       4.307216015299e+00 
       1.660572938023e-02       4.325063170960e+00 
       1.793045412706e-02       4.316060144681e+00 
       1.936085890181e-02       4.278232011162e+00 
       2.090537352463e-02       4.210204882263e+00 
       2.257309535333e-02       4.111418402489e+00 
       2.437382002918e-02       3.982414889339e+00 
       2.631799944462e-02       3.825169205451e+00 
       2.841644545389e-02       3.643283585174e+00 
       3.067933355377e-02       3.442194646615e+00 
       3.311368470740e-02       3.229236360830e+00 
       3.571840443502e-02       3.013516750516e+00 
       3.847720348444e-02       2.805275834965e+00 
       4.135335538431e-02       2.614398732593e+00 
       4.429361667738e-02       2.448124590255e+00 
       4.724366439141e-02       2.309234149674e+00 
       5.016480835311e-02       2.196116230335e+00 
       5.303989620246e-02       2.104368244029e+00 
       5.586870669566e-02       2.028462146919e+00 
       5.866042680613e-02       1.963154158770e+00 
       6.142798932958e-02       1.903780425418e+00 
       6.418496440164e-02       1.846477034301e+00 
       6.694418833788e-02       1.788196060899e+00 
       6.971731106057e-02       1.726715825388e+00 
       7.251476155766e-02       1.660654427702e+00 
       7.534587671527e-02       1.589471366756e+00 
       7.821907666265e-02       1.513436105195e+00 
       8.114203772912e-02       1.433564508308e+00 
       8.412184535029e-02       1.351492361522e+00 
       8.716512279304e-02       1.269275299177e+00 
       9.027813695930e-02       1.189194929284e+00 
       9.346688431697e-02       1.113500900512e+00 
       9.673716028276e-02       1.044176923361e+00 
       1.000946150830e-01       9.827073892583e-01 
       1.035447986537e-01       9.299388359039e-01 
       1.070931966762e-01       8.859597221257e-01 
       1.107452594425e-01       8.500721455799e-01 
       1.145064249153e-01       8.208043009025e-01 
       1.183821370918e-01       7.960252745560e-01 
       1.223778605862e-01       7.731453384984e-01 
       1.264990921987e-01       7.494534628387e-01 
       1.307513701367e-01       7.225584342585e-01 
       1.351402814784e-01       6.909105432019e-01 
       1.396714684203e-01       6.541808688695e-01 
       1.443506338194e-01       6.134269242819e-01 
       1.491835465229e-01       5.708681023707e-01 
       1.541760469708e-01       5.293627011122e-01 
       1.593340535561e-01       4.917111105132e-01 
       1.646635702297e-01       4.599197704943e-01 
       1.701706958456e-01       4.347288222887e-01 
       1.758616357459e-01       4.154081849861e-01 
       1.817427160982e-01       3.999370307210e-01 
       1.878204015065e-01       3.856825348070e-01 
       1.941013164283e-01       3.698092975430e-01 
       2.005922709503e-01       3.505458282726e-01 
       2.073002914972e-01       3.280440524289e-01 
       2.142326570816e-01       3.042147790453e-01 
       2.213969417533e-01       2.816120441157e-01 
       2.288010639706e-01       2.622578943072e-01 
       2.364533437147e-01       2.469617892499e-01 
       2.443625682930e-01       2.350129201793e-01 
       2.525380679504e-01       2.244175601146e-01 
       2.609898026346e-01       2.130935478055e-01 
       2.697284615565e-01       2.001025466403e-01 
       2.787655775689e-01       1.860198747472e-01 
       2.881136588829e-01       1.725170089369e-01 
       2.977863412677e-01       1.610661946295e-01 
       3.077985646929e-01       1.517613826451e-01 
       3.181667794071e-01       1.435594456209e-01 
       3.289091877812e-01       1.351815062498e-01 
       3.400460299658e-01       1.261640385040e-01 
       3.515999236474e-01       1.172022969594e-01 
       3.635962711085e-01       1.091769784593e-01 
       3.760637506334e-01       1.023097966709e-01 
       3.890349143879e-01       9.593762361653e-02 
       4.025469216825e-01       8.950772894069e-02 
       4.166424456376e-01       8.311184498983e-02 
       4.313708035863e-01       7.721542037997e-02 
       4.467893782977e-01       7.190071434808e-02 
       4.629654199664e-01       6.686905626761e-02 
       4.799783501994e-01       6.191750024192e-02 
       4.979227319373e-01       5.722229489285e-02 
       5.169121270864e-01       5.290280821960e-02 
       5.370841404489e-01       4.876987561319e-02 
       5.586070464571e-01       4.479088689906e-02 
       5.816885094930e-01       4.105190554514e-02 
       6.065870144995e-01       3.748997224503e-02 
       6.336266468475e-01       3.407636038775e-02 
       6.632156059511e-01       3.083461636857e-02 
       6.958678639263e-01       2.772832067422e-02 
       7.322247985589e-01       2.476710948208e-02 
       7.730680195114e-01       2.193954537160e-02 
       8.193049553677e-01       1.925614213684e-02 
       8.718988016039e-01       1.672928686883e-02 
       9.317218031082e-01       1.438423050027e-02 
       9.993660908989e-01       1.225067131475e-02 
       1.075037110174e+00       1.035259867132e-02 
       1.158653485707e+00       8.699732718682e-03 
       1.250099157308e+00       7.284592216799e-03 
       1.349432401273e+00       6.085468354324e-03 
       1.456947457397e+00       5.075737925663e-03 
       1.573135111331e+00       4.228321447437e-03 
       1.698621895592e+00       3.518550975713e-03 
       1.834127512934e+00       2.924980345164e-03 
       1.980444934528e+00       2.429169316409e-03 
       2.138435191726e+00       2.015520652360e-03 
       2.309029199186e+00       1.670779092958e-03 
       2.493232377687e+00       1.383792836145e-03 
       2.692130395285e+00       1.145132150956e-03 
       2.906895534573e+00       9.468587830234e-04 
       3.138793597714e+00       7.822904675605e-04 
       3.389191366484e+00       6.458238786304e-04 
       3.659564657905e+00       5.327714436807e-04 
       3.951507022538e+00       4.391853564023e-04 
       4.266739136701e+00       3.617904429956e-04 
       4.607118943941e+00       2.978287313973e-04 
       4.974652605557e+00       2.450125953568e-04 
       5.371506324689e+00       2.014360770354e-04 
       5.800019113685e+00       1.655070121018e-04 
       6.262716579983e+00       1.359033967237e-04 
       6.762325811764e+00       1.115299940142e-04 
       7.301791451110e+00       9.147605303712e-05 
       7.884293049406e+00       7.498584853697e-05 
       8.513263807261e+00       6.143603477964e-05 
       9.192410809424e+00       5.030836262619e-05 
       9.925736873929e+00       4.117501497503e-05 
       1.071756414427e+01       3.368350204149e-05 
       1.157255956364e+01       2.754133921449e-05 
       1.249576238137e+01       2.250883392187e-05 
       1.349261385375e+01       1.838751025589e-05 
       1.456898931416e+01       1.501414313496e-05 
       1.573123280165e+01       1.225437257037e-05 
       1.698619445202e+01       9.997607616858e-06 
       1.834127087176e+01       8.153069591779e-06 
       1.980444873285e+01       6.646238943855e-06 
       2.138435184532e+01       5.415731114058e-06 
       2.309029198506e+01       4.411333805985e-06 
       2.493232377636e+01       3.591846760836e-06 
       2.692130395282e+01       2.923564928083e-06 
       2.906895534573e+01       2.378747275753e-06 
       3.138793597714e+01       1.934763168394e-06 
       3.389191366484e+01       1.573109017876e-06 
       3.659564657905e+01       1.278621218347e-06 
       3.951507022538e+01       1.038901557851e-06 
       4.266739136701e+01       8.438640181530e-07 
       4.607118943941e+01       6.852064625740e-07 
       4.974652605557e+01       5.562031872842e-07 
       5.371506324689e+01       4.513381837917e-07 
       5.800019113685e+01       3.661288470314e-07 
       6.262716579983e+01       2.969144204120e-07 
       6.762325811764e+01       2.407040457524e-07 
