# Matter power spectrum P(k) at redshift z=0
# for k=1.04775e-05 to 67.6233 h/Mpc,
# number of wavenumbers equal to 246
#    1:k (h/Mpc)              2:P (Mpc/h)^3        
       1.047750691338e-05       5.020964806749e+01 
       1.131335172818e-05       5.407048206553e+01 
       1.221587619877e-05       5.822819063796e+01 
       1.319039970550e-05       6.270562589679e+01 
       1.424266598317e-05       6.752731788102e+01 
       1.537887697396e-05       7.271977200257e+01 
       1.660572938097e-05       7.831147241541e+01 
       1.793045413791e-05       8.433311815128e+01 
       1.936085902737e-05       9.081778242446e+01 
       2.090537469909e-05       9.780108061342e+01 
       2.257310435923e-05       1.053213197032e+02 
       2.437387742372e-05       1.134197377001e+02 
       2.631830745176e-05       1.221408202816e+02 
       2.841785470091e-05       1.315324720916e+02 
       3.068489367268e-05       1.416462093730e+02 
       3.313278604643e-05       1.525374500691e+02 
       3.577595943165e-05       1.642660687078e+02 
       3.862999240274e-05       1.768963504868e+02 
       4.171170631739e-05       1.904975992461e+02 
       4.503926445983e-05       2.051444490305e+02 
       4.863227909323e-05       2.209171463752e+02 
       5.251192705226e-05       2.379022222314e+02 
       5.670107455699e-05       2.561927925482e+02 
       6.122441198393e-05       2.758890441791e+02 
       6.610859938837e-05       2.970989225466e+02 
       7.138242363583e-05       3.199385558200e+02 
       7.707696806873e-05       3.445329780878e+02 
       8.322579570814e-05       3.710167315928e+02 
       8.986514707061e-05       3.995346440954e+02 
       9.703415376577e-05       4.302425403884e+02 
       1.047750691338e-04       4.633080762974e+02 
       1.131335172818e-04       4.989116267507e+02 
       1.221587619877e-04       5.372471946561e+02 
       1.319039970550e-04       5.785234124630e+02 
       1.424266598317e-04       6.229645930980e+02 
       1.537887697396e-04       6.708118484951e+02 
       1.660572938097e-04       7.223242660220e+02 
       1.793045413791e-04       7.777801557496e+02 
       1.936085902737e-04       8.374783607333e+02 
       2.090537469909e-04       9.017396264495e+02 
       2.257310435923e-04       9.709080260152e+02 
       2.437387742372e-04       1.045352448644e+03 
       2.631830745176e-04       1.125468122836e+03 
       2.841785470091e-04       1.211678179511e+03 
       3.068489367268e-04       1.304435249091e+03 
       3.313278604643e-04       1.404223052541e+03 
       3.577595943165e-04       1.511558013390e+03 
       3.862999240274e-04       1.626990836399e+03 
       4.171170631739e-04       1.751108027370e+03 
       4.503926445983e-04       1.884533381345e+03 
       4.863227909323e-04       2.027929376471e+03 
       5.251192705226e-04       2.181998446368e+03 
       5.670107455699e-04       2.347484100857e+03 
       6.122441198393e-04       2.525171869338e+03 
       6.610859938837e-04       2.715889981401e+03 
       7.138242363583e-04       2.920509686089e+03 
       7.707696806873e-04       3.139945097711e+03 
       8.322579570814e-04       3.375152334396e+03 
       8.986514707061e-04       3.627127828231e+03 
       9.703415376577e-04       3.896905450016e+03 
       1.047750691338e-03       4.185552170958e+03 
       1.131335172818e-03       4.494162426791e+03 
       1.221587619877e-03       4.823850702665e+03 
       1.319039970550e-03       5.175742734976e+03 
       1.424266598317e-03       5.551019592517e+03 
       1.537887697396e-03       5.950788335887e+03 
       1.660572938097e-03       6.376123046807e+03 
       1.793045413791e-03       6.828073896118e+03 
       1.936085902737e-03       7.307625375386e+03 
       2.090537469909e-03       7.815671860182e+03 
       2.257310435923e-03       8.352990369401e+03 
       2.437387742372e-03       8.920211057531e+03 
       2.631830745176e-03       9.517783061890e+03 
       2.841785470091e-03       1.014593703671e+04 
       3.068489367268e-03       1.080464505741e+04 
       3.313278604643e-03       1.149357459435e+04 
       3.577595943165e-03       1.221203620826e+04 
       3.862999240274e-03       1.295892538505e+04 
       4.171170631739e-03       1.373266002235e+04 
       4.503926445983e-03       1.453111834595e+04 
       4.863227909323e-03       1.535154984227e+04 
       5.251192705226e-03       1.619063613436e+04 
       5.670107455699e-03       1.704431256603e+04 
       6.122441198393e-03       1.790755938452e+04 
       6.610859938837e-03       1.877460420527e+04 
       7.138242363583e-03       1.963872429097e+04 
       7.707696806873e-03       2.049215713181e+04 
       8.322579570814e-03       2.132607230576e+04 
       8.986514707061e-03       2.213055079041e+04 
       9.703415376577e-03       2.289445470800e+04 
       1.047750691338e-02       2.360548242117e+04 
       1.131335172818e-02       2.425023100322e+04 
       1.221587619877e-02       2.481423923685e+04 
       1.319039970550e-02       2.528218648693e+04 
       1.424266598317e-02       2.563814323521e+04 
       1.537887697392e-02       2.586605997819e+04 
       1.660572938023e-02       2.595025595375e+04 
       1.793045412706e-02       2.587635723130e+04 
       1.936085890181e-02       2.563220810317e+04 
       2.090537352463e-02       2.520933811833e+04 
       2.257309535333e-02       2.460444385283e+04 
       2.437382002918e-02       2.382090850994e+04 
       2.631799944462e-02       2.287045421022e+04 
       2.841644545389e-02       2.177453390642e+04 
       3.067933355377e-02       2.056557845051e+04 
       3.311368470740e-02       1.928730087606e+04 
       3.571840443502e-02       1.799402614533e+04 
       3.847720348444e-02       1.674689477343e+04 
       4.135335538431e-02       1.560457134615e+04 
       4.429361667738e-02       1.461038646006e+04 
       4.724366439141e-02       1.378051694826e+04 
       5.016480835311e-02       1.310508955508e+04 
       5.303989620246e-02       1.255714691569e+04 
       5.586870669566e-02       1.210426901139e+04 
       5.866042680613e-02       1.171464388766e+04 
       6.142798932958e-02       1.136046012301e+04 
       6.418496440164e-02       1.101856662949e+04 
       6.694418833788e-02       1.067069939770e+04 
       6.971731106057e-02       1.030360521408e+04 
       7.251476155766e-02       9.908999633857e+03 
       7.534587671527e-02       9.483768893154e+03 
       7.821907666265e-02       9.029502630821e+03 
       8.114203772912e-02       8.552328076967e+03 
       8.412184535029e-02       8.061948018163e+03 
       8.716512279304e-02       7.570779087682e+03 
       9.027813695930e-02       7.092500527761e+03 
       9.346688431697e-02       6.640520681947e+03 
       9.673716028276e-02       6.226694783608e+03 
       1.000946150830e-01       5.859941025592e+03 
       1.035447986537e-01       5.545231567462e+03 
       1.070931966762e-01       5.283124946596e+03 
       1.107452594425e-01       5.069434638703e+03 
       1.145064249153e-01       4.895253107415e+03 
       1.183821370918e-01       4.747844226665e+03 
       1.223778605862e-01       4.611735741192e+03 
       1.264990921987e-01       4.470629280588e+03 
       1.307513701367e-01       4.310272816058e+03 
       1.351402814784e-01       4.121385422646e+03 
       1.396714684203e-01       3.902066589940e+03 
       1.443506338194e-01       3.658638804270e+03 
       1.491835465229e-01       3.404485965306e+03 
       1.541760469708e-01       3.156668275311e+03 
       1.593340535561e-01       2.931974901644e+03 
       1.646635702297e-01       2.742374579177e+03 
       1.701706958456e-01       2.592256568118e+03 
       1.758616357459e-01       2.477238237619e+03 
       1.817427160982e-01       2.385184445774e+03 
       1.878204015065e-01       2.300356022263e+03 
       1.941013164283e-01       2.205757554338e+03 
       2.005922709503e-01       2.090812810217e+03 
       2.073002914972e-01       1.956463921205e+03 
       2.142326570816e-01       1.814196599980e+03 
       2.213969417533e-01       1.679298682284e+03 
       2.288010639706e-01       1.563847599911e+03 
       2.364533437147e-01       1.472685937865e+03 
       2.443625682930e-01       1.401518933000e+03 
       2.525380679504e-01       1.338418392808e+03 
       2.609898026346e-01       1.270903854947e+03 
       2.697284615565e-01       1.193381443204e+03 
       2.787655775689e-01       1.109336680650e+03 
       2.881136588829e-01       1.028770516768e+03 
       2.977863412677e-01       9.604831799112e+02 
       3.077985646929e-01       9.050248669629e+02 
       3.181667794071e-01       8.561486887974e+02 
       3.289091877812e-01       8.061885558490e+02 
       3.400460299658e-01       7.523892387370e+02 
       3.515999236474e-01       6.989248603637e+02 
       3.635962711085e-01       6.510650901577e+02 
       3.760637506334e-01       6.101242111920e+02 
       3.890349143879e-01       5.721326011364e+02 
       4.025469216825e-01       5.337847285256e+02 
       4.166424456376e-01       4.956336976660e+02 
       4.313708035863e-01       4.604691828305e+02 
       4.467893782977e-01       4.287776271839e+02 
       4.629654199664e-01       3.987725619719e+02 
       4.799783501994e-01       3.692417853159e+02 
       4.979227319373e-01       3.412392947769e+02 
       5.169121270864e-01       3.154836188897e+02 
       5.370841404489e-01       2.908356521472e+02 
       5.586070464571e-01       2.671062198426e+02 
       5.816885094930e-01       2.448097516733e+02 
       6.065870144995e-01       2.235679719796e+02 
       6.336266468475e-01       2.032100918126e+02 
       6.632156059511e-01       1.838787067791e+02 
       6.958678639263e-01       1.653550488951e+02 
       7.322247985589e-01       1.476958800279e+02 
       7.730680195114e-01       1.308335908564e+02 
       8.193049553677e-01       1.148318032097e+02 
       8.718988016039e-01       9.976270288387e+01 
       9.317218031082e-01       8.577833972119e+01 
       9.993660908989e-01       7.305522315166e+01 
       1.075037110174e+00       6.173613580092e+01 
       1.158653485707e+00       5.187929980666e+01 
       1.250099157308e+00       4.344018172604e+01 
       1.349432401273e+00       3.628962498965e+01 
       1.456947457397e+00       3.026816327338e+01 
       1.573135111331e+00       2.521466254504e+01 
       1.698621895592e+00       2.098196620401e+01 
       1.834127512934e+00       1.744239269109e+01 
       1.980444934528e+00       1.448570128788e+01 
       2.138435191726e+00       1.201892733791e+01 
       2.309029199186e+00       9.963167533809e+00 
       2.493232377687e+00       8.251859336487e+00 
       2.692130395285e+00       6.828610837835e+00 
       2.906895534573e+00       5.646262830446e+00 
       3.138793597714e+00       4.664866965030e+00 
       3.389191366484e+00       3.851115206470e+00 
       3.659564657905e+00       3.176944469738e+00 
       3.951507022538e+00       2.618895551083e+00 
       4.266739136701e+00       2.157344030116e+00 
       4.607118943941e+00       1.775928564020e+00 
       4.974652605557e+00       1.461000838385e+00 
       5.371506324689e+00       1.201126137152e+00 
       5.800019113685e+00       9.868774151136e-01 
       6.262716579983e+00       8.103502035612e-01 
       6.762325811764e+00       6.650122916441e-01 
       7.301791451110e+00       5.454315614616e-01 
       7.884293049406e+00       4.471004907299e-01 
       8.513263807261e+00       3.663009474029e-01 
       9.192410809424e+00       2.999388425181e-01 
       9.925736873929e+00       2.454816592434e-01 
       1.071756414427e+01       2.008084866347e-01 
       1.157255956364e+01       1.641849273825e-01 
       1.249576238137e+01       1.341771590565e-01 
       1.349261385375e+01       1.096030395074e-01 
       1.456898931416e+01       8.948879441528e-02 
       1.573123280165e+01       7.303359947408e-02 
       1.698619445202e+01       5.957841779301e-02 
       1.834127087176e+01       4.858097077959e-02 
       1.980444873285e+01       3.959690197605e-02 
       2.138435184532e+01       3.226104844178e-02 
       2.309029198506e+01       2.627333017040e-02 
       2.493232377636e+01       2.138834094677e-02 
       2.692130395282e+01       1.740477598285e-02 
       2.906895534573e+01       1.415740453958e-02 
       3.138793597714e+01       1.151134860794e-02 
       3.389191366484e+01       9.356009900282e-03 
       3.659564657905e+01       7.601298688309e-03 
       3.951507022538e+01       6.173101559646e-03 
       4.266739136701e+01       5.011132717485e-03 
       4.607118943941e+01       4.066131550412e-03 
       4.974652605557e+01       3.297961715965e-03 
       5.371506324689e+01       2.673670595178e-03 
       5.800019113685e+01       2.166537468482e-03 
       6.262716579983e+01       1.754723930728e-03 
       6.762325811764e+01       1.420422359957e-03 
