# Matter power spectrum P(k) at redshift z=99
# for k=1.04775e-05 to 67.6233 h/Mpc,
# number of wavenumbers equal to 246
#    1:k (h/Mpc)              2:P (Mpc/h)^3        
       1.047750691338e-05       7.261927673119e-03 
       1.131335172818e-05       7.820331745737e-03 
       1.221587619877e-05       8.421675986488e-03 
       1.319039970550e-05       9.069258192194e-03 
       1.424266598317e-05       9.766638404421e-03 
       1.537887697396e-05       1.051764069681e-02 
       1.660572938097e-05       1.132639105520e-02 
       1.793045413791e-05       1.219733231416e-02 
       1.936085902737e-05       1.313524224380e-02 
       2.090537469909e-05       1.414527121893e-02 
       2.257310435923e-05       1.523296272192e-02 
       2.437387742372e-05       1.640429444530e-02 
       2.631830745176e-05       1.766569582177e-02 
       2.841785470091e-05       1.902408601793e-02 
       3.068489367268e-05       2.048692970591e-02 
       3.313278604643e-05       2.206225513594e-02 
       3.577595943165e-05       2.375870704909e-02 
       3.862999240274e-05       2.558560727479e-02 
       4.171170631739e-05       2.755297763344e-02 
       4.503926445983e-05       2.967161927315e-02 
       4.863227909323e-05       3.195316450832e-02 
       5.251192705226e-05       3.441013519284e-02 
       5.670107455699e-05       3.705601722526e-02 
       6.122441198393e-05       3.990533413561e-02 
       6.610859938837e-05       4.297372168203e-02 
       7.138242363583e-05       4.627802141688e-02 
       7.707696806873e-05       4.983636194159e-02 
       8.322579570814e-05       5.366826847231e-02 
       8.986514707061e-05       5.779476394568e-02 
       9.703415376577e-05       6.223848243885e-02 
       1.047750691338e-04       6.702379865640e-02 
       1.131335172818e-04       7.217695153381e-02 
       1.221587619877e-04       7.772619073572e-02 
       1.319039970550e-04       8.370193432376e-02 
       1.424266598317e-04       9.013692507548e-02 
       1.537887697396e-04       9.706641242570e-02 
       1.660572938097e-04       1.045283354271e-01 
       1.793045413791e-04       1.125635349068e-01 
       1.936085902737e-04       1.212159614968e-01 
       2.090537469909e-04       1.305329132714e-01 
       2.257310435923e-04       1.405652846215e-01 
       2.437387742372e-04       1.513678302540e-01 
       2.631830745176e-04       1.629994504871e-01 
       2.841785470091e-04       1.755234921224e-01 
       3.068489367268e-04       1.890080670413e-01 
       3.313278604643e-04       2.035264002435e-01 
       3.577595943165e-04       2.191571803681e-01 
       3.862999240274e-04       2.359849437592e-01 
       4.171170631739e-04       2.541004741539e-01 
       4.503926445983e-04       2.736012080277e-01 
       4.863227909323e-04       2.945916790965e-01 
       5.251192705226e-04       3.171839525182e-01 
       5.670107455699e-04       3.414980764002e-01 
       6.122441198393e-04       3.676625413100e-01 
       6.610859938837e-04       3.958147252303e-01 
       7.138242363583e-04       4.261013284914e-01 
       7.707696806873e-04       4.586787792351e-01 
       8.322579570814e-04       4.937136001351e-01 
       8.986514707061e-04       5.313826801402e-01 
       9.703415376577e-04       5.718734972157e-01 
       1.047750691338e-03       6.153841629505e-01 
       1.131335172818e-03       6.621233239466e-01 
       1.221587619877e-03       7.123098220429e-01 
       1.319039970550e-03       7.661720584684e-01 
       1.424266598317e-03       8.239546297729e-01 
       1.537887697396e-03       8.859011173466e-01 
       1.660572938097e-03       9.522588006418e-01 
       1.793045413791e-03       1.023280099819e+00 
       1.936085902737e-03       1.099216304579e+00 
       2.090537469909e-03       1.180312990453e+00 
       2.257310435923e-03       1.266804115851e+00 
       2.437387742372e-03       1.358904853405e+00 
       2.631830745176e-03       1.456802683156e+00 
       2.841785470091e-03       1.560646890522e+00 
       3.068489367268e-03       1.670536062499e+00 
       3.313278604643e-03       1.786503852162e+00 
       3.577595943165e-03       1.908502930789e+00 
       3.862999240274e-03       2.036387730709e+00 
       4.171170631739e-03       2.169896177342e+00 
       4.503926445983e-03       2.308631878994e+00 
       4.863227909323e-03       2.452047290962e+00 
       5.251192705226e-03       2.599430628088e+00 
       5.670107455699e-03       2.749896931806e+00 
       6.122441198393e-03       2.902386513383e+00 
       6.610859938837e-03       3.055668699539e+00 
       7.138242363583e-03       3.208356461545e+00 
       7.707696806873e-03       3.358923893311e+00 
       8.322579570814e-03       3.505725595162e+00 
       8.986514707061e-03       3.647009248854e+00 
       9.703415376577e-03       3.780923304342e+00 
       1.047750691338e-02       3.905491774499e+00 
       1.131335172818e-02       4.018587641275e+00 
       1.221587619877e-02       4.117901585481e+00 
       1.319039970550e-02       4.200915276164e+00 
       1.424266598317e-02       4.264942982119e+00 
       1.537887697392e-02       4.307216690373e+00 
       1.660572938023e-02       4.325063820077e+00 
       1.793045412706e-02       4.316056432131e+00 
       1.936085890181e-02       4.278231721654e+00 
       2.090537352463e-02       4.210200688064e+00 
       2.257309535333e-02       4.111420937643e+00 
       2.437382002918e-02       3.982415676667e+00 
       2.631799944462e-02       3.825173056331e+00 
       2.841644545389e-02       3.643282743283e+00 
       3.067933355377e-02       3.442190873373e+00 
       3.311368470740e-02       3.229230891333e+00 
       3.571840443502e-02       3.013508800829e+00 
       3.847720348444e-02       2.805278933035e+00 
       4.135335538431e-02       2.614418009085e+00 
       4.429361667738e-02       2.448132623158e+00 
       4.724366439141e-02       2.309235958193e+00 
       5.016480835311e-02       2.196114973386e+00 
       5.303989620246e-02       2.104361483004e+00 
       5.586870669566e-02       2.028462454842e+00 
       5.866042680613e-02       1.963153794102e+00 
       6.142798932958e-02       1.903781242124e+00 
       6.418496440164e-02       1.846478938099e+00 
       6.694418833788e-02       1.788196311760e+00 
       6.971731106057e-02       1.726719561633e+00 
       7.251476155766e-02       1.660651897922e+00 
       7.534587671527e-02       1.589468468162e+00 
       7.821907666265e-02       1.513440390100e+00 
       8.114203772912e-02       1.433568386092e+00 
       8.412184535029e-02       1.351492090868e+00 
       8.716512279304e-02       1.269272278130e+00 
       9.027813695930e-02       1.189197935475e+00 
       9.346688431697e-02       1.113501828801e+00 
       9.673716028276e-02       1.044173875754e+00 
       1.000946150830e-01       9.827059441871e-01 
       1.035447986537e-01       9.299425541291e-01 
       1.070931966762e-01       8.859599842809e-01 
       1.107452594425e-01       8.500705424630e-01 
       1.145064249153e-01       8.208028431181e-01 
       1.183821370918e-01       7.960251544698e-01 
       1.223778605862e-01       7.731461984294e-01 
       1.264990921987e-01       7.494513419395e-01 
       1.307513701367e-01       7.225578665772e-01 
       1.351402814784e-01       6.909090722466e-01 
       1.396714684203e-01       6.541816934557e-01 
       1.443506338194e-01       6.134270235750e-01 
       1.491835465229e-01       5.708675059059e-01 
       1.541760469708e-01       5.293631464514e-01 
       1.593340535561e-01       4.917110093914e-01 
       1.646635702297e-01       4.599199736321e-01 
       1.701706958456e-01       4.347282189054e-01 
       1.758616357459e-01       4.154090376764e-01 
       1.817427160982e-01       3.999366771950e-01 
       1.878204015065e-01       3.856817999309e-01 
       1.941013164283e-01       3.698099527626e-01 
       2.005922709503e-01       3.505459507310e-01 
       2.073002914972e-01       3.280433910665e-01 
       2.142326570816e-01       3.042136880454e-01 
       2.213969417533e-01       2.816123331906e-01 
       2.288010639706e-01       2.622579324066e-01 
       2.364533437147e-01       2.469622210723e-01 
       2.443625682930e-01       2.350124228651e-01 
       2.525380679504e-01       2.244175796774e-01 
       2.609898026346e-01       2.130929937405e-01 
       2.697284615565e-01       2.001019253307e-01 
       2.787655775689e-01       1.860199183150e-01 
       2.881136588829e-01       1.725176843719e-01 
       2.977863412677e-01       1.610657863759e-01 
       3.077985646929e-01       1.517608951240e-01 
       3.181667794071e-01       1.435595643592e-01 
       3.289091877812e-01       1.351811118275e-01 
       3.400460299658e-01       1.261644398851e-01 
       3.515999236474e-01       1.172020894876e-01 
       3.635962711085e-01       1.091769884708e-01 
       3.760637506334e-01       1.023097948384e-01 
       3.890349143879e-01       9.593770098648e-02 
       4.025469216825e-01       8.950793711973e-02 
       4.166424456376e-01       8.311156943765e-02 
       4.313708035863e-01       7.721551753255e-02 
       4.467893782977e-01       7.190058450495e-02 
       4.629654199664e-01       6.686887637291e-02 
       4.799783501994e-01       6.191771046111e-02 
       4.979227319373e-01       5.722217224576e-02 
       5.169121270864e-01       5.290289106632e-02 
       5.370841404489e-01       4.876979663468e-02 
       5.586070464571e-01       4.479090035113e-02 
       5.816885094930e-01       4.105195869070e-02 
       6.065870144995e-01       3.748989734279e-02 
       6.336266468475e-01       3.407636654393e-02 
       6.632156059511e-01       3.083459373699e-02 
       6.958678639263e-01       2.772830688427e-02 
       7.322247985589e-01       2.476709232480e-02 
       7.730680195114e-01       2.193957842454e-02 
       8.193049553677e-01       1.925617641349e-02 
       8.718988016039e-01       1.672927671862e-02 
       9.317218031082e-01       1.438417785369e-02 
       9.993660908989e-01       1.225065034568e-02 
       1.075037110174e+00       1.035260536950e-02 
       1.158653485707e+00       8.699707426262e-03 
       1.250099157308e+00       7.284596202453e-03 
       1.349432401273e+00       6.085460503307e-03 
       1.456947457397e+00       5.075733025813e-03 
       1.573135111331e+00       4.228297858977e-03 
       1.698621895592e+00       3.518537503900e-03 
       1.834127512934e+00       2.924987394277e-03 
       1.980444934528e+00       2.429159311085e-03 
       2.138435191726e+00       2.015507696106e-03 
       2.309029199186e+00       1.670775695841e-03 
       2.493232377687e+00       1.383795459048e-03 
       2.692130395285e+00       1.145134091687e-03 
       2.906895534573e+00       9.468600500129e-04 
       3.138793597714e+00       7.822951783365e-04 
       3.389191366484e+00       6.458225459529e-04 
       3.659564657905e+00       5.327684458859e-04 
       3.951507022538e+00       4.391848646253e-04 
       4.266739136701e+00       3.617885172482e-04 
       4.607118943941e+00       2.978273195209e-04 
       4.974652605557e+00       2.450134275431e-04 
       5.371506324689e+00       2.014351550075e-04 
       5.800019113685e+00       1.655049982198e-04 
       6.262716579983e+00       1.359025853714e-04 
       6.762325811764e+00       1.115289202049e-04 
       7.301791451110e+00       9.147522036703e-05 
       7.884293049406e+00       7.498492742203e-05 
       8.513263807261e+00       6.143469437630e-05 
       9.192410809424e+00       5.030674545568e-05 
       9.925736873929e+00       4.117350062321e-05 
       1.071756414427e+01       3.368137234143e-05 
       1.157255956364e+01       2.753936536706e-05 
       1.249576238137e+01       2.250684877515e-05 
       1.349261385375e+01       1.838526732767e-05 
       1.456898931416e+01       1.501153124861e-05 
       1.573123280165e+01       1.225145948669e-05 
       1.698619445202e+01       9.994518659655e-06 
       1.834127087176e+01       8.149717624186e-06 
       1.980444873285e+01       6.642570486543e-06 
       2.138435184532e+01       5.411733677575e-06 
       2.309029198506e+01       4.407057222328e-06 
       2.493232377636e+01       3.587201353258e-06 
       2.692130395282e+01       2.918516165971e-06 
       2.906895534573e+01       2.373302959896e-06 
       3.138793597714e+01       1.928879827012e-06 
       3.389191366484e+01       1.566754682639e-06 
       3.659564657905e+01       1.271790814506e-06 
       3.951507022538e+01       1.031548107413e-06 
       4.266739136701e+01       8.359378734546e-07 
       4.607118943941e+01       6.766876645491e-07 
       4.974652605557e+01       5.470650575847e-07 
       5.371506324689e+01       4.415642942621e-07 
       5.800019113685e+01       3.556906811069e-07 
       6.262716579983e+01       2.857915605153e-07 
       6.762325811764e+01       2.288954215553e-07 
