# Matter power spectrum P(k) at redshift z=99
# for k=1.04775e-05 to 134.926 h/Mpc,
# number of wavenumbers equal to 255
#    1:k (h/Mpc)              2:P (Mpc/h)^3        
       1.047750691338e-05       7.262057396343e-03 
       1.131335172818e-05       7.820472405180e-03 
       1.221587619877e-05       8.421826400015e-03 
       1.319039970550e-05       9.069420399179e-03 
       1.424266598317e-05       9.766811579803e-03 
       1.537887697396e-05       1.051782828010e-02 
       1.660572938097e-05       1.132659394624e-02 
       1.793045413791e-05       1.219754894530e-02 
       1.936085902737e-05       1.313547523831e-02 
       2.090537469909e-05       1.414552441878e-02 
       2.257310435923e-05       1.523323606125e-02 
       2.437387742372e-05       1.640458809253e-02 
       2.631830745176e-05       1.766600977391e-02 
       2.841785470091e-05       1.902442621960e-02 
       3.068489367268e-05       2.048729484988e-02 
       3.313278604643e-05       2.206264754343e-02 
       3.577595943165e-05       2.375913341986e-02 
       3.862999240274e-05       2.558606396977e-02 
       4.171170631739e-05       2.755346970470e-02 
       4.503926445983e-05       2.967215099798e-02 
       4.863227909323e-05       3.195373680331e-02 
       5.251192705226e-05       3.441075168290e-02 
       5.670107455699e-05       3.705668178871e-02 
       6.122441198393e-05       3.990604923085e-02 
       6.610859938837e-05       4.297449217760e-02 
       7.138242363583e-05       4.627884981537e-02 
       7.707696806873e-05       4.983725382954e-02 
       8.322579570814e-05       5.366922897418e-02 
       8.986514707061e-05       5.779579759038e-02 
       9.703415376577e-05       6.223959599853e-02 
       1.047750691338e-04       6.702499662487e-02 
       1.131335172818e-04       7.217823956823e-02 
       1.221587619877e-04       7.772757829049e-02 
       1.319039970550e-04       8.370342743455e-02 
       1.424266598317e-04       9.013853250657e-02 
       1.537887697396e-04       9.706814114192e-02 
       1.660572938097e-04       1.045301958760e-01 
       1.793045413791e-04       1.125655351310e-01 
       1.936085902737e-04       1.212181118310e-01 
       2.090537469909e-04       1.305352251427e-01 
       2.257310435923e-04       1.405677697631e-01 
       2.437387742372e-04       1.513705007091e-01 
       2.631830745176e-04       1.630023190386e-01 
       2.841785470091e-04       1.755265716541e-01 
       3.068489367268e-04       1.890113729015e-01 
       3.313278604643e-04       2.035299458778e-01 
       3.577595943165e-04       2.191609807585e-01 
       3.862999240274e-04       2.359890144525e-01 
       4.171170631739e-04       2.541048271167e-01 
       4.503926445983e-04       2.736058603011e-01 
       4.863227909323e-04       2.945966435589e-01 
       5.251192705226e-04       3.171892412617e-01 
       5.670107455699e-04       3.415037009606e-01 
       6.122441198393e-04       3.676685061195e-01 
       6.610859938837e-04       3.958210357068e-01 
       7.138242363583e-04       4.261079792931e-01 
       7.707696806873e-04       4.586857616401e-01 
       8.322579570814e-04       4.937208885419e-01 
       8.986514707061e-04       5.313902400469e-01 
       9.703415376577e-04       5.718812720527e-01 
       1.047750691338e-03       6.153920713752e-01 
       1.131335172818e-03       6.621312518267e-01 
       1.221587619877e-03       7.123176124919e-01 
       1.319039970550e-03       7.661794997089e-01 
       1.424266598317e-03       8.239615250622e-01 
       1.537887697396e-03       8.859070076373e-01 
       1.660572938097e-03       9.522630253045e-01 
       1.793045413791e-03       1.023281787131e+00 
       1.936085902737e-03       1.099214329430e+00 
       2.090537469909e-03       1.180305862680e+00 
       2.257310435923e-03       1.266789894862e+00 
       2.437387742372e-03       1.358880963090e+00 
       2.631830745176e-03       1.456765723734e+00 
       2.841785470091e-03       1.560592303432e+00 
       3.068489367268e-03       1.670457759781e+00 
       3.313278604643e-03       1.786393699937e+00 
       3.577595943165e-03       1.908350046291e+00 
       3.862999240274e-03       2.036177466099e+00 
       4.171170631739e-03       2.169608797671e+00 
       4.503926445983e-03       2.308240719704e+00 
       4.863227909323e-03       2.451516645497e+00 
       5.251192705226e-03       2.598712449554e+00 
       5.670107455699e-03       2.748925543102e+00 
       6.122441198393e-03       2.901074921844e+00 
       6.610859938837e-03       3.053901587299e+00 
       7.138242363583e-03       3.205980749951e+00 
       7.707696806873e-03       3.355736503968e+00 
       8.322579570814e-03       3.501460446874e+00 
       8.986514707061e-03       3.641319724041e+00 
       9.703415376577e-03       3.773357034732e+00 
       1.047750691338e-02       3.895468017858e+00 
       1.131335172818e-02       4.005363104161e+00 
       1.221587619877e-02       4.100528803296e+00 
       1.319039970550e-02       4.178200504885e+00 
       1.424266598317e-02       4.235381354030e+00 
       1.537887697392e-02       4.268941283305e+00 
       1.660572938023e-02       4.275760575507e+00 
       1.793045412706e-02       4.252917628050e+00 
       1.936085890181e-02       4.197856407461e+00 
       2.090537352463e-02       4.108582358863e+00 
       2.257309535333e-02       3.983868828296e+00 
       2.437382002918e-02       3.823592149790e+00 
       2.631799944462e-02       3.629106130830e+00 
       2.841644545389e-02       3.403575372718e+00 
       3.067933355377e-02       3.152153487086e+00 
       3.311368470740e-02       2.882339243111e+00 
       3.571840443502e-02       2.603961365901e+00 
       3.847720348444e-02       2.328645374482e+00 
       4.135335538431e-02       2.068469362313e+00 
       4.429361667738e-02       1.833198710803e+00 
       4.724366439141e-02       1.627996807899e+00 
       5.016480835311e-02       1.452972465661e+00 
       5.303989620246e-02       1.304729447996e+00 
       5.586870669566e-02       1.178368954495e+00 
       5.866042680613e-02       1.069049460308e+00 
       6.142798932958e-02       9.724856632413e-01 
       6.418496440164e-02       8.851752570092e-01 
       6.694418833788e-02       8.043889386600e-01 
       6.971731106057e-02       7.281025881235e-01 
       7.251476155766e-02       6.549518446512e-01 
       7.534587671527e-02       5.841719301104e-01 
       7.821907666265e-02       5.155316153232e-01 
       8.114203772912e-02       4.492540657081e-01 
       8.412184535029e-02       3.859226655785e-01 
       8.716512279304e-02       3.263466669039e-01 
       9.027813695930e-02       2.714202136986e-01 
       9.346688431697e-02       2.219644055621e-01 
       9.673716028276e-02       1.785883722851e-01 
       1.000946150830e-01       1.415927374300e-01 
       1.035447986537e-01       1.109161521116e-01 
       1.070931966762e-01       8.616064877916e-02 
       1.107452594425e-01       6.664792346406e-02 
       1.145064249153e-01       5.153344458345e-02 
       1.183821370918e-01       3.990869679757e-02 
       1.223778605862e-01       3.090453997030e-02 
       1.264990921987e-01       2.376306838469e-02 
       1.307513701367e-01       1.789370428569e-02 
       1.351402814784e-01       1.291018337911e-02 
       1.396714684203e-01       8.641677874279e-03 
       1.443506338194e-01       5.106535589126e-03 
       1.491835465229e-01       2.435286487708e-03 
       1.541760469708e-01       7.501315104741e-04 
       1.593340535561e-01       4.535454888386e-05 
       1.646635702297e-01       1.283823405212e-04 
       1.701706958456e-01       6.623682126115e-04 
       1.758616357459e-01       1.292516226141e-03 
       1.817427160982e-01       1.779069119808e-03 
       1.878204015065e-01       2.047226411487e-03 
       1.941013164283e-01       2.170171143062e-03 
       2.005922709503e-01       2.276386131854e-03 
       2.073002914972e-01       2.453021209859e-03 
       2.142326570816e-01       2.705247517426e-03 
       2.213969417533e-01       2.962559884228e-03 
       2.288010639706e-01       3.105026454289e-03 
       2.364533437147e-01       3.015985538643e-03 
       2.443625682930e-01       2.667656087057e-03 
       2.525380679504e-01       2.166932172186e-03 
       2.609898026346e-01       1.669058966376e-03 
       2.697284615565e-01       1.273496294123e-03 
       2.787655775689e-01       9.996337266484e-04 
       2.881136588829e-01       7.996041889086e-04 
       2.977863412677e-01       6.112790239986e-04 
       3.077985646929e-01       4.169269569704e-04 
       3.181667794071e-01       2.409503880556e-04 
       3.289091877812e-01       1.170132063559e-04 
       3.400460299658e-01       4.996756927699e-05 
       3.515999236474e-01       1.851352547856e-05 
       3.635962711085e-01       4.193771823383e-06 
       3.760637506334e-01       4.514896460513e-08 
       3.890349143879e-01       5.447674033554e-06 
       4.025469216825e-01       1.520285824954e-05 
       4.166424456376e-01       2.211345795008e-05 
       4.313708035863e-01       2.552102604023e-05 
       4.467893782977e-01       2.721738979291e-05 
       4.629654199664e-01       2.698459271011e-05 
       4.799783501994e-01       2.314716905552e-05 
       4.979227319373e-01       1.710512172678e-05 
       5.169121270864e-01       1.174042626694e-05 
       5.370841404489e-01       7.208557241136e-06 
       5.586070464571e-01       3.497648442335e-06 
       5.816885094930e-01       1.249993853125e-06 
       6.065870144995e-01       2.316080334850e-07 
       6.336266468475e-01       2.217435438469e-09 
       6.632156059511e-01       1.646671252856e-07 
       6.958678639263e-01       3.632166203561e-07 
       7.322247985589e-01       4.042855128764e-07 
       7.730680195114e-01       2.958636845160e-07 
       8.193049553677e-01       1.373980716381e-07 
       8.718988016039e-01       3.303186503365e-08 
       9.317218031082e-01       1.125811389114e-09 
       9.993660908989e-01       1.990680038865e-09 
       1.075037110174e+00       2.896032145691e-09 
       1.158653485707e+00       6.342384487948e-10 
       1.250099157308e+00       7.441935060543e-12 
       1.349432401273e+00       2.568237684204e-10 
       1.456947457397e+00       2.355866310296e-10 
       1.573135111331e+00       8.537824242094e-11 
       1.698621895592e+00       2.500868371906e-11 
       1.834127512934e+00       1.118345983987e-11 
       1.980444934528e+00       1.128044234780e-11 
       2.138435191726e+00       1.037008116190e-11 
       2.309029199186e+00       7.888112057395e-12 
       2.493232377687e+00       5.027367857259e-12 
       2.692130395285e+00       3.759736754794e-12 
       2.906895534573e+00       2.845394493712e-12 
       3.138793597714e+00       1.806857052366e-12 
       3.389191366484e+00       1.409601478654e-12 
       3.659564657905e+00       1.045575908781e-12 
       3.951507022538e+00       7.871419127438e-13 
       4.266739136701e+00       5.390894144301e-13 
       4.607118943941e+00       4.666390992031e-13 
       4.974652605557e+00       3.016690189221e-13 
       5.371506324689e+00       2.316783009015e-13 
       5.800019113685e+00       2.257703115982e-13 
       6.262716579983e+00       2.414878786707e-13 
       6.762325811764e+00       1.647145629073e-13 
       7.301791451110e+00       1.232852208160e-13 
       7.884293049406e+00       1.314271238512e-14 
       8.513263807261e+00       1.832601658051e-13 
       9.192410809424e+00       2.755236296268e-14 
       9.925736873929e+00       6.502099293507e-15 
       1.071756414427e+01       1.903317002443e-15 
       1.157255956364e+01       2.399884615559e-16 
       1.249576238137e+01       8.350645664439e-15 
       1.349261385375e+01       2.445839447154e-14 
       1.456898931416e+01       9.580723242111e-14 
       1.573123280165e+01       1.610599157028e-15 
       1.698619445202e+01       1.049510258736e-14 
       1.834127087176e+01       5.899013453864e-14 
       1.980444873285e+01       1.043003691590e-16 
       2.138435184532e+01       1.749778829170e-13 
       2.309029198506e+01       1.372389479682e-13 
       2.493232377636e+01       2.235768137148e-14 
       2.692130395282e+01       4.465366587032e-16 
       2.906895534573e+01       7.187935681580e-15 
       3.138793597714e+01       3.572583661493e-15 
       3.389191366484e+01       3.393690533587e-13 
       3.659564657905e+01       5.249708826412e-15 
       3.951507022538e+01       2.419536224810e-14 
       4.266739136701e+01       2.106179032205e-13 
       4.607118943941e+01       2.424449798302e-14 
       4.974652605557e+01       6.471107081434e-14 
       5.371506324689e+01       1.106239132177e-14 
       5.800019113685e+01       4.679626211233e-13 
       6.262716579983e+01       1.132461545117e-13 
       6.762325811764e+01       1.197322971071e-14 
       7.301791451110e+01       4.792473518181e-14 
       7.884293049406e+01       2.294115382301e-12 
       8.513263807261e+01       6.957562730078e-14 
       9.192410809424e+01       1.317782222705e-13 
       9.925736873929e+01       4.850583217713e-13 
       1.071756414427e+02       2.777952916669e-13 
       1.157255956364e+02       3.801826160654e-13 
       1.249576238137e+02       1.511189534334e-12 
       1.349261385375e+02       9.571917767150e-14 
