# Matter power spectrum P(k) at redshift z=0
# for k=1.04775e-05 to 134.926 h/Mpc,
# number of wavenumbers equal to 255
#    1:k (h/Mpc)              2:P (Mpc/h)^3        
       1.047750691338e-05       5.020963565043e+01 
       1.131335172818e-05       5.407047799992e+01 
       1.221587619877e-05       5.822819244419e+01 
       1.319039970550e-05       6.270560969076e+01 
       1.424266598317e-05       6.752731864484e+01 
       1.537887697396e-05       7.271976315975e+01 
       1.660572938097e-05       7.831146698190e+01 
       1.793045413791e-05       8.433311787301e+01 
       1.936085902737e-05       9.081779332439e+01 
       2.090537469909e-05       9.780107343878e+01 
       2.257310435923e-05       1.053212986097e+02 
       2.437387742372e-05       1.134197282540e+02 
       2.631830745176e-05       1.221408192182e+02 
       2.841785470091e-05       1.315324520136e+02 
       3.068489367268e-05       1.416461584558e+02 
       3.313278604643e-05       1.525374344491e+02 
       3.577595943165e-05       1.642660461436e+02 
       3.862999240274e-05       1.768963376255e+02 
       4.171170631739e-05       1.904975965123e+02 
       4.503926445983e-05       2.051444192204e+02 
       4.863227909323e-05       2.209171384104e+02 
       5.251192705226e-05       2.379022230842e+02 
       5.670107455699e-05       2.561927804500e+02 
       6.122441198393e-05       2.758890467505e+02 
       6.610859938837e-05       2.970989231912e+02 
       7.138242363583e-05       3.199385582767e+02 
       7.707696806873e-05       3.445329735645e+02 
       8.322579570814e-05       3.710167321915e+02 
       8.986514707061e-05       3.995346452612e+02 
       9.703415376577e-05       4.302425390671e+02 
       1.047750691338e-04       4.633080771397e+02 
       1.131335172818e-04       4.989116277495e+02 
       1.221587619877e-04       5.372471938132e+02 
       1.319039970550e-04       5.785234115998e+02 
       1.424266598317e-04       6.229645923610e+02 
       1.537887697396e-04       6.708118480529e+02 
       1.660572938097e-04       7.223242645015e+02 
       1.793045413791e-04       7.777801531664e+02 
       1.936085902737e-04       8.374783567733e+02 
       2.090537469909e-04       9.017396196647e+02 
       2.257310435923e-04       9.709080149962e+02 
       2.437387742372e-04       1.045352431322e+03 
       2.631830745176e-04       1.125468097326e+03 
       2.841785470091e-04       1.211678141272e+03 
       3.068489367268e-04       1.304435190305e+03 
       3.313278604643e-04       1.404222969966e+03 
       3.577595943165e-04       1.511557894241e+03 
       3.862999240274e-04       1.626990661512e+03 
       4.171170631739e-04       1.751107768033e+03 
       4.503926445983e-04       1.884533004388e+03 
       4.863227909323e-04       2.027928830331e+03 
       5.251192705226e-04       2.181997654606e+03 
       5.670107455699e-04       2.347482948942e+03 
       6.122441198393e-04       2.525170203437e+03 
       6.610859938837e-04       2.715887579968e+03 
       7.138242363583e-04       2.920506217941e+03 
       7.707696806873e-04       3.139940084344e+03 
       8.322579570814e-04       3.375145130252e+03 
       8.986514707061e-04       3.627117491003e+03 
       9.703415376577e-04       3.896890574054e+03 
       1.047750691338e-03       4.185530855984e+03 
       1.131335172818e-03       4.494131921451e+03 
       1.221587619877e-03       4.823807174069e+03 
       1.319039970550e-03       5.175680678183e+03 
       1.424266598317e-03       5.550930749269e+03 
       1.537887697396e-03       5.950661464717e+03 
       1.660572938097e-03       6.375942015563e+03 
       1.793045413791e-03       6.827816664970e+03 
       1.936085902737e-03       7.307261006662e+03 
       2.090537469909e-03       7.815157539920e+03 
       2.257310435923e-03       8.352265178297e+03 
       2.437387742372e-03       8.919192468947e+03 
       2.631830745176e-03       9.516356559781e+03 
       2.841785470091e-03       1.014394385855e+04 
       3.068489367268e-03       1.080186758304e+04 
       3.313278604643e-03       1.148971602481e+04 
       3.577595943165e-03       1.220669240206e+04 
       3.862999240274e-03       1.295154637409e+04 
       4.171170631739e-03       1.372250212585e+04 
       4.503926445983e-03       1.451718091084e+04 
       4.863227909323e-03       1.533248808129e+04 
       5.251192705226e-03       1.616465836634e+04 
       5.670107455699e-03       1.700902313209e+04 
       6.122441198393e-03       1.785980047230e+04 
       6.610859938837e-03       1.871022145948e+04 
       7.138242363583e-03       1.955226676847e+04 
       7.707696806873e-03       2.037652189692e+04 
       8.322579570814e-03       2.117206947182e+04 
       8.986514707061e-03       2.192631097996e+04 
       9.703415376577e-03       2.262477287958e+04 
       1.047750691338e-02       2.325107382836e+04 
       1.131335172818e-02       2.378673483919e+04 
       1.221587619877e-02       2.421111383925e+04 
       1.319039970550e-02       2.450160901573e+04 
       1.424266598317e-02       2.463363015792e+04 
       1.537887697392e-02       2.458122197387e+04 
       1.660572938023e-02       2.431765366497e+04 
       1.793045412706e-02       2.381665449736e+04 
       1.936085890181e-02       2.305400081404e+04 
       2.090537352463e-02       2.201002378850e+04 
       2.257309535333e-02       2.067245159932e+04 
       2.437382002918e-02       1.904037941779e+04 
       2.631799944462e-02       1.712909011231e+04 
       2.841644545389e-02       1.497424739057e+04 
       3.067933355377e-02       1.263745525881e+04 
       3.311368470740e-02       1.021049863947e+04 
       3.571840443502e-02       7.815205254974e+03 
       3.847720348444e-02       5.594502403799e+03 
       4.135335538431e-02       3.687727230693e+03 
       4.429361667738e-02       2.191784635810e+03 
       4.724366439141e-02       1.133161458560e+03 
       5.016480835311e-02       4.708204431688e+02 
       5.303989620246e-02       1.245695723638e+02 
       5.586870669566e-02       4.579343586897e+00 
       5.866042680613e-02       2.876270205679e+01 
       6.142798932958e-02       1.296710357890e+02 
       6.418496440164e-02       2.556302361526e+02 
       6.694418833788e-02       3.700187634883e+02 
       6.971731106057e-02       4.497235635570e+02 
       7.251476155766e-02       4.834956622463e+02 
       7.534587671527e-02       4.701222158526e+02 
       7.821907666265e-02       4.164179263759e+02 
       8.114203772912e-02       3.346818513701e+02 
       8.412184535029e-02       2.402080426956e+02 
       8.716512279304e-02       1.485380959717e+02 
       9.027813695930e-02       7.300351162540e+01 
       9.346688431697e-02       2.269113664685e+01 
       9.673716028276e-02       1.086654834576e+00 
       1.000946150830e-01       5.868377965376e+00 
       1.035447986537e-01       2.969104287726e+01 
       1.070931966762e-01       6.202408369328e+01 
       1.107452594425e-01       9.167557452385e+01 
       1.145064249153e-01       1.094628582683e+02 
       1.183821370918e-01       1.104213785434e+02 
       1.223778605862e-01       9.486564333456e+01 
       1.264990921987e-01       6.804464325728e+01 
       1.307513701367e-01       3.825400454091e+01 
       1.351402814784e-01       1.407621640818e+01 
       1.396714684203e-01       1.410157223877e+00 
       1.443506338194e-01       1.569521957622e+00 
       1.491835465229e-01       1.103613943556e+01 
       1.541760469708e-01       2.316120723031e+01 
       1.593340535561e-01       3.116248579733e+01 
       1.646635702297e-01       3.108183220616e+01 
       1.701706958456e-01       2.337274766143e+01 
       1.758616357459e-01       1.232042906594e+01 
       1.817427160982e-01       3.335284806837e+00 
       1.878204015065e-01       5.345525835478e-03 
       1.941013164283e-01       2.165594869072e+00 
       2.005922709503e-01       6.526279689823e+00 
       2.073002914972e-01       9.116484857819e+00 
       2.142326570816e-01       8.061702777596e+00 
       2.213969417533e-01       4.453214336977e+00 
       2.288010639706e-01       1.076881567210e+00 
       2.364533437147e-01       9.592439563393e-03 
       2.443625682930e-01       1.035256094530e+00 
       2.525380679504e-01       2.311338755033e+00 
       2.609898026346e-01       2.338793020139e+00 
       2.697284615565e-01       1.226174804706e+00 
       2.787655775689e-01       1.965414486058e-01 
       2.881136588829e-01       4.899360477541e-02 
       2.977863412677e-01       4.496279893433e-01 
       3.077985646929e-01       6.181111106954e-01 
       3.181667794071e-01       3.446530058477e-01 
       3.289091877812e-01       4.442659670411e-02 
       3.400460299658e-01       2.514212390116e-02 
       3.515999236474e-01       1.302563331303e-01 
       3.635962711085e-01       1.181331636316e-01 
       3.760637506334e-01       2.785497975667e-02 
       3.890349143879e-01       1.683670682850e-03 
       4.025469216825e-01       2.653160926979e-02 
       4.166424456376e-01       2.145416116765e-02 
       4.313708035863e-01       2.347314332751e-03 
       4.467893782977e-01       2.072212022213e-03 
       4.629654199664e-01       5.636144628594e-03 
       4.799783501994e-01       1.475879623940e-03 
       4.979227319373e-01       1.711550882592e-04 
       5.169121270864e-01       8.283997976498e-04 
       5.370841404489e-01       7.386385079300e-05 
       5.586070464571e-01       1.619014647838e-04 
       5.816885094930e-01       8.688795847124e-05 
       6.065870144995e-01       3.095988434070e-08 
       6.336266468475e-01       3.382723918687e-05 
       6.632156059511e-01       1.706129315045e-06 
       6.958678639263e-01       5.657860432360e-06 
       7.322247985589e-01       1.111440855702e-06 
       7.730680195114e-01       1.319599929306e-06 
       8.193049553677e-01       7.227349196892e-06 
       8.718988016039e-01       4.730014439246e-07 
       9.317218031082e-01       4.438670688774e-06 
       9.993660908989e-01       2.398082383320e-06 
       1.075037110174e+00       6.570635306489e-08 
       1.158653485707e+00       3.373705451240e-06 
       1.250099157308e+00       1.091639949575e-07 
       1.349432401273e+00       7.099299434911e-06 
       1.456947457397e+00       6.047011240351e-09 
       1.573135111331e+00       9.536176837295e-06 
       1.698621895592e+00       5.771332920386e-06 
       1.834127512934e+00       4.435939897702e-08 
       1.980444934528e+00       4.334005576092e-07 
       2.138435191726e+00       6.330001037888e-06 
       2.309029199186e+00       1.006721307508e-06 
       2.493232377687e+00       4.287658337052e-09 
       2.692130395285e+00       4.557739910950e-06 
       2.906895534573e+00       2.907892417497e-06 
       3.138793597714e+00       2.995128158869e-07 
       3.389191366484e+00       6.428871596043e-06 
       3.659564657905e+00       3.212391295690e-06 
       3.951507022538e+00       2.645242291126e-06 
       4.266739136701e+00       4.741744267750e-08 
       4.607118943941e+00       2.117222784717e-06 
       4.974652605557e+00       1.155391460163e-06 
       5.371506324689e+00       1.407297120187e-06 
       5.800019113685e+00       6.259290806048e-07 
       6.262716579983e+00       2.698539687362e-07 
       6.762325811764e+00       1.193133792176e-06 
       7.301791451110e+00       3.103608615853e-07 
       7.884293049406e+00       2.394007590517e-07 
       8.513263807261e+00       3.589151996058e-07 
       9.192410809424e+00       3.329473643027e-07 
       9.925736873929e+00       1.327573680766e-06 
       1.071756414427e+01       1.943738903514e-07 
       1.157255956364e+01       5.873679487549e-07 
       1.249576238137e+01       3.598180637997e-09 
       1.349261385375e+01       1.093264400170e-09 
       1.456898931416e+01       3.537742733286e-11 
       1.573123280165e+01       6.071094108963e-11 
       1.698619445202e+01       1.566118406970e-09 
       1.834127087176e+01       1.034275158282e-07 
       1.980444873285e+01       4.681116906144e-08 
       2.138435184532e+01       7.340357394902e-09 
       2.309029198506e+01       3.322452758608e-09 
       2.493232377636e+01       1.229573689777e-09 
       2.692130395282e+01       1.267021535442e-10 
       2.906895534573e+01       6.864213176801e-11 
       3.138793597714e+01       5.913229784790e-10 
       3.389191366484e+01       4.029519272011e-10 
       3.659564657905e+01       1.170522531705e-11 
       3.951507022538e+01       1.237014971075e-12 
       4.266739136701e+01       1.244092155301e-11 
       4.607118943941e+01       1.324141557341e-09 
       4.974652605557e+01       1.083938084595e-09 
       5.371506324689e+01       2.881427029062e-12 
       5.800019113685e+01       1.039631982049e-11 
       6.262716579983e+01       7.644903712103e-11 
       6.762325811764e+01       1.571011414450e-10 
       7.301791451110e+01       4.359067724111e-11 
       7.884293049406e+01       6.041958044043e-12 
       8.513263807261e+01       1.479820520626e-12 
       9.192410809424e+01       8.220638706525e-12 
       9.925736873929e+01       1.046491827812e-11 
       1.071756414427e+02       1.226527134886e-11 
       1.157255956364e+02       4.318051728526e-11 
       1.249576238137e+02       6.022837497110e-12 
       1.349261385375e+02       6.912547324896e-13 
