# Matter power spectrum P(k) at redshift z=99
# for k=1.04775e-05 to 213.844 h/Mpc,
# number of wavenumbers equal to 261
#    1:k (h/Mpc)              2:P (Mpc/h)^3        
       1.047750691338e-05       7.261927129127e-03 
       1.131335172818e-05       7.820332187205e-03 
       1.221587619877e-05       8.421675421530e-03 
       1.319039970550e-05       9.069257780219e-03 
       1.424266598317e-05       9.766636496575e-03 
       1.537887697396e-05       1.051763978538e-02 
       1.660572938097e-05       1.132639256022e-02 
       1.793045413791e-05       1.219733207156e-02 
       1.936085902737e-05       1.313524193315e-02 
       2.090537469909e-05       1.414527091550e-02 
       2.257310435923e-05       1.523296551578e-02 
       2.437387742372e-05       1.640429662267e-02 
       2.631830745176e-05       1.766569611477e-02 
       2.841785470091e-05       1.902408719977e-02 
       3.068489367268e-05       2.048692976917e-02 
       3.313278604643e-05       2.206225477739e-02 
       3.577595943165e-05       2.375870894676e-02 
       3.862999240274e-05       2.558560681700e-02 
       4.171170631739e-05       2.755297685487e-02 
       4.503926445983e-05       2.967161947327e-02 
       4.863227909323e-05       3.195316470620e-02 
       5.251192705226e-05       3.441013481973e-02 
       5.670107455699e-05       3.705601759165e-02 
       6.122441198393e-05       3.990533431893e-02 
       6.610859938837e-05       4.297372262805e-02 
       7.138242363583e-05       4.627802077492e-02 
       7.707696806873e-05       4.983636183507e-02 
       8.322579570814e-05       5.366826811899e-02 
       8.986514707061e-05       5.779476346694e-02 
       9.703415376577e-05       6.223848250734e-02 
       1.047750691338e-04       6.702379856138e-02 
       1.131335172818e-04       7.217694962401e-02 
       1.221587619877e-04       7.772619066248e-02 
       1.319039970550e-04       8.370193419819e-02 
       1.424266598317e-04       9.013692548161e-02 
       1.537887697396e-04       9.706641175219e-02 
       1.660572938097e-04       1.045283347947e-01 
       1.793045413791e-04       1.125635334379e-01 
       1.936085902737e-04       1.212159597105e-01 
       2.090537469909e-04       1.305329113437e-01 
       2.257310435923e-04       1.405652825826e-01 
       2.437387742372e-04       1.513678281974e-01 
       2.631830745176e-04       1.629994482489e-01 
       2.841785470091e-04       1.755234898483e-01 
       3.068489367268e-04       1.890080653892e-01 
       3.313278604643e-04       2.035263986643e-01 
       3.577595943165e-04       2.191571787920e-01 
       3.862999240274e-04       2.359849433841e-01 
       4.171170631739e-04       2.541004724319e-01 
       4.503926445983e-04       2.736012073256e-01 
       4.863227909323e-04       2.945916787552e-01 
       5.251192705226e-04       3.171839521616e-01 
       5.670107455699e-04       3.414980783730e-01 
       6.122441198393e-04       3.676625431811e-01 
       6.610859938837e-04       3.958147289270e-01 
       7.138242363583e-04       4.261013349353e-01 
       7.707696806873e-04       4.586787899000e-01 
       8.322579570814e-04       4.937136131773e-01 
       8.986514707061e-04       5.313826981735e-01 
       9.703415376577e-04       5.718735197014e-01 
       1.047750691338e-03       6.153841946804e-01 
       1.131335172818e-03       6.621233643726e-01 
       1.221587619877e-03       7.123098763897e-01 
       1.319039970550e-03       7.661721283116e-01 
       1.424266598317e-03       8.239547199316e-01 
       1.537887697396e-03       8.859012298331e-01 
       1.660572938097e-03       9.522589506936e-01 
       1.793045413791e-03       1.023280285181e+00 
       1.936085902737e-03       1.099216541579e+00 
       2.090537469909e-03       1.180313283094e+00 
       2.257310435923e-03       1.266804482889e+00 
       2.437387742372e-03       1.358905321816e+00 
       2.631830745176e-03       1.456803275581e+00 
       2.841785470091e-03       1.560647647599e+00 
       3.068489367268e-03       1.670536988285e+00 
       3.313278604643e-03       1.786505008067e+00 
       3.577595943165e-03       1.908504366037e+00 
       3.862999240274e-03       2.036389481794e+00 
       4.171170631739e-03       2.169898419497e+00 
       4.503926445983e-03       2.308634472047e+00 
       4.863227909323e-03       2.452050559492e+00 
       5.251192705226e-03       2.599434533245e+00 
       5.670107455699e-03       2.749900691928e+00 
       6.122441198393e-03       2.902389707384e+00 
       6.610859938837e-03       3.055671437821e+00 
       7.138242363583e-03       3.208359040056e+00 
       7.707696806873e-03       3.358925491211e+00 
       8.322579570814e-03       3.505726821761e+00 
       8.986514707061e-03       3.647010637459e+00 
       9.703415376577e-03       3.780923689573e+00 
       1.047750691338e-02       3.905489793258e+00 
       1.131335172818e-02       4.018585684980e+00 
       1.221587619877e-02       4.117897512601e+00 
       1.319039970550e-02       4.200910642708e+00 
       1.424266598317e-02       4.264934489201e+00 
       1.537887697392e-02       4.307207633801e+00 
       1.660572938023e-02       4.325046861343e+00 
       1.793045412706e-02       4.316040327487e+00 
       1.936085890181e-02       4.278203266420e+00 
       2.090537352463e-02       4.210171892520e+00 
       2.257309535333e-02       4.111377523015e+00 
       2.437382002918e-02       3.982369171940e+00 
       2.631799944462e-02       3.825104293955e+00 
       2.841644545389e-02       3.643204493624e+00 
       3.067933355377e-02       3.442101660127e+00 
       3.311368470740e-02       3.229119813588e+00 
       3.571840443502e-02       3.013369039545e+00 
       3.847720348444e-02       2.805118668622e+00 
       4.135335538431e-02       2.614221293263e+00 
       4.429361667738e-02       2.447908537023e+00 
       4.724366439141e-02       2.308988959578e+00 
       5.016480835311e-02       2.195833425269e+00 
       5.303989620246e-02       2.104061121163e+00 
       5.586870669566e-02       2.028126715581e+00 
       5.866042680613e-02       1.962793444335e+00 
       6.142798932958e-02       1.903393566880e+00 
       6.418496440164e-02       1.846070356562e+00 
       6.694418833788e-02       1.787767675832e+00 
       6.971731106057e-02       1.726267180697e+00 
       7.251476155766e-02       1.660188436816e+00 
       7.534587671527e-02       1.588988505717e+00 
       7.821907666265e-02       1.512941824134e+00 
       8.114203772912e-02       1.433061852275e+00 
       8.412184535029e-02       1.350972331077e+00 
       8.716512279304e-02       1.268744755001e+00 
       9.027813695930e-02       1.188654119689e+00 
       9.346688431697e-02       1.112952319747e+00 
       9.673716028276e-02       1.043614023779e+00 
       1.000946150830e-01       9.821299929967e-01 
       1.035447986537e-01       9.293481242220e-01 
       1.070931966762e-01       8.853533659712e-01 
       1.107452594425e-01       8.494451784618e-01 
       1.145064249153e-01       8.201579326044e-01 
       1.183821370918e-01       7.953583155186e-01 
       1.223778605862e-01       7.724593045545e-01 
       1.264990921987e-01       7.487461219657e-01 
       1.307513701367e-01       7.218368627119e-01 
       1.351402814784e-01       6.901767342959e-01 
       1.396714684203e-01       6.534417670744e-01 
       1.443506338194e-01       6.126833057650e-01 
       1.491835465229e-01       5.701233153877e-01 
       1.541760469708e-01       5.286183831971e-01 
       1.593340535561e-01       4.909619645523e-01 
       1.646635702297e-01       4.591652119386e-01 
       1.701706958456e-01       4.339629560902e-01 
       1.758616357459e-01       4.146285632287e-01 
       1.817427160982e-01       3.991415893768e-01 
       1.878204015065e-01       3.848725802391e-01 
       1.941013164283e-01       3.689869573550e-01 
       2.005922709503e-01       3.497168754500e-01 
       2.073002914972e-01       3.272143404470e-01 
       2.142326570816e-01       3.033875296458e-01 
       2.213969417533e-01       2.807887382316e-01 
       2.288010639706e-01       2.614326214260e-01 
       2.364533437147e-01       2.461322087180e-01 
       2.443625682930e-01       2.341743511908e-01 
       2.525380679504e-01       2.235699365878e-01 
       2.609898026346e-01       2.122395618291e-01 
       2.697284615565e-01       1.992471229707e-01 
       2.787655775689e-01       1.851689432269e-01 
       2.881136588829e-01       1.716709645972e-01 
       2.977863412677e-01       1.602204509113e-01 
       3.077985646929e-01       1.509126446573e-01 
       3.181667794071e-01       1.427072594579e-01 
       3.289091877812e-01       1.343282861294e-01 
       3.400460299658e-01       1.253140398939e-01 
       3.515999236474e-01       1.163562220587e-01 
       3.635962711085e-01       1.083344456489e-01 
       3.760637506334e-01       1.014680084880e-01 
       3.890349143879e-01       9.509688086111e-02 
       4.025469216825e-01       8.867014876076e-02 
       4.166424456376e-01       8.227927990032e-02 
       4.313708035863e-01       7.638779580289e-02 
       4.467893782977e-01       7.107650462667e-02 
       4.629654199664e-01       6.604899392233e-02 
       4.799783501994e-01       6.110331628059e-02 
       4.979227319373e-01       5.641416484905e-02 
       5.169121270864e-01       5.210054121162e-02 
       5.370841404489e-01       4.797387659961e-02 
       5.586070464571e-01       4.400245553436e-02 
       5.816885094930e-01       4.027113906958e-02 
       6.065870144995e-01       3.671750776672e-02 
       6.336266468475e-01       3.331314951078e-02 
       6.632156059511e-01       3.008131019474e-02 
       6.958678639263e-01       2.698588939325e-02 
       7.322247985589e-01       2.403662037748e-02 
       7.730680195114e-01       2.122228415745e-02 
       8.193049553677e-01       1.855336839678e-02 
       8.718988016039e-01       1.604264184895e-02 
       9.317218031082e-01       1.371526036276e-02 
       9.993660908989e-01       1.160090461942e-02 
       1.075037110174e+00       9.723300250733e-03 
       1.158653485707e+00       8.091944946650e-03 
       1.250099157308e+00       6.699082821159e-03 
       1.349432401273e+00       5.522742340375e-03 
       1.456947457397e+00       4.536171767791e-03 
       1.573135111331e+00       3.712206205001e-03 
       1.698621895592e+00       3.026120139325e-03 
       1.834127512934e+00       2.456405668484e-03 
       1.980444934528e+00       1.984555055975e-03 
       2.138435191726e+00       1.594938172715e-03 
       2.309029199186e+00       1.274253157198e-03 
       2.493232377687e+00       1.011286840968e-03 
       2.692130395285e+00       7.965353417693e-04 
       2.906895534573e+00       6.220053072087e-04 
       3.138793597714e+00       4.809488451196e-04 
       3.389191366484e+00       3.676659846435e-04 
       3.659564657905e+00       2.773929143463e-04 
       3.951507022538e+00       2.061063351715e-04 
       4.266739136701e+00       1.503881871299e-04 
       4.607118943941e+00       1.074261730130e-04 
       4.974652605557e+00       7.478722121839e-05 
       5.371506324689e+00       5.045816934609e-05 
       5.800019113685e+00       3.274850994102e-05 
       6.262716579983e+00       2.022187406584e-05 
       6.762325811764e+00       1.168882197630e-05 
       7.301791451110e+00       6.157934699113e-06 
       7.884293049406e+00       2.816651620485e-06 
       8.513263807261e+00       1.004924716236e-06 
       9.192410809424e+00       1.998690449524e-07 
       9.925736873929e+00       2.222346450526e-11 
       1.071756414427e+01       1.104679109911e-07 
       1.157255956364e+01       3.289371691520e-07 
       1.249576238137e+01       5.298422350269e-07 
       1.349261385375e+01       6.501926235155e-07 
       1.456898931416e+01       6.727118826020e-07 
       1.573123280165e+01       6.110858445101e-07 
       1.698619445202e+01       4.952013763384e-07 
       1.834127087176e+01       3.581384489831e-07 
       1.980444873285e+01       2.289712821057e-07 
       2.138435184532e+01       1.260934466772e-07 
       2.309029198506e+01       5.663134683516e-08 
       2.493232377636e+01       1.823768273951e-08 
       2.692130395282e+01       2.664805665259e-09 
       2.906895534573e+01       8.900484594867e-11 
       3.138793597714e+01       2.300860714873e-09 
       3.389191366484e+01       4.373038349065e-09 
       3.659564657905e+01       4.605028613147e-09 
       3.951507022538e+01       3.385488803757e-09 
       4.266739136701e+01       1.800506060387e-09 
       4.607118943941e+01       6.448443195763e-10 
       4.974652605557e+01       1.109173986570e-10 
       5.371506324689e+01       1.559783587412e-15 
       5.800019113685e+01       3.126455280721e-11 
       6.262716579983e+01       5.013504689152e-11 
       6.762325811764e+01       3.423062911703e-11 
       7.301791451110e+01       1.234037117607e-11 
       7.884293049406e+01       1.668320841236e-12 
       8.513263807261e+01       1.656772529772e-14 
       9.192410809424e+01       4.367812668302e-13 
       9.925736873929e+01       3.274676870373e-13 
       1.071756414427e+02       6.295106992080e-14 
       1.157255956364e+02       4.834143537201e-16 
       1.249576238137e+02       1.930352956036e-14 
       1.349261385375e+02       1.740147817501e-14 
       1.456898931416e+02       6.339595618055e-15 
       1.573123280165e+02       1.677093324049e-15 
       1.698619445202e+02       8.037163157688e-16 
       1.834127087176e+02       7.672453080843e-16 
       1.980444873285e+02       8.142110978313e-16 
       2.138435184532e+02       5.947453933476e-16 
