# Matter power spectrum P(k) at redshift z=99
# for k=1.04775e-05 to 213.844 h/Mpc,
# number of wavenumbers equal to 261
#    1:k (h/Mpc)              2:P (Mpc/h)^3        
       1.047750691338e-05       7.261927223771e-03 
       1.131335172818e-05       7.820332289134e-03 
       1.221587619877e-05       8.421675531200e-03 
       1.319039970550e-05       9.069257898309e-03 
       1.424266598317e-05       9.766636623730e-03 
       1.537887697396e-05       1.051763992237e-02 
       1.660572938097e-05       1.132639270776e-02 
       1.793045413791e-05       1.219733222917e-02 
       1.936085902737e-05       1.313524210435e-02 
       2.090537469909e-05       1.414527109936e-02 
       2.257310435923e-05       1.523296571419e-02 
       2.437387742372e-05       1.640429683610e-02 
       2.631830745176e-05       1.766569634410e-02 
       2.841785470091e-05       1.902408744633e-02 
       3.068489367268e-05       2.048693003446e-02 
       3.313278604643e-05       2.206225506300e-02 
       3.577595943165e-05       2.375870925038e-02 
       3.862999240274e-05       2.558560714828e-02 
       4.171170631739e-05       2.755297725870e-02 
       4.503926445983e-05       2.967161986040e-02 
       4.863227909323e-05       3.195316512490e-02 
       5.251192705226e-05       3.441013526301e-02 
       5.670107455699e-05       3.705601807989e-02 
       6.122441198393e-05       3.990533484705e-02 
       6.610859938837e-05       4.297372324748e-02 
       7.138242363583e-05       4.627802145691e-02 
       7.707696806873e-05       4.983636249020e-02 
       8.322579570814e-05       5.366826881983e-02 
       8.986514707061e-05       5.779476421996e-02 
       9.703415376577e-05       6.223848331557e-02 
       1.047750691338e-04       6.702379943507e-02 
       1.131335172818e-04       7.217695134589e-02 
       1.221587619877e-04       7.772619164171e-02 
       1.319039970550e-04       8.370193526579e-02 
       1.424266598317e-04       9.013692663873e-02 
       1.537887697396e-04       9.706641299721e-02 
       1.660572938097e-04       1.045283361475e-01 
       1.793045413791e-04       1.125635348896e-01 
       1.936085902737e-04       1.212159612657e-01 
       2.090537469909e-04       1.305329130183e-01 
       2.257310435923e-04       1.405652843914e-01 
       2.437387742372e-04       1.513678301265e-01 
       2.631830745176e-04       1.629994503363e-01 
       2.841785470091e-04       1.755234920856e-01 
       3.068489367268e-04       1.890080677901e-01 
       3.313278604643e-04       2.035264012370e-01 
       3.577595943165e-04       2.191571815477e-01 
       3.862999240274e-04       2.359849463392e-01 
       4.171170631739e-04       2.541004755924e-01 
       4.503926445983e-04       2.736012107030e-01 
       4.863227909323e-04       2.945916823584e-01 
       5.251192705226e-04       3.171839559993e-01 
       5.670107455699e-04       3.414980824520e-01 
       6.122441198393e-04       3.676625475065e-01 
       6.610859938837e-04       3.958147334997e-01 
       7.138242363583e-04       4.261013397516e-01 
       7.707696806873e-04       4.586787949526e-01 
       8.322579570814e-04       4.937136184482e-01 
       8.986514707061e-04       5.313827036349e-01 
       9.703415376577e-04       5.718735253082e-01 
       1.047750691338e-03       6.153842003719e-01 
       1.131335172818e-03       6.621233700637e-01 
       1.221587619877e-03       7.123098819616e-01 
       1.319039970550e-03       7.661721336041e-01 
       1.424266598317e-03       8.239547248486e-01 
       1.537887697396e-03       8.859012340164e-01 
       1.660572938097e-03       9.522589535658e-01 
       1.793045413791e-03       1.023280285971e+00 
       1.936085902737e-03       1.099216539251e+00 
       2.090537469909e-03       1.180313276257e+00 
       2.257310435923e-03       1.266804469682e+00 
       2.437387742372e-03       1.358905299729e+00 
       2.631830745176e-03       1.456803241259e+00 
       2.841785470091e-03       1.560647605450e+00 
       3.068489367268e-03       1.670536922457e+00 
       3.313278604643e-03       1.786504886611e+00 
       3.577595943165e-03       1.908504236389e+00 
       3.862999240274e-03       2.036389313496e+00 
       4.171170631739e-03       2.169898140820e+00 
       4.503926445983e-03       2.308634186616e+00 
       4.863227909323e-03       2.452050000715e+00 
       5.251192705226e-03       2.599433894919e+00 
       5.670107455699e-03       2.749899679475e+00 
       6.122441198393e-03       2.902388244195e+00 
       6.610859938837e-03       3.055669544415e+00 
       7.138242363583e-03       3.208356470483e+00 
       7.707696806873e-03       3.358922094103e+00 
       8.322579570814e-03       3.505722120775e+00 
       8.986514707061e-03       3.647004624637e+00 
       9.703415376577e-03       3.780915140093e+00 
       1.047750691338e-02       3.905479180090e+00 
       1.131335172818e-02       4.018570437135e+00 
       1.221587619877e-02       4.117877113594e+00 
       1.319039970550e-02       4.200883650507e+00 
       1.424266598317e-02       4.264898877561e+00 
       1.537887697392e-02       4.307160897683e+00 
       1.660572938023e-02       4.324985731872e+00 
       1.793045412706e-02       4.315960946817e+00 
       1.936085890181e-02       4.278099310646e+00 
       2.090537352463e-02       4.210040109777e+00 
       2.257309535333e-02       4.111209416356e+00 
       2.437382002918e-02       3.982156137346e+00 
       2.631799944462e-02       3.824836713283e+00 
       2.841644545389e-02       3.642873665468e+00 
       3.067933355377e-02       3.441690040858e+00 
       3.311368470740e-02       3.228624180118e+00 
       3.571840443502e-02       3.012766375647e+00 
       3.847720348444e-02       2.804391000438e+00 
       4.135335538431e-02       2.613358663535e+00 
       4.429361667738e-02       2.446920899718e+00 
       4.724366439141e-02       2.307854680517e+00 
       5.016480835311e-02       2.194562409510e+00 
       5.303989620246e-02       2.102645410197e+00 
       5.586870669566e-02       2.026570915519e+00 
       5.866042680613e-02       1.961100271192e+00 
       6.142798932958e-02       1.901565209160e+00 
       6.418496440164e-02       1.844104423944e+00 
       6.694418833788e-02       1.785685040077e+00 
       6.971731106057e-02       1.724063312398e+00 
       7.251476155766e-02       1.657869937036e+00 
       7.534587671527e-02       1.586561020802e+00 
       7.821907666265e-02       1.510410092669e+00 
       8.114203772912e-02       1.430427954430e+00 
       8.412184535029e-02       1.348245186947e+00 
       8.716512279304e-02       1.265919274776e+00 
       9.027813695930e-02       1.185733674440e+00 
       9.346688431697e-02       1.109933662544e+00 
       9.673716028276e-02       1.040491787048e+00 
       1.000946150830e-01       9.789001073454e-01 
       1.035447986537e-01       9.259967498697e-01 
       1.070931966762e-01       8.818712279931e-01 
       1.107452594425e-01       8.458230796373e-01 
       1.145064249153e-01       8.163855222016e-01 
       1.183821370918e-01       7.914316805938e-01 
       1.223778605862e-01       7.683777112334e-01 
       1.264990921987e-01       7.445174907064e-01 
       1.307513701367e-01       7.174745820728e-01 
       1.351402814784e-01       6.857008057654e-01 
       1.396714684203e-01       6.488720617090e-01 
       1.443506338194e-01       6.080391676189e-01 
       1.491835465229e-01       5.654164316750e-01 
       1.541760469708e-01       5.238527533555e-01 
       1.593340535561e-01       4.861280055150e-01 
       1.646635702297e-01       4.542437072799e-01 
       1.701706958456e-01       4.289293773549e-01 
       1.758616357459e-01       4.094590802597e-01 
       1.817427160982e-01       3.938216623229e-01 
       1.878204015065e-01       3.794047701768e-01 
       1.941013164283e-01       3.633928947581e-01 
       2.005922709503e-01       3.440336037147e-01 
       2.073002914972e-01       3.214761585466e-01 
       2.142326570816e-01       2.976183105666e-01 
       2.213969417533e-01       2.749888043164e-01 
       2.288010639706e-01       2.555832296066e-01 
       2.364533437147e-01       2.402016956174e-01 
       2.443625682930e-01       2.281362358135e-01 
       2.525380679504e-01       2.174213042571e-01 
       2.609898026346e-01       2.060045142494e-01 
       2.697284615565e-01       1.929646557723e-01 
       2.787655775689e-01       1.788707471525e-01 
       2.881136588829e-01       1.653619919172e-01 
       2.977863412677e-01       1.538799035564e-01 
       3.077985646929e-01       1.445145079801e-01 
       3.181667794071e-01       1.362448556358e-01 
       3.289091877812e-01       1.278216430439e-01 
       3.400460299658e-01       1.187960287027e-01 
       3.515999236474e-01       1.098424564773e-01 
       3.635962711085e-01       1.018164747582e-01 
       3.760637506334e-01       9.492867832680e-02 
       3.890349143879e-01       8.853859557072e-02 
       4.025469216825e-01       8.211336646309e-02 
       4.166424456376e-01       7.574138240770e-02 
       4.313708035863e-01       6.986766814651e-02 
       4.467893782977e-01       6.456862477528e-02 
       4.629654199664e-01       5.956040991208e-02 
       4.799783501994e-01       5.465011730478e-02 
       4.979227319373e-01       5.000312180496e-02 
       5.169121270864e-01       4.573124397225e-02 
       5.370841404489e-01       4.165653671609e-02 
       5.586070464571e-01       3.774928431131e-02 
       5.816885094930e-01       3.408790141091e-02 
       6.065870144995e-01       3.061489025482e-02 
       6.336266468475e-01       2.730420214902e-02 
       6.632156059511e-01       2.417778914658e-02 
       6.958678639263e-01       2.120413464986e-02 
       7.322247985589e-01       1.839357237161e-02 
       7.730680195114e-01       1.573886524727e-02 
       8.193049553677e-01       1.325306250415e-02 
       8.718988016039e-01       1.095191293012e-02 
       9.317218031082e-01       8.862179078884e-03 
       9.993660908989e-01       7.012784118788e-03 
       1.075037110174e+00       5.424551870234e-03 
       1.158653485707e+00       4.101589192596e-03 
       1.250099157308e+00       3.030092102924e-03 
       1.349432401273e+00       2.182621141489e-03 
       1.456947457397e+00       1.527138424210e-03 
       1.573135111331e+00       1.031883599808e-03 
       1.698621895592e+00       6.676080901779e-04 
       1.834127512934e+00       4.084164173421e-04 
       1.980444934528e+00       2.316853140629e-04 
       2.138435191726e+00       1.179226928817e-04 
       2.309029199186e+00       5.050043279445e-05 
       2.493232377687e+00       1.557219793354e-05 
       2.692130395285e+00       1.838997650387e-06 
       2.906895534573e+00       4.772482476139e-07 
       3.138793597714e+00       4.947870072506e-06 
       3.389191366484e+00       1.079042804452e-05 
       3.659564657905e+00       1.533952739492e-05 
       3.951507022538e+00       1.741069770296e-05 
       4.266739136701e+00       1.691353781288e-05 
       4.607118943941e+00       1.445034728149e-05 
       4.974652605557e+00       1.093248078620e-05 
       5.371506324689e+00       7.276483067164e-06 
       5.800019113685e+00       4.164361868945e-06 
       6.262716579983e+00       1.948693377178e-06 
       6.762325811764e+00       6.621560995564e-07 
       7.301791451110e+00       1.099676223025e-07 
       7.884293049406e+00       8.057658617457e-10 
       8.513263807261e+00       6.751948234668e-08 
       9.192410809424e+00       1.380518935641e-07 
       9.925736873929e+00       1.479615643853e-07 
       1.071756414427e+01       1.077914317571e-07 
       1.157255956364e+01       5.506210712514e-08 
       1.249576238137e+01       1.773110665423e-08 
       1.349261385375e+01       2.161318511875e-09 
       1.456898931416e+01       1.585141046827e-10 
       1.573123280165e+01       1.705697666830e-09 
       1.698619445202e+01       2.019817723024e-09 
       1.834127087176e+01       1.113972659082e-09 
       1.980444873285e+01       2.885984939124e-10 
       2.138435184532e+01       1.206612121398e-11 
       2.309029198506e+01       1.393488080069e-11 
       2.493232377636e+01       2.585052164831e-11 
       2.692130395282e+01       1.006657942360e-11 
       2.906895534573e+01       4.919844718277e-13 
       3.138793597714e+01       5.642600571124e-13 
       3.389191366484e+01       9.931161661348e-13 
       3.659564657905e+01       3.908970057244e-13 
       3.951507022538e+01       5.651050083966e-14 
       4.266739136701e+01       8.063788987946e-15 
       4.607118943941e+01       9.974326003669e-15 
       4.974652605557e+01       1.750769232990e-14 
       5.371506324689e+01       1.520028109804e-14 
       5.800019113685e+01       8.727506392411e-15 
       6.262716579983e+01       5.211317922602e-15 
       6.762325811764e+01       3.268922735805e-15 
       7.301791451110e+01       2.002946318151e-15 
       7.884293049406e+01       1.199728498028e-15 
       8.513263807261e+01       5.989597745951e-16 
       9.192410809424e+01       3.612004918135e-16 
       9.925736873929e+01       1.948250532908e-16 
       1.071756414427e+02       6.346898050306e-17 
       1.157255956364e+02       2.420235540837e-17 
       1.249576238137e+02       7.815530599375e-18 
       1.349261385375e+02       1.180982417447e-18 
       1.456898931416e+02       6.542203888260e-20 
       1.573123280165e+02       2.400448153028e-19 
       1.698619445202e+02       2.455639510935e-20 
       1.834127087176e+02       8.509910790052e-20 
       1.980444873285e+02       4.459410736622e-22 
       2.138435184532e+02       2.527806394905e-20 
