# Matter power spectrum P(k) at redshift z=99
# for k=1.04775e-05 to 67.6233 h/Mpc,
# number of wavenumbers equal to 246
#    1:k (h/Mpc)              2:P (Mpc/h)^3        
       1.047750691338e-05       7.261928130451e-03 
       1.131335172818e-05       7.820332238147e-03 
       1.221587619877e-05       8.421676518156e-03 
       1.319039970550e-05       9.069258766051e-03 
       1.424266598317e-05       9.766639018149e-03 
       1.537887697396e-05       1.051764135916e-02 
       1.660572938097e-05       1.132639263930e-02 
       1.793045413791e-05       1.219733308071e-02 
       1.936085902737e-05       1.313524306899e-02 
       2.090537469909e-05       1.414527210722e-02 
       2.257310435923e-05       1.523296523774e-02 
       2.437387742372e-05       1.640429547883e-02 
       2.631830745176e-05       1.766569678194e-02 
       2.841785470091e-05       1.902408721068e-02 
       3.068489367268e-05       2.048693099839e-02 
       3.313278604643e-05       2.206225652110e-02 
       3.577595943165e-05       2.375871066993e-02 
       3.862999240274e-05       2.558560890008e-02 
       4.171170631739e-05       2.755297935377e-02 
       4.503926445983e-05       2.967162112575e-02 
       4.863227909323e-05       3.195316650173e-02 
       5.251192705226e-05       3.441013735178e-02 
       5.670107455699e-05       3.705601954336e-02 
       6.122441198393e-05       3.990533679672e-02 
       6.610859938837e-05       4.297372438274e-02 
       7.138242363583e-05       4.627802430877e-02 
       7.707696806873e-05       4.983636507226e-02 
       8.322579570814e-05       5.366827183968e-02 
       8.986514707061e-05       5.779476752677e-02 
       9.703415376577e-05       6.223848750603e-02 
       1.047750691338e-04       6.702380286149e-02 
       1.131335172818e-04       7.217695572973e-02 
       1.221587619877e-04       7.772619559454e-02 
       1.319039970550e-04       8.370193967597e-02 
       1.424266598317e-04       9.013693168548e-02 
       1.537887697396e-04       9.706641849549e-02 
       1.660572938097e-04       1.045283419607e-01 
       1.793045413791e-04       1.125635419172e-01 
       1.936085902737e-04       1.212159690563e-01 
       2.090537469909e-04       1.305329213907e-01 
       2.257310435923e-04       1.405652933451e-01 
       2.437387742372e-04       1.513678396366e-01 
       2.631830745176e-04       1.629994601205e-01 
       2.841785470091e-04       1.755235029433e-01 
       3.068489367268e-04       1.890080786561e-01 
       3.313278604643e-04       2.035264127003e-01 
       3.577595943165e-04       2.191571937167e-01 
       3.862999240274e-04       2.359849579925e-01 
       4.171170631739e-04       2.541004894795e-01 
       4.503926445983e-04       2.736012249896e-01 
       4.863227909323e-04       2.945916965334e-01 
       5.251192705226e-04       3.171839711185e-01 
       5.670107455699e-04       3.414980961175e-01 
       6.122441198393e-04       3.676625622657e-01 
       6.610859938837e-04       3.958147473805e-01 
       7.138242363583e-04       4.261013518876e-01 
       7.707696806873e-04       4.586788035869e-01 
       8.322579570814e-04       4.937136257233e-01 
       8.986514707061e-04       5.313827067978e-01 
       9.703415376577e-04       5.718735245115e-01 
       1.047750691338e-03       6.153841907168e-01 
       1.131335172818e-03       6.621233517765e-01 
       1.221587619877e-03       7.123098493707e-01 
       1.319039970550e-03       7.661720845305e-01 
       1.424266598317e-03       8.239546542274e-01 
       1.537887697396e-03       8.859011383104e-01 
       1.660572938097e-03       9.522588147501e-01 
       1.793045413791e-03       1.023280105906e+00 
       1.936085902737e-03       1.099216297342e+00 
       2.090537469909e-03       1.180312964240e+00 
       2.257310435923e-03       1.266804063062e+00 
       2.437387742372e-03       1.358904764166e+00 
       2.631830745176e-03       1.456802544074e+00 
       2.841785470091e-03       1.560646683795e+00 
       3.068489367268e-03       1.670535764277e+00 
       3.313278604643e-03       1.786503430178e+00 
       3.577595943165e-03       1.908502342178e+00 
       3.862999240274e-03       2.036386917207e+00 
       4.171170631739e-03       2.169895112385e+00 
       4.503926445983e-03       2.308630353154e+00 
       4.863227909323e-03       2.452045212010e+00 
       5.251192705226e-03       2.599427803523e+00 
       5.670107455699e-03       2.749893181228e+00 
       6.122441198393e-03       2.902381328279e+00 
       6.610859938837e-03       3.055661673523e+00 
       7.138242363583e-03       3.208347011153e+00 
       7.707696806873e-03       3.358911292299e+00 
       8.322579570814e-03       3.505708522249e+00 
       8.986514707061e-03       3.646986916763e+00 
       9.703415376577e-03       3.780892817545e+00 
       1.047750691338e-02       3.905449404202e+00 
       1.131335172818e-02       4.018534005201e+00 
       1.221587619877e-02       4.117830890384e+00 
       1.319039970550e-02       4.200821646610e+00 
       1.424266598317e-02       4.264820394217e+00 
       1.537887697392e-02       4.307061003031e+00 
       1.660572938023e-02       4.324857038926e+00 
       1.793045412706e-02       4.315795648446e+00 
       1.936085890181e-02       4.277894575077e+00 
       2.090537352463e-02       4.209775702902e+00 
       2.257309535333e-02       4.110882944203e+00 
       2.437382002918e-02       3.981756286929e+00 
       2.631799944462e-02       3.824333799376e+00 
       2.841644545389e-02       3.642248653809e+00 
       3.067933355377e-02       3.440941643985e+00 
       3.311368470740e-02       3.227714611406e+00 
       3.571840443502e-02       3.011698109843e+00 
       3.847720348444e-02       2.803131963262e+00 
       4.135335538431e-02       2.611921425030e+00 
       4.429361667738e-02       2.445268470857e+00 
       4.724366439141e-02       2.306009148844e+00 
       5.016480835311e-02       2.192516037786e+00 
       5.303989620246e-02       2.100411249136e+00 
       5.586870669566e-02       2.024168548922e+00 
       5.866042680613e-02       1.958538485117e+00 
       6.142798932958e-02       1.898858070497e+00 
       6.418496440164e-02       1.841282225046e+00 
       6.694418833788e-02       1.782744694569e+00 
       6.971731106057e-02       1.721040227054e+00 
       7.251476155766e-02       1.654774042994e+00 
       7.534587671527e-02       1.583417012896e+00 
       7.821907666265e-02       1.507230563021e+00 
       8.114203772912e-02       1.427228350279e+00 
       8.412184535029e-02       1.345037618928e+00 
       8.716512279304e-02       1.262710049589e+00 
       9.027813695930e-02       1.182524868031e+00 
       9.346688431697e-02       1.106719633060e+00 
       9.673716028276e-02       1.037271405567e+00 
       1.000946150830e-01       9.756602927013e-01 
       1.035447986537e-01       9.227302366347e-01 
       1.070931966762e-01       8.785646404285e-01 
       1.107452594425e-01       8.424678457963e-01 
       1.145064249153e-01       8.129737512165e-01 
       1.183821370918e-01       7.879668205580e-01 
       1.223778605862e-01       7.648641653424e-01 
       1.264990921987e-01       7.409743390994e-01 
       1.307513701367e-01       7.139251244121e-01 
       1.351402814784e-01       6.821718357819e-01 
       1.396714684203e-01       6.453909672622e-01 
       1.443506338194e-01       6.046283537495e-01 
       1.491835465229e-01       5.620914256932e-01 
       1.541760469708e-01       5.206143014214e-01 
       1.593340535561e-01       4.829692051252e-01 
       1.646635702297e-01       4.511444901932e-01 
       1.701706958456e-01       4.258726929767e-01 
       1.758616357459e-01       4.064251715011e-01 
       1.817427160982e-01       3.908058178946e-01 
       1.878204015065e-01       3.764125351386e-01 
       1.941013164283e-01       3.604460190584e-01 
       2.005922709503e-01       3.411591103365e-01 
       2.073002914972e-01       3.187014741603e-01 
       2.142326570816e-01       2.949567526869e-01 
       2.213969417533e-01       2.724398500285e-01 
       2.288010639706e-01       2.531332595414e-01 
       2.364533437147e-01       2.378320913077e-01 
       2.443625682930e-01       2.258349926814e-01 
       2.525380679504e-01       2.151883519623e-01 
       2.609898026346e-01       2.038540301281e-01 
       2.697284615565e-01       1.909147936688e-01 
       2.787655775689e-01       1.769336876775e-01 
       2.881136588829e-01       1.635386126831e-01 
       2.977863412677e-01       1.521588823114e-01 
       3.077985646929e-01       1.428870234331e-01 
       3.181667794071e-01       1.347073475276e-01 
       3.289091877812e-01       1.263819294287e-01 
       3.400460299658e-01       1.174616475786e-01 
       3.515999236474e-01       1.086174883394e-01 
       3.635962711085e-01       1.006951575023e-01 
       3.760637506334e-01       9.390590417214e-02 
       3.890349143879e-01       8.761348148806e-02 
       4.025469216825e-01       8.128910147296e-02 
       4.166424456376e-01       7.501897913657e-02 
       4.313708035863e-01       6.924531181169e-02 
       4.467893782977e-01       6.404322266839e-02 
       4.629654199664e-01       5.913101402408e-02 
       4.799783501994e-01       5.431674276482e-02 
       4.979227319373e-01       4.976445784698e-02 
       5.169121270864e-01       4.558508997175e-02 
       5.370841404489e-01       4.160157202062e-02 
       5.586070464571e-01       3.778379141427e-02 
       5.816885094930e-01       3.420988126273e-02 
       6.065870144995e-01       3.082210457504e-02 
       6.336266468475e-01       2.759444146400e-02 
       6.632156059511e-01       2.454804642526e-02 
       6.958678639263e-01       2.165107225940e-02 
       7.322247985589e-01       1.891286946390e-02 
       7.730680195114e-01       1.632517445153e-02 
       8.193049553677e-01       1.389924934195e-02 
       8.718988016039e-01       1.164863244571e-02 
       9.317218031082e-01       9.597433188904e-03 
       9.993660908989e-01       7.771884957956e-03 
       1.075037110174e+00       6.190683659711e-03 
       1.158653485707e+00       4.857304832361e-03 
       1.250099157308e+00       3.758584024422e-03 
       1.349432401273e+00       2.868763737000e-03 
       1.456947457397e+00       2.158327487794e-03 
       1.573135111331e+00       1.598230805718e-03 
       1.698621895592e+00       1.162315488924e-03 
       1.834127512934e+00       8.278434072619e-04 
       1.980444934528e+00       5.753741806013e-04 
       2.138435191726e+00       3.884633572042e-04 
       2.309029199186e+00       2.532158157083e-04 
       2.493232377687e+00       1.580388931689e-04 
       2.692130395285e+00       9.331316907677e-05 
       2.906895534573e+00       5.117411695382e-05 
       3.138793597714e+00       2.527160758848e-05 
       3.389191366484e+00       1.059359964745e-05 
       3.659564657905e+00       3.277920641686e-06 
       3.951507022538e+00       4.444138572824e-07 
       4.266739136701e+00       4.198003014204e-08 
       4.607118943941e+00       6.953385291661e-07 
       4.974652605557e+00       1.563977695146e-06 
       5.371506324689e+00       2.208509359516e-06 
       5.800019113685e+00       2.470689392346e-06 
       6.262716579983e+00       2.368195084768e-06 
       6.762325811764e+00       2.009070126282e-06 
       7.301791451110e+00       1.527336930847e-06 
       7.884293049406e+00       1.040811384116e-06 
       8.513263807261e+00       6.292963967707e-07 
       9.192410809424e+00       3.293741469073e-07 
       9.925736873929e+00       1.418337233488e-07 
       1.071756414427e+01       4.460163026660e-08 
       1.157255956364e+01       6.861344776733e-09 
       1.249576238137e+01       5.677600432808e-11 
       1.349261385375e+01       3.925562770278e-09 
       1.456898931416e+01       7.745706274391e-09 
       1.573123280165e+01       8.242679527504e-09 
       1.698619445202e+01       6.195682279996e-09 
       1.834127087176e+01       3.485473498587e-09 
       1.980444873285e+01       1.426982481068e-09 
       2.138435184532e+01       3.666776583537e-10 
       2.309029198506e+01       2.955773440683e-11 
       2.493232377636e+01       7.781918601354e-12 
       2.692130395282e+01       3.904642932494e-11 
       2.906895534573e+01       4.059272261055e-11 
       3.138793597714e+01       2.258256718255e-11 
       3.389191366484e+01       7.254442428707e-12 
       3.659564657905e+01       1.050141224540e-12 
       3.951507022538e+01       3.030764558301e-15 
       4.266739136701e+01       7.960035524134e-14 
       4.607118943941e+01       5.307548179857e-14 
       4.974652605557e+01       2.124820380460e-15 
       5.371506324689e+01       1.168987639754e-14 
       5.800019113685e+01       3.062696449156e-14 
       6.262716579983e+01       2.941780377392e-14 
       6.762325811764e+01       1.939905244819e-14 
