# Matter power spectrum P(k) at redshift z=99
# for k=1.04775e-05 to 134.926 h/Mpc,
# number of wavenumbers equal to 255
#    1:k (h/Mpc)              2:P (Mpc/h)^3        
       1.047750691338e-05       7.261927101482e-03 
       1.131335172818e-05       7.820332157430e-03 
       1.221587619877e-05       8.421675389509e-03 
       1.319039970550e-05       9.069257745734e-03 
       1.424266598317e-05       9.766636459449e-03 
       1.537887697396e-05       1.051763974538e-02 
       1.660572938097e-05       1.132639251717e-02 
       1.793045413791e-05       1.219733202542e-02 
       1.936085902737e-05       1.313524188323e-02 
       2.090537469909e-05       1.414527086182e-02 
       2.257310435923e-05       1.523296545791e-02 
       2.437387742372e-05       1.640429656039e-02 
       2.631830745176e-05       1.766569604788e-02 
       2.841785470091e-05       1.902408712779e-02 
       3.068489367268e-05       2.048692969182e-02 
       3.313278604643e-05       2.206225469418e-02 
       3.577595943165e-05       2.375870885841e-02 
       3.862999240274e-05       2.558560672001e-02 
       4.171170631739e-05       2.755297674891e-02 
       4.503926445983e-05       2.967161935963e-02 
       4.863227909323e-05       3.195316458396e-02 
       5.251192705226e-05       3.441013469046e-02 
       5.670107455699e-05       3.705601744899e-02 
       6.122441198393e-05       3.990533416325e-02 
       6.610859938837e-05       4.297372246247e-02 
       7.138242363583e-05       4.627802059070e-02 
       7.707696806873e-05       4.983636164217e-02 
       8.322579570814e-05       5.366826791508e-02 
       8.986514707061e-05       5.779476324679e-02 
       9.703415376577e-05       6.223848227138e-02 
       1.047750691338e-04       6.702379830731e-02 
       1.131335172818e-04       7.217695037070e-02 
       1.221587619877e-04       7.772619036945e-02 
       1.319039970550e-04       8.370193387384e-02 
       1.424266598317e-04       9.013692514278e-02 
       1.537887697396e-04       9.706641138623e-02 
       1.660572938097e-04       1.045283343999e-01 
       1.793045413791e-04       1.125635330139e-01 
       1.936085902737e-04       1.212159592554e-01 
       2.090537469909e-04       1.305329108537e-01 
       2.257310435923e-04       1.405652820548e-01 
       2.437387742372e-04       1.513678276341e-01 
       2.631830745176e-04       1.629994476503e-01 
       2.841785470091e-04       1.755234891949e-01 
       3.068489367268e-04       1.890080646879e-01 
       3.313278604643e-04       2.035263979125e-01 
       3.577595943165e-04       2.191571779860e-01 
       3.862999240274e-04       2.359849425206e-01 
       4.171170631739e-04       2.541004715083e-01 
       4.503926445983e-04       2.736012063384e-01 
       4.863227909323e-04       2.945916777017e-01 
       5.251192705226e-04       3.171839510393e-01 
       5.670107455699e-04       3.414980771798e-01 
       6.122441198393e-04       3.676625419154e-01 
       6.610859938837e-04       3.958147275882e-01 
       7.138242363583e-04       4.261013335244e-01 
       7.707696806873e-04       4.586787884187e-01 
       8.322579570814e-04       4.937136116305e-01 
       8.986514707061e-04       5.313826965690e-01 
       9.703415376577e-04       5.718735180518e-01 
       1.047750691338e-03       6.153841930025e-01 
       1.131335172818e-03       6.621233626904e-01 
       1.221587619877e-03       7.123098747366e-01 
       1.319039970550e-03       7.661721267326e-01 
       1.424266598317e-03       8.239547184596e-01 
       1.537887697396e-03       8.859012285642e-01 
       1.660572938097e-03       9.522589497758e-01 
       1.793045413791e-03       1.023280284809e+00 
       1.936085902737e-03       1.099216542010e+00 
       2.090537469909e-03       1.180313284671e+00 
       2.257310435923e-03       1.266804486065e+00 
       2.437387742372e-03       1.358905327196e+00 
       2.631830745176e-03       1.456803283965e+00 
       2.841785470091e-03       1.560647660071e+00 
       3.068489367268e-03       1.670537006280e+00 
       3.313278604643e-03       1.786505033534e+00 
       3.577595943165e-03       1.908504401569e+00 
       3.862999240274e-03       2.036389456892e+00 
       4.171170631739e-03       2.169898236465e+00 
       4.503926445983e-03       2.308634479319e+00 
       4.863227909323e-03       2.452050668914e+00 
       5.251192705226e-03       2.599434701095e+00 
       5.670107455699e-03       2.749900918314e+00 
       6.122441198393e-03       2.902390088060e+00 
       6.610859938837e-03       3.055671697406e+00 
       7.138242363583e-03       3.208359636413e+00 
       7.707696806873e-03       3.358926341697e+00 
       8.322579570814e-03       3.505727851215e+00 
       8.986514707061e-03       3.647012481959e+00 
       9.703415376577e-03       3.780925538323e+00 
       1.047750691338e-02       3.905492243014e+00 
       1.131335172818e-02       4.018588851618e+00 
       1.221587619877e-02       4.117901795677e+00 
       1.319039970550e-02       4.200916263888e+00 
       1.424266598317e-02       4.264941851727e+00 
       1.537887697392e-02       4.307217178524e+00 
       1.660572938023e-02       4.325059216820e+00 
       1.793045412706e-02       4.316056222498e+00 
       1.936085890181e-02       4.278223534788e+00 
       2.090537352463e-02       4.210197738732e+00 
       2.257309535333e-02       4.111410075771e+00 
       2.437382002918e-02       3.982410085389e+00 
       2.631799944462e-02       3.825155125974e+00 
       2.841644545389e-02       3.643264942278e+00 
       3.067933355377e-02       3.442178161424e+00 
       3.311368470740e-02       3.229215599096e+00 
       3.571840443502e-02       3.013486026804e+00 
       3.847720348444e-02       2.805246897458e+00 
       4.135335538431e-02       2.614368592697e+00 
       4.429361667738e-02       2.448081484436e+00 
       4.724366439141e-02       2.309185889615e+00 
       5.016480835311e-02       2.196053875374e+00 
       5.303989620246e-02       2.104302113041e+00 
       5.586870669566e-02       2.028388561869e+00 
       5.866042680613e-02       1.963075165914e+00 
       6.142798932958e-02       1.903693713655e+00 
       6.418496440164e-02       1.846387652422e+00 
       6.694418833788e-02       1.788100672505e+00 
       6.971731106057e-02       1.726613972465e+00 
       7.251476155766e-02       1.660548136287e+00 
       7.534587671527e-02       1.589359422654e+00 
       7.821907666265e-02       1.513322216481e+00 
       8.114203772912e-02       1.433450759968e+00 
       8.412184535029e-02       1.351370539020e+00 
       8.716512279304e-02       1.269148450333e+00 
       9.027813695930e-02       1.189064973865e+00 
       9.346688431697e-02       1.113369321442e+00 
       9.673716028276e-02       1.044039085826e+00 
       1.000946150830e-01       9.825665864216e-01 
       1.035447986537e-01       9.297939895098e-01 
       1.070931966762e-01       8.858096733511e-01 
       1.107452594425e-01       8.499166613152e-01 
       1.145064249153e-01       8.206432401852e-01 
       1.183821370918e-01       7.958589834449e-01 
       1.223778605862e-01       7.729737644971e-01 
       1.264990921987e-01       7.492738072551e-01 
       1.307513701367e-01       7.223745766180e-01 
       1.351402814784e-01       6.907218307835e-01 
       1.396714684203e-01       6.539909987022e-01 
       1.443506338194e-01       6.132341606850e-01 
       1.491835465229e-01       5.706736947444e-01 
       1.541760469708e-01       5.291685881690e-01 
       1.593340535561e-01       4.915126037333e-01 
       1.646635702297e-01       4.597190704404e-01 
       1.701706958456e-01       4.345230500328e-01 
       1.758616357459e-01       4.151978734325e-01 
       1.817427160982e-01       3.997213759057e-01 
       1.878204015065e-01       3.854617849997e-01 
       1.941013164283e-01       3.695839420813e-01 
       2.005922709503e-01       3.503179306013e-01 
       2.073002914972e-01       3.278115267812e-01 
       2.142326570816e-01       3.039826665065e-01 
       2.213969417533e-01       2.813802591723e-01 
       2.288010639706e-01       2.620233127349e-01 
       2.364533437147e-01       2.467252160366e-01 
       2.443625682930e-01       2.347723472427e-01 
       2.525380679504e-01       2.241731473951e-01 
       2.609898026346e-01       2.128458802183e-01 
       2.697284615565e-01       1.998523724785e-01 
       2.787655775689e-01       1.857695938897e-01 
       2.881136588829e-01       1.722664208143e-01 
       2.977863412677e-01       1.608139712883e-01 
       3.077985646929e-01       1.515066006988e-01 
       3.181667794071e-01       1.433023562562e-01 
       3.289091877812e-01       1.349225135036e-01 
       3.400460299658e-01       1.259045929312e-01 
       3.515999236474e-01       1.169420650450e-01 
       3.635962711085e-01       1.089162209988e-01 
       3.760637506334e-01       1.020474244967e-01 
       3.890349143879e-01       9.567439850047e-02 
       4.025469216825e-01       8.924374270082e-02 
       4.166424456376e-01       8.284777977124e-02 
       4.313708035863e-01       7.695138471169e-02 
       4.467893782977e-01       7.163593425791e-02 
       4.629654199664e-01       6.660397982676e-02 
       4.799783501994e-01       6.165258543619e-02 
       4.979227319373e-01       5.695753504393e-02 
       5.169121270864e-01       5.263847895676e-02 
       5.370841404489e-01       4.850573026555e-02 
       5.586070464571e-01       4.452756049504e-02 
       5.816885094930e-01       4.078929283264e-02 
       6.065870144995e-01       3.722824561654e-02 
       6.336266468475e-01       3.381585030654e-02 
       6.632156059511e-01       3.057550341678e-02 
       6.958678639263e-01       2.747090265441e-02 
       7.322247985589e-01       2.451165286082e-02 
       7.730680195114e-01       2.168645617410e-02 
       8.193049553677e-01       1.900573688327e-02 
       8.718988016039e-01       1.648208393021e-02 
       9.317218031082e-01       1.414071064755e-02 
       9.993660908989e-01       1.201138812614e-02 
       1.075037110174e+00       1.011804014442e-02 
       1.158653485707e+00       8.470291549036e-03 
       1.250099157308e+00       7.060660717841e-03 
       1.349432401273e+00       5.867338658290e-03 
       1.456947457397e+00       4.863691553465e-03 
       1.573135111331e+00       4.022617537599e-03 
       1.698621895592e+00       3.319395230882e-03 
       1.834127512934e+00       2.732561452416e-03 
       1.980444934528e+00       2.243640263407e-03 
       2.138435191726e+00       1.837035874152e-03 
       2.309029199186e+00       1.499490070765e-03 
       2.493232377687e+00       1.219808876661e-03 
       2.692130395285e+00       9.885529036803e-04 
       2.906895534573e+00       7.977672658097e-04 
       3.138793597714e+00       6.407492553566e-04 
       3.389191366484e+00       5.118856843458e-04 
       3.659564657905e+00       4.064583476511e-04 
       3.951507022538e+00       3.205198304297e-04 
       4.266739136701e+00       2.507555560852e-04 
       4.607118943941e+00       1.943943450769e-04 
       4.974652605557e+00       1.491229741361e-04 
       5.371506324689e+00       1.130040233749e-04 
       5.800019113685e+00       8.441700095530e-05 
       6.262716579983e+00       6.200966617907e-05 
       6.762325811764e+00       4.464814464951e-05 
       7.301791451110e+00       3.138521522802e-05 
       7.884293049406e+00       2.142595509812e-05 
       8.513263807261e+00       1.410518299789e-05 
       9.192410809424e+00       8.866817826259e-06 
       9.925736873929e+00       5.244827983303e-06 
       1.071756414427e+01       2.852008377956e-06 
       1.157255956364e+01       1.367814436615e-06 
       1.249576238137e+01       5.309137606840e-07 
       1.349261385375e+01       1.312207036927e-07 
       1.456898931416e+01       4.392941165694e-09 
       1.573123280165e+01       2.676077118788e-08 
       1.698619445202e+01       1.104494378600e-07 
       1.834127087176e+01       1.982013097100e-07 
       1.980444873285e+01       2.583104803132e-07 
       2.138435184532e+01       2.789375962422e-07 
       2.309029198506e+01       2.624304325727e-07 
       2.493232377636e+01       2.192677862451e-07 
       2.692130395282e+01       1.633160978037e-07 
       2.906895534573e+01       1.075584467543e-07 
       3.138793597714e+01       6.112398996936e-08 
       3.389191366484e+01       2.856827618532e-08 
       3.659564657905e+01       9.764000594057e-09 
       3.951507022538e+01       1.673390460937e-09 
       4.266739136701e+01       5.040688186447e-12 
       4.607118943941e+01       9.011710577707e-10 
       4.974652605557e+01       1.894772763691e-09 
       5.371506324689e+01       2.052674486735e-09 
       5.800019113685e+01       1.509393458896e-09 
       6.262716579983e+01       7.825874747108e-10 
       6.762325811764e+01       2.611905217513e-10 
       7.301791451110e+01       3.705447677652e-11 
       7.884293049406e+01       5.697416641166e-13 
       8.513263807261e+01       1.657369979721e-11 
       9.192410809424e+01       2.055812679227e-11 
       9.925736873929e+01       1.098810067479e-11 
       1.071756414427e+02       2.643493571896e-12 
       1.157255956364e+02       9.047880764389e-14 
       1.249576238137e+02       1.149968011304e-13 
       1.349261385375e+02       1.626940946842e-13 
