# Matter power spectrum P(k) at redshift z=0
# for k=1.04775e-05 to 134.926 h/Mpc,
# number of wavenumbers equal to 255
#    1:k (h/Mpc)              2:P (Mpc/h)^3        
       1.047750691338e-05       5.020962645709e+01 
       1.131335172818e-05       5.407047371961e+01 
       1.221587619877e-05       5.822819640941e+01 
       1.319039970550e-05       6.270561252537e+01 
       1.424266598317e-05       6.752730612499e+01 
       1.537887697396e-05       7.271976050080e+01 
       1.660572938097e-05       7.831145987567e+01 
       1.793045413791e-05       8.433311356550e+01 
       1.936085902737e-05       9.081779343768e+01 
       2.090537469909e-05       9.780107027483e+01 
       2.257310435923e-05       1.053212792323e+02 
       2.437387742372e-05       1.134197138126e+02 
       2.631830745176e-05       1.221408203146e+02 
       2.841785470091e-05       1.315324514356e+02 
       3.068489367268e-05       1.416461575670e+02 
       3.313278604643e-05       1.525374349876e+02 
       3.577595943165e-05       1.642660428304e+02 
       3.862999240274e-05       1.768963369750e+02 
       4.171170631739e-05       1.904975944215e+02 
       4.503926445983e-05       2.051444169088e+02 
       4.863227909323e-05       2.209171358427e+02 
       5.251192705226e-05       2.379022214581e+02 
       5.670107455699e-05       2.561927804438e+02 
       6.122441198393e-05       2.758890444936e+02 
       6.610859938837e-05       2.970989222728e+02 
       7.138242363583e-05       3.199385566963e+02 
       7.707696806873e-05       3.445329735779e+02 
       8.322579570814e-05       3.710167317556e+02 
       8.986514707061e-05       3.995346461968e+02 
       9.703415376577e-05       4.302425396114e+02 
       1.047750691338e-04       4.633080768453e+02 
       1.131335172818e-04       4.989116278958e+02 
       1.221587619877e-04       5.372471949043e+02 
       1.319039970550e-04       5.785234113851e+02 
       1.424266598317e-04       6.229645932911e+02 
       1.537887697396e-04       6.708118475080e+02 
       1.660572938097e-04       7.223242647482e+02 
       1.793045413791e-04       7.777801537159e+02 
       1.936085902737e-04       8.374783574996e+02 
       2.090537469909e-04       9.017396195316e+02 
       2.257310435923e-04       9.709080155085e+02 
       2.437387742372e-04       1.045352430426e+03 
       2.631830745176e-04       1.125468095311e+03 
       2.841785470091e-04       1.211678139697e+03 
       3.068489367268e-04       1.304435189730e+03 
       3.313278604643e-04       1.404222967554e+03 
       3.577595943165e-04       1.511557889453e+03 
       3.862999240274e-04       1.626990655402e+03 
       4.171170631739e-04       1.751107756107e+03 
       4.503926445983e-04       1.884532999377e+03 
       4.863227909323e-04       2.027928812765e+03 
       5.251192705226e-04       2.181997628436e+03 
       5.670107455699e-04       2.347482911644e+03 
       6.122441198393e-04       2.525170148613e+03 
       6.610859938837e-04       2.715887495943e+03 
       7.138242363583e-04       2.920506101482e+03 
       7.707696806873e-04       3.139939933224e+03 
       8.322579570814e-04       3.375144888872e+03 
       8.986514707061e-04       3.627117153941e+03 
       9.703415376577e-04       3.896890100633e+03 
       1.047750691338e-03       4.185530418942e+03 
       1.131335172818e-03       4.494131011888e+03 
       1.221587619877e-03       4.823805735805e+03 
       1.319039970550e-03       5.175678744400e+03 
       1.424266598317e-03       5.550927914552e+03 
       1.537887697396e-03       5.950657286245e+03 
       1.660572938097e-03       6.375936349871e+03 
       1.793045413791e-03       6.827808614093e+03 
       1.936085902737e-03       7.307249695665e+03 
       2.090537469909e-03       7.815141312132e+03 
       2.257310435923e-03       8.352242648689e+03 
       2.437387742372e-03       8.919161140372e+03 
       2.631830745176e-03       9.516312655708e+03 
       2.841785470091e-03       1.014388299949e+04 
       3.068489367268e-03       1.080178272693e+04 
       3.313278604643e-03       1.148959824741e+04 
       3.577595943165e-03       1.220652952664e+04 
       3.862999240274e-03       1.295132126394e+04 
       4.171170631739e-03       1.372219493663e+04 
       4.503926445983e-03       1.451675812199e+04 
       4.863227909323e-03       1.533191074005e+04 
       5.251192705226e-03       1.616387460753e+04 
       5.670107455699e-03       1.700795861831e+04 
       6.122441198393e-03       1.785836610009e+04 
       6.610859938837e-03       1.870828471811e+04 
       7.138242363583e-03       1.954967034603e+04 
       7.707696806873e-03       2.037306207971e+04 
       8.322579570814e-03       2.116750000841e+04 
       8.986514707061e-03       2.192023979193e+04 
       9.703415376577e-03       2.261676753476e+04 
       1.047750691338e-02       2.324060255822e+04 
       1.131335172818e-02       2.377309206814e+04 
       1.221587619877e-02       2.419346408082e+04 
       1.319039970550e-02       2.447887302744e+04 
       1.424266598317e-02       2.460455609275e+04 
       1.537887697392e-02       2.454437288466e+04 
       1.660572938023e-02       2.427125587574e+04 
       1.793045412706e-02       2.375871722806e+04 
       1.936085890181e-02       2.298236866379e+04 
       2.090537352463e-02       2.192237950083e+04 
       2.257309535333e-02       2.056673923189e+04 
       2.437382002918e-02       1.891470484567e+04 
       2.631799944462e-02       1.698216276900e+04 
       2.841644545389e-02       1.480606958514e+04 
       3.067933355377e-02       1.244987978652e+04 
       3.311368470740e-02       1.000755903052e+04 
       3.571840443502e-02       7.604139530712e+03 
       3.847720348444e-02       5.385707896001e+03 
       4.135335538431e-02       3.493070977448e+03 
       4.429361667738e-02       2.023668931157e+03 
       4.724366439141e-02       1.001379782102e+03 
       5.016480835311e-02       3.813645906469e+02 
       5.303989620246e-02       7.890969115789e+01 
       5.586870669566e-02       3.945856131855e-02 
       5.866042680613e-02       5.941789998822e+01 
       6.142798932958e-02       1.872252013788e+02 
       6.418496440164e-02       3.305092133135e+02 
       6.694418833788e-02       4.520715151979e+02 
       6.971731106057e-02       5.293404379256e+02 
       7.251476155766e-02       5.527852304545e+02 
       7.534587671527e-02       5.232334561427e+02 
       7.821907666265e-02       4.502676322922e+02 
       8.114203772912e-02       3.494737238659e+02 
       8.412184535029e-02       2.389336407722e+02 
       8.716512279304e-02       1.367131143342e+02 
       9.027813695930e-02       5.782193835287e+01 
       9.346688431697e-02       1.157703512602e+01 
       9.673716028276e-02       4.801712742694e-01 
       1.000946150830e-01       1.990865531050e+01 
       1.035447986537e-01       5.925006185827e+01 
       1.070931966762e-01       1.044579135205e+02 
       1.107452594425e-01       1.412586463563e+02 
       1.145064249153e-01       1.586968498603e+02 
       1.183821370918e-01       1.519022708950e+02 
       1.223778605862e-01       1.233321407384e+02 
       1.264990921987e-01       8.193942800029e+01 
       1.307513701367e-01       4.034877747528e+01 
       1.351402814784e-01       1.059883850522e+01 
       1.396714684203e-01       3.716265875759e-03 
       1.443506338194e-01       8.475474391703e+00 
       1.491835465229e-01       2.863148119713e+01 
       1.541760469708e-01       4.894051199938e+01 
       1.593340535561e-01       5.881283964246e+01 
       1.646635702297e-01       5.344472534082e+01 
       1.701706958456e-01       3.586777138050e+01 
       1.758616357459e-01       1.542758497118e+01 
       1.817427160982e-01       2.103153673953e+00 
       1.878204015065e-01       1.076181192158e+00 
       1.941013164283e-01       9.695792811977e+00 
       2.005922709503e-01       1.962206322938e+01 
       2.073002914972e-01       2.277406207302e+01 
       2.142326570816e-01       1.700637795569e+01 
       2.213969417533e-01       7.137197115310e+00 
       2.288010639706e-01       6.008343123456e-01 
       2.364533437147e-01       1.176435485573e+00 
       2.443625682930e-01       5.983963567407e+00 
       2.525380679504e-01       8.902193629962e+00 
       2.609898026346e-01       6.848762834359e+00 
       2.697284615565e-01       2.297333458445e+00 
       2.787655775689e-01       9.261508726942e-03 
       2.881136588829e-01       1.304363843507e+00 
       2.977863412677e-01       3.203552483942e+00 
       3.077985646929e-01       2.766126279385e+00 
       3.181667794071e-01       8.048084059866e-01 
       3.289091877812e-01       1.297982887445e-02 
       3.400460299658e-01       7.980661711883e-01 
       3.515999236474e-01       1.210792418668e+00 
       3.635962711085e-01       5.149845042266e-01 
       3.760637506334e-01       8.611725017351e-04 
       3.890349143879e-01       2.827589521342e-01 
       4.025469216825e-01       4.055414977652e-01 
       4.166424456376e-01       9.179244834577e-02 
       4.313708035863e-01       2.374771799064e-02 
       4.467893782977e-01       1.450717418691e-01 
       4.629654199664e-01       5.629286027583e-02 
       4.799783501994e-01       4.405499529539e-03 
       4.979227319373e-01       4.570501063204e-02 
       5.169121270864e-01       9.133191631832e-03 
       5.370841404489e-01       7.342696956082e-03 
       5.586070464571e-01       9.826136896677e-03 
       5.816885094930e-01       5.014699997798e-04 
       6.065870144995e-01       3.489511590458e-03 
       6.336266468475e-01       1.007143296650e-04 
       6.632156059511e-01       6.143040656283e-04 
       6.958678639263e-01       2.138150497156e-04 
       7.322247985589e-01       1.644235042362e-06 
       7.730680195114e-01       3.327426804893e-05 
       8.193049553677e-01       2.239680068105e-05 
       8.718988016039e-01       1.883917938707e-06 
       9.317218031082e-01       2.598445791510e-07 
       9.993660908989e-01       2.499339374788e-06 
       1.075037110174e+00       1.002892391863e-05 
       1.158653485707e+00       1.542420744280e-06 
       1.250099157308e+00       1.040302393365e-05 
       1.349432401273e+00       4.813761666969e-06 
       1.456947457397e+00       5.100106197021e-07 
       1.573135111331e+00       7.101478231234e-07 
       1.698621895592e+00       3.028883843967e-07 
       1.834127512934e+00       3.727964432937e-06 
       1.980444934528e+00       3.687063505961e-06 
       2.138435191726e+00       3.894497998473e-06 
       2.309029199186e+00       1.587697196469e-07 
       2.493232377687e+00       9.247983329266e-06 
       2.692130395285e+00       4.615130000756e-08 
       2.906895534573e+00       1.417352348470e-06 
       3.138793597714e+00       7.352793529659e-07 
       3.389191366484e+00       3.283983478334e-08 
       3.659564657905e+00       3.528488587059e-08 
       3.951507022538e+00       2.905136947729e-06 
       4.266739136701e+00       1.083540893010e-06 
       4.607118943941e+00       7.231727401114e-07 
       4.974652605557e+00       2.540277546794e-07 
       5.371506324689e+00       4.847431327104e-07 
       5.800019113685e+00       4.549401936292e-08 
       6.262716579983e+00       3.873205912170e-06 
       6.762325811764e+00       2.384382932836e-06 
       7.301791451110e+00       1.215081531429e-06 
       7.884293049406e+00       8.723048492113e-07 
       8.513263807261e+00       7.061008971295e-07 
       9.192410809424e+00       1.121956365928e-07 
       9.925736873929e+00       4.361091223496e-08 
       1.071756414427e+01       7.049011957216e-09 
       1.157255956364e+01       7.726923906636e-09 
       1.249576238137e+01       8.934004030974e-10 
       1.349261385375e+01       3.415818172367e-10 
       1.456898931416e+01       1.361859813544e-09 
       1.573123280165e+01       7.777453850120e-08 
       1.698619445202e+01       2.171820217759e-08 
       1.834127087176e+01       6.008067650170e-09 
       1.980444873285e+01       3.572581363192e-10 
       2.138435184532e+01       3.311224065613e-10 
       2.309029198506e+01       1.529811447130e-09 
       2.493232377636e+01       5.096253324113e-10 
       2.692130395282e+01       3.446393891307e-11 
       2.906895534573e+01       6.334221610146e-10 
       3.138793597714e+01       2.525039784466e-09 
       3.389191366484e+01       1.522755503548e-09 
       3.659564657905e+01       9.765991188700e-11 
       3.951507022538e+01       7.103173849646e-12 
       4.266739136701e+01       1.055791810456e-10 
       4.607118943941e+01       3.123338296589e-10 
       4.974652605557e+01       1.017158544619e-12 
       5.371506324689e+01       6.101736189300e-11 
       5.800019113685e+01       1.206179738909e-11 
       6.262716579983e+01       7.268415820807e-13 
       6.762325811764e+01       1.337836266416e-12 
       7.301791451110e+01       2.075584593234e-15 
       7.884293049406e+01       3.508706378081e-15 
       8.513263807261e+01       2.144510238824e-12 
       9.192410809424e+01       5.986198538246e-12 
       9.925736873929e+01       1.362819000103e-12 
       1.071756414427e+02       3.599717139294e-13 
       1.157255956364e+02       8.554814853812e-13 
       1.249576238137e+02       1.616457545674e-12 
       1.349261385375e+02       9.482523463214e-13 
