# Matter power spectrum P(k) at redshift z=0
# for k=1.04775e-05 to 67.6233 h/Mpc,
# number of wavenumbers equal to 246
#    1:k (h/Mpc)              2:P (Mpc/h)^3        
       1.047750691338e-05       5.020964806750e+01 
       1.131335172818e-05       5.407048206553e+01 
       1.221587619877e-05       5.822819063691e+01 
       1.319039970550e-05       6.270562589691e+01 
       1.424266598317e-05       6.752731788102e+01 
       1.537887697396e-05       7.271977200257e+01 
       1.660572938097e-05       7.831147241542e+01 
       1.793045413791e-05       8.433311815128e+01 
       1.936085902737e-05       9.081778242446e+01 
       2.090537469909e-05       9.780108061343e+01 
       2.257310435923e-05       1.053213197032e+02 
       2.437387742372e-05       1.134197377001e+02 
       2.631830745176e-05       1.221408202816e+02 
       2.841785470091e-05       1.315324720916e+02 
       3.068489367268e-05       1.416462093730e+02 
       3.313278604643e-05       1.525374500691e+02 
       3.577595943165e-05       1.642660687078e+02 
       3.862999240274e-05       1.768963504868e+02 
       4.171170631739e-05       1.904975992459e+02 
       4.503926445983e-05       2.051444490305e+02 
       4.863227909323e-05       2.209171463752e+02 
       5.251192705226e-05       2.379022222314e+02 
       5.670107455699e-05       2.561927925448e+02 
       6.122441198393e-05       2.758890441790e+02 
       6.610859938837e-05       2.970989225465e+02 
       7.138242363583e-05       3.199385558200e+02 
       7.707696806873e-05       3.445329780878e+02 
       8.322579570814e-05       3.710167315928e+02 
       8.986514707061e-05       3.995346440954e+02 
       9.703415376577e-05       4.302425403884e+02 
       1.047750691338e-04       4.633080762974e+02 
       1.131335172818e-04       4.989116267507e+02 
       1.221587619877e-04       5.372471946561e+02 
       1.319039970550e-04       5.785234124636e+02 
       1.424266598317e-04       6.229645930980e+02 
       1.537887697396e-04       6.708118484951e+02 
       1.660572938097e-04       7.223242660220e+02 
       1.793045413791e-04       7.777801552650e+02 
       1.936085902737e-04       8.374783607333e+02 
       2.090537469909e-04       9.017396264495e+02 
       2.257310435923e-04       9.709080260152e+02 
       2.437387742372e-04       1.045352448644e+03 
       2.631830745176e-04       1.125468122836e+03 
       2.841785470091e-04       1.211678179511e+03 
       3.068489367268e-04       1.304435249091e+03 
       3.313278604643e-04       1.404223052541e+03 
       3.577595943165e-04       1.511558013390e+03 
       3.862999240274e-04       1.626990836435e+03 
       4.171170631739e-04       1.751108027372e+03 
       4.503926445983e-04       1.884533381345e+03 
       4.863227909323e-04       2.027929376469e+03 
       5.251192705226e-04       2.181998446367e+03 
       5.670107455699e-04       2.347484100857e+03 
       6.122441198393e-04       2.525171869337e+03 
       6.610859938837e-04       2.715889981402e+03 
       7.138242363583e-04       2.920509686090e+03 
       7.707696806873e-04       3.139945097711e+03 
       8.322579570814e-04       3.375152334396e+03 
       8.986514707061e-04       3.627127828231e+03 
       9.703415376577e-04       3.896905450016e+03 
       1.047750691338e-03       4.185552170958e+03 
       1.131335172818e-03       4.494162426790e+03 
       1.221587619877e-03       4.823850702668e+03 
       1.319039970550e-03       5.175742731470e+03 
       1.424266598317e-03       5.551019592517e+03 
       1.537887697396e-03       5.950788335877e+03 
       1.660572938097e-03       6.376123046807e+03 
       1.793045413791e-03       6.828073896114e+03 
       1.936085902737e-03       7.307625375382e+03 
       2.090537469909e-03       7.815671857671e+03 
       2.257310435923e-03       8.352990369391e+03 
       2.437387742372e-03       8.920211057531e+03 
       2.631830745176e-03       9.517783061874e+03 
       2.841785470091e-03       1.014593703669e+04 
       3.068489367268e-03       1.080464505729e+04 
       3.313278604643e-03       1.149357459439e+04 
       3.577595943165e-03       1.221203620820e+04 
       3.862999240274e-03       1.295892538497e+04 
       4.171170631739e-03       1.373266002314e+04 
       4.503926445983e-03       1.453111834578e+04 
       4.863227909323e-03       1.535154984203e+04 
       5.251192705226e-03       1.619063613403e+04 
       5.670107455699e-03       1.704431256520e+04 
       6.122441198393e-03       1.790755938398e+04 
       6.610859938837e-03       1.877460421038e+04 
       7.138242363583e-03       1.963872428986e+04 
       7.707696806873e-03       2.049215713375e+04 
       8.322579570814e-03       2.132607230300e+04 
       8.986514707061e-03       2.213055028160e+04 
       9.703415376577e-03       2.289445470439e+04 
       1.047750691338e-02       2.360548610038e+04 
       1.131335172818e-02       2.425022856079e+04 
       1.221587619877e-02       2.481423920430e+04 
       1.319039970550e-02       2.528218654737e+04 
       1.424266598317e-02       2.563814331582e+04 
       1.537887697392e-02       2.586605887928e+04 
       1.660572938023e-02       2.595026009339e+04 
       1.793045412706e-02       2.587634177703e+04 
       1.936085890181e-02       2.563218364060e+04 
       2.090537352463e-02       2.520934907657e+04 
       2.257309535333e-02       2.460445785314e+04 
       2.437382002918e-02       2.382086669869e+04 
       2.631799944462e-02       2.287044776716e+04 
       2.841644545389e-02       2.177450634245e+04 
       3.067933355377e-02       2.056555469332e+04 
       3.311368470740e-02       1.928725524660e+04 
       3.571840443502e-02       1.799401963329e+04 
       3.847720348444e-02       1.674683505246e+04 
       4.135335538431e-02       1.560459631331e+04 
       4.429361667738e-02       1.461040623743e+04 
       4.724366439141e-02       1.378054938668e+04 
       5.016480835311e-02       1.310507840187e+04 
       5.303989620246e-02       1.255716642298e+04 
       5.586870669566e-02       1.210428394935e+04 
       5.866042680613e-02       1.171467221313e+04 
       6.142798932958e-02       1.136047650692e+04 
       6.418496440164e-02       1.101856024011e+04 
       6.694418833788e-02       1.067068903307e+04 
       6.971731106057e-02       1.030358204550e+04 
       7.251476155766e-02       9.909000319214e+03 
       7.534587671527e-02       9.483726686135e+03 
       7.821907666265e-02       9.029508498999e+03 
       8.114203772912e-02       8.552323810364e+03 
       8.412184535029e-02       8.061897946523e+03 
       8.716512279304e-02       7.570774630062e+03 
       9.027813695930e-02       7.092471108637e+03 
       9.346688431697e-02       6.640531289876e+03 
       9.673716028276e-02       6.226720926267e+03 
       1.000946150830e-01       5.859950024426e+03 
       1.035447986537e-01       5.545289456583e+03 
       1.070931966762e-01       5.283155370836e+03 
       1.107452594425e-01       5.069437130994e+03 
       1.145064249153e-01       4.895265736440e+03 
       1.183821370918e-01       4.747834249847e+03 
       1.223778605862e-01       4.611731447121e+03 
       1.264990921987e-01       4.470621221638e+03 
       1.307513701367e-01       4.310260694586e+03 
       1.351402814784e-01       4.121386106119e+03 
       1.396714684203e-01       3.902048537014e+03 
       1.443506338194e-01       3.658655204285e+03 
       1.491835465229e-01       3.404480471654e+03 
       1.541760469708e-01       3.156676932686e+03 
       1.593340535561e-01       2.931960149369e+03 
       1.646635702297e-01       2.742375240773e+03 
       1.701706958456e-01       2.592261105763e+03 
       1.758616357459e-01       2.477239489579e+03 
       1.817427160982e-01       2.385178924818e+03 
       1.878204015065e-01       2.300361547516e+03 
       1.941013164283e-01       2.205766011759e+03 
       2.005922709503e-01       2.090819553818e+03 
       2.073002914972e-01       1.956462153314e+03 
       2.142326570816e-01       1.814187819021e+03 
       2.213969417533e-01       1.679277767455e+03 
       2.288010639706e-01       1.563846457994e+03 
       2.364533437147e-01       1.472678444683e+03 
       2.443625682930e-01       1.401511483079e+03 
       2.525380679504e-01       1.338412673730e+03 
       2.609898026346e-01       1.270905219762e+03 
       2.697284615565e-01       1.193386482632e+03 
       2.787655775689e-01       1.109338029894e+03 
       2.881136588829e-01       1.028769919391e+03 
       2.977863412677e-01       9.604806613813e+02 
       3.077985646929e-01       9.050219065343e+02 
       3.181667794071e-01       8.561452040417e+02 
       3.289091877812e-01       8.061901920102e+02 
       3.400460299658e-01       7.523898815542e+02 
       3.515999236474e-01       6.989238166035e+02 
       3.635962711085e-01       6.510622579949e+02 
       3.760637506334e-01       6.101202580178e+02 
       3.890349143879e-01       5.721314855079e+02 
       4.025469216825e-01       5.337810604880e+02 
       4.166424456376e-01       4.956320711517e+02 
       4.313708035863e-01       4.604678073084e+02 
       4.467893782977e-01       4.287763996885e+02 
       4.629654199664e-01       3.987728402865e+02 
       4.799783501994e-01       3.692421333045e+02 
       4.979227319373e-01       3.412392581173e+02 
       5.169121270864e-01       3.154833990094e+02 
       5.370841404489e-01       2.908362791160e+02 
       5.586070464571e-01       2.671066431102e+02 
       5.816885094930e-01       2.448099105896e+02 
       6.065870144995e-01       2.235677110767e+02 
       6.336266468475e-01       2.032102897062e+02 
       6.632156059511e-01       1.838783401835e+02 
       6.958678639263e-01       1.653538964158e+02 
       7.322247985589e-01       1.476950710230e+02 
       7.730680195114e-01       1.308339583759e+02 
       8.193049553677e-01       1.148310502694e+02 
       8.718988016039e-01       9.976215930977e+01 
       9.317218031082e-01       8.577773546675e+01 
       9.993660908989e-01       7.305453501833e+01 
       1.075037110174e+00       6.173553757652e+01 
       1.158653485707e+00       5.187893526642e+01 
       1.250099157308e+00       4.343996099702e+01 
       1.349432401273e+00       3.628909356958e+01 
       1.456947457397e+00       3.026764330449e+01 
       1.573135111331e+00       2.521425700882e+01 
       1.698621895592e+00       2.098165024049e+01 
       1.834127512934e+00       1.744208176299e+01 
       1.980444934528e+00       1.448541583377e+01 
       2.138435191726e+00       1.201864411331e+01 
       2.309029199186e+00       9.962939693295e+00 
       2.493232377687e+00       8.251578416187e+00 
       2.692130395285e+00       6.828364027260e+00 
       2.906895534573e+00       5.646036891626e+00 
       3.138793597714e+00       4.664686765231e+00 
       3.389191366484e+00       3.850933388317e+00 
       3.659564657905e+00       3.176761161060e+00 
       3.951507022538e+00       2.618709576480e+00 
       4.266739136701e+00       2.157183626317e+00 
       4.607118943941e+00       1.775780567876e+00 
       4.974652605557e+00       1.460840797431e+00 
       5.371506324689e+00       1.200993418942e+00 
       5.800019113685e+00       9.867526753055e-01 
       6.262716579983e+00       8.102316343149e-01 
       6.762325811764e+00       6.649025341116e-01 
       7.301791451110e+00       5.453236185285e-01 
       7.884293049406e+00       4.469998089769e-01 
       8.513263807261e+00       3.662110719742e-01 
       9.192410809424e+00       2.998591629920e-01 
       9.925736873929e+00       2.454049885086e-01 
       1.071756414427e+01       2.007389245774e-01 
       1.157255956364e+01       1.641215862560e-01 
       1.249576238137e+01       1.341178714825e-01 
       1.349261385375e+01       1.095483358633e-01 
       1.456898931416e+01       8.943870168703e-02 
       1.573123280165e+01       7.298768059118e-02 
       1.698619445202e+01       5.953579605433e-02 
       1.834127087176e+01       4.854208188679e-02 
       1.980444873285e+01       3.956159385612e-02 
       2.138435184532e+01       3.222835948531e-02 
       2.309029198506e+01       2.624316764757e-02 
       2.493232377636e+01       2.136080064572e-02 
       2.692130395282e+01       1.737937069577e-02 
       2.906895534573e+01       1.413419893709e-02 
       3.138793597714e+01       1.149008831680e-02 
       3.389191366484e+01       9.336486332205e-03 
       3.659564657905e+01       7.583412102277e-03 
       3.951507022538e+01       6.156845977210e-03 
       4.266739136701e+01       4.996347024400e-03 
       4.607118943941e+01       4.052644097677e-03 
       4.974652605557e+01       3.285598202561e-03 
       5.371506324689e+01       2.662397815510e-03 
       5.800019113685e+01       2.156253964381e-03 
       6.262716579983e+01       1.745318434339e-03 
       6.762325811764e+01       1.411882052932e-03 
