# Matter power spectrum P(k) at redshift z=99
# for k=1.04775e-05 to 134.926 h/Mpc,
# number of wavenumbers equal to 255
#    1:k (h/Mpc)              2:P (Mpc/h)^3        
       1.047750691338e-05       7.262785211005e-03 
       1.131335172818e-05       7.821256135230e-03 
       1.221587619877e-05       8.422670022742e-03 
       1.319039970550e-05       9.070329835170e-03 
       1.424266598317e-05       9.767791190709e-03 
       1.537887697396e-05       1.051888319569e-02 
       1.660572938097e-05       1.132772759779e-02 
       1.793045413791e-05       1.219876997422e-02 
       1.936085902737e-05       1.313679012518e-02 
       2.090537469909e-05       1.414693869634e-02 
       2.257310435923e-05       1.523476152314e-02 
       2.437387742372e-05       1.640623296624e-02 
       2.631830745176e-05       1.766778063916e-02 
       2.841785470091e-05       1.902633042015e-02 
       3.068489367268e-05       2.048934616353e-02 
       3.313278604643e-05       2.206485623196e-02 
       3.577595943165e-05       2.376151160342e-02 
       3.862999240274e-05       2.558862485203e-02 
       4.171170631739e-05       2.755622790128e-02 
       4.503926445983e-05       2.967512052244e-02 
       4.863227909323e-05       3.195693417592e-02 
       5.251192705226e-05       3.441419476160e-02 
       5.670107455699e-05       3.706038870324e-02 
       6.122441198393e-05       3.991004141079e-02 
       6.610859938837e-05       4.297879079548e-02 
       7.138242363583e-05       4.628347695942e-02 
       7.707696806873e-05       4.984223681852e-02 
       8.322579570814e-05       5.367459424813e-02 
       8.986514707061e-05       5.780157355180e-02 
       9.703415376577e-05       6.224581417617e-02 
       1.047750691338e-04       6.703169051705e-02 
       1.131335172818e-04       7.218544498984e-02 
       1.221587619877e-04       7.773533341708e-02 
       1.319039970550e-04       8.371177427872e-02 
       1.424266598317e-04       9.014751393572e-02 
       1.537887697396e-04       9.707780498666e-02 
       1.660572938097e-04       1.045405924397e-01 
       1.793045413791e-04       1.125767186010e-01 
       1.936085902737e-04       1.212301387392e-01 
       2.090537469909e-04       1.305481571514e-01 
       2.257310435923e-04       1.405816704745e-01 
       2.437387742372e-04       1.513854379936e-01 
       2.631830745176e-04       1.630183641234e-01 
       2.841785470091e-04       1.755437994263e-01 
       3.068489367268e-04       1.890298617514e-01 
       3.313278604643e-04       2.035497764519e-01 
       3.577595943165e-04       2.191822349208e-01 
       3.862999240274e-04       2.360117760076e-01 
       4.171170631739e-04       2.541291794881e-01 
       4.503926445983e-04       2.736318847651e-01 
       4.863227909323e-04       2.946244170279e-01 
       5.251192705226e-04       3.172188326917e-01 
       5.670107455699e-04       3.415351676321e-01 
       6.122441198393e-04       3.677018910682e-01 
       6.610859938837e-04       3.958563530554e-01 
       7.138242363583e-04       4.261452154697e-01 
       7.707696806873e-04       4.587248532456e-01 
       8.322579570814e-04       4.937617144848e-01 
       8.986514707061e-04       5.314326005931e-01 
       9.703415376577e-04       5.719248596501e-01 
       1.047750691338e-03       6.154364434584e-01 
       1.131335172818e-03       6.621757826155e-01 
       1.221587619877e-03       7.123614389193e-01 
       1.319039970550e-03       7.662214509902e-01 
       1.424266598317e-03       8.239999991549e-01 
       1.537887697396e-03       8.859398466089e-01 
       1.660572938097e-03       9.522873917196e-01 
       1.793045413791e-03       1.023293947804e+00 
       1.936085902737e-03       1.099209359896e+00 
       2.090537469909e-03       1.180277256799e+00 
       2.257310435923e-03       1.266729068729e+00 
       2.437387742372e-03       1.358776554202e+00 
       2.631830745176e-03       1.456602702507e+00 
       2.841785470091e-03       1.560350673965e+00 
       3.068489367268e-03       1.670111090113e+00 
       3.313278604643e-03       1.785906625912e+00 
       3.577595943165e-03       1.907675696794e+00 
       3.862999240274e-03       2.035253091731e+00 
       4.171170631739e-03       2.168350583456e+00 
       4.503926445983e-03       2.306536884026e+00 
       4.863227909323e-03       2.449217554384e+00 
       5.251192705226e-03       2.595618565306e+00 
       5.670107455699e-03       2.744770694934e+00 
       6.122441198393e-03       2.895505890977e+00 
       6.610859938837e-03       3.046451411976e+00 
       7.138242363583e-03       3.196033887054e+00 
       7.707696806873e-03       3.342485857402e+00 
       8.322579570814e-03       3.483866652765e+00 
       8.986514707061e-03       3.618029805787e+00 
       9.703415376577e-03       3.742643287653e+00 
       1.047750691338e-02       3.855138251080e+00 
       1.131335172818e-02       3.952660223208e+00 
       1.221587619877e-02       4.032007415717e+00 
       1.319039970550e-02       4.089604301305e+00 
       1.424266598317e-02       4.121495439094e+00 
       1.537887697392e-02       4.123453165629e+00 
       1.660572938023e-02       4.091134107854e+00 
       1.793045412706e-02       4.020302917600e+00 
       1.936085890181e-02       3.907121685942e+00 
       2.090537352463e-02       3.748417205435e+00 
       2.257309535333e-02       3.542109552299e+00 
       2.437382002918e-02       3.287782381446e+00 
       2.631799944462e-02       2.987408070659e+00 
       2.841644545389e-02       2.646095293919e+00 
       3.067933355377e-02       2.272803014118e+00 
       3.311368470740e-02       1.880993300474e+00 
       3.571840443502e-02       1.488794621331e+00 
       3.847720348444e-02       1.117874134006e+00 
       4.135335538431e-02       7.899202646411e-01 
       4.429361667738e-02       5.210600514889e-01 
       4.724366439141e-02       3.173851669038e-01 
       5.016480835311e-02       1.749309749480e-01 
       5.303989620246e-02       8.355869652049e-02 
       5.586870669566e-02       3.119468925815e-02 
       5.866042680613e-02       6.522698773295e-03 
       6.142798932958e-02       7.347996436564e-07 
       6.418496440164e-02       4.085690921725e-03 
       6.694418833788e-02       1.310191357076e-02 
       6.971731106057e-02       2.302448400339e-02 
       7.251476155766e-02       3.124495310623e-02 
       7.534587671527e-02       3.634340657014e-02 
       7.821907666265e-02       3.785095990030e-02 
       8.114203772912e-02       3.602162934518e-02 
       8.412184535029e-02       3.159229808173e-02 
       8.716512279304e-02       2.555505831558e-02 
       9.027813695930e-02       1.895189591928e-02 
       9.346688431697e-02       1.269850603515e-02 
       9.673716028276e-02       7.470479759378e-03 
       1.000946150830e-01       3.638504546129e-03 
       1.035447986537e-01       1.270050880201e-03 
       1.070931966762e-01       1.817427779575e-04 
       1.107452594425e-01       2.811708873450e-05 
       1.145064249153e-01       4.056907703817e-04 
       1.183821370918e-01       9.462654097600e-04 
       1.223778605862e-01       1.383743373046e-03 
       1.264990921987e-01       1.581396624394e-03 
       1.307513701367e-01       1.521967940364e-03 
       1.351402814784e-01       1.270788585884e-03 
       1.396714684203e-01       9.287417525587e-04 
       1.443506338194e-01       5.905270779807e-04 
       1.491835465229e-01       3.185124301117e-04 
       1.541760469708e-01       1.373354686680e-04 
       1.593340535561e-01       4.001825784673e-05 
       1.646635702297e-01       3.620817821133e-06 
       1.701706958456e-01       2.201544371964e-06 
       1.758616357459e-01       1.510491501827e-05 
       1.817427160982e-01       2.945603882680e-05 
       1.878204015065e-01       3.927914614430e-05 
       1.941013164283e-01       4.174499580605e-05 
       2.005922709503e-01       3.799443190870e-05 
       2.073002914972e-01       2.990746394483e-05 
       2.142326570816e-01       1.924654385076e-05 
       2.213969417533e-01       9.249380995950e-06 
       2.288010639706e-01       2.738683144406e-06 
       2.364533437147e-01       1.286610578421e-07 
       2.443625682930e-01       5.376881269610e-07 
       2.525380679504e-01       2.066832915193e-06 
       2.609898026346e-01       2.869512657137e-06 
       2.697284615565e-01       2.689746564374e-06 
       2.787655775689e-01       1.733683845433e-06 
       2.881136588829e-01       7.440215882949e-07 
       2.977863412677e-01       1.795605301272e-07 
       3.077985646929e-01       8.188961727581e-10 
       3.181667794071e-01       7.026551887731e-08 
       3.289091877812e-01       1.749552584407e-07 
       3.400460299658e-01       2.241830892776e-07 
       3.515999236474e-01       1.595605403567e-07 
       3.635962711085e-01       7.535620090287e-08 
       3.760637506334e-01       1.234576137750e-08 
       3.890349143879e-01       6.054533403945e-11 
       4.025469216825e-01       7.868719556488e-09 
       4.166424456376e-01       6.874320490498e-09 
       4.313708035863e-01       3.833107430530e-09 
       4.467893782977e-01       3.013433928628e-10 
       4.629654199664e-01       2.320927572341e-10 
       4.799783501994e-01       8.384477623157e-10 
       4.979227319373e-01       1.626115860091e-09 
       5.169121270864e-01       1.159455023754e-09 
       5.370841404489e-01       1.120810731890e-10 
       5.586070464571e-01       1.104290246538e-12 
       5.816885094930e-01       5.991100529786e-13 
       6.065870144995e-01       5.095655005061e-12 
       6.336266468475e-01       1.129878441134e-11 
       6.632156059511e-01       4.258305533613e-13 
       6.958678639263e-01       9.120092734968e-12 
       7.322247985589e-01       5.546784980740e-11 
       7.730680195114e-01       1.483044209839e-11 
       8.193049553677e-01       1.961905004978e-12 
       8.718988016039e-01       3.578553676678e-11 
       9.317218031082e-01       2.182518248869e-11 
       9.993660908989e-01       8.690487682080e-11 
       1.075037110174e+00       7.153326322502e-12 
       1.158653485707e+00       1.437104414468e-11 
       1.250099157308e+00       2.734620484231e-11 
       1.349432401273e+00       1.535798816435e-12 
       1.456947457397e+00       2.263225223851e-10 
       1.573135111331e+00       4.046401941415e-11 
       1.698621895592e+00       3.183379359416e-12 
       1.834127512934e+00       4.318640063384e-12 
       1.980444934528e+00       7.417738084674e-11 
       2.138435191726e+00       2.978446934730e-10 
       2.309029199186e+00       6.733985120671e-10 
       2.493232377687e+00       2.163676522740e-11 
       2.692130395285e+00       3.181053742461e-12 
       2.906895534573e+00       1.948738094410e-10 
       3.138793597714e+00       1.859393450115e-09 
       3.389191366484e+00       5.030807559583e-10 
       3.659564657905e+00       4.300215213576e-09 
       3.951507022538e+00       5.031350564233e-11 
       4.266739136701e+00       9.692208801641e-10 
       4.607118943941e+00       1.560578798234e-09 
       4.974652605557e+00       5.928809120254e-11 
       5.371506324689e+00       1.481089027024e-09 
       5.800019113685e+00       1.284308408831e-12 
       6.262716579983e+00       2.279650714060e-11 
       6.762325811764e+00       5.070983571284e-11 
       7.301791451110e+00       8.047852145995e-11 
       7.884293049406e+00       1.300142426741e-09 
       8.513263807261e+00       1.557704827987e-11 
       9.192410809424e+00       1.664693830953e-10 
       9.925736873929e+00       5.138115026737e-11 
       1.071756414427e+01       2.004986694199e-10 
       1.157255956364e+01       8.208787725900e-11 
       1.249576238137e+01       1.089874965262e-11 
       1.349261385375e+01       1.244557990404e-11 
       1.456898931416e+01       1.499975306603e-11 
       1.573123280165e+01       3.937216120491e-12 
       1.698619445202e+01       3.824448436421e-11 
       1.834127087176e+01       2.294883159826e-12 
       1.980444873285e+01       1.846880499113e-12 
       2.138435184532e+01       5.474950067546e-14 
       2.309029198506e+01       1.397636873114e-13 
       2.493232377636e+01       1.258897096112e-12 
       2.692130395282e+01       2.119529821717e-13 
       2.906895534573e+01       1.616296451872e-13 
       3.138793597714e+01       6.716811030968e-16 
       3.389191366484e+01       3.591321999679e-12 
       3.659564657905e+01       4.711992883698e-14 
       3.951507022538e+01       2.768898925240e-12 
       4.266739136701e+01       1.786742518627e-12 
       4.607118943941e+01       7.703317782464e-14 
       4.974652605557e+01       8.332773330086e-14 
       5.371506324689e+01       1.120165963435e-12 
       5.800019113685e+01       4.112411603516e-12 
       6.262716579983e+01       8.771103803542e-16 
       6.762325811764e+01       1.589942671370e-13 
       7.301791451110e+01       9.455900630632e-13 
       7.884293049406e+01       1.664325923496e-13 
       8.513263807261e+01       1.827035586134e-12 
       9.192410809424e+01       3.020138176087e-17 
       9.925736873929e+01       6.909313751634e-15 
       1.071756414427e+02       1.860460008773e-14 
       1.157255956364e+02       1.333557769900e-13 
       1.249576238137e+02       9.764385568281e-14 
       1.349261385375e+02       9.442219707844e-14 
