# Matter power spectrum P(k) at redshift z=99
# for k=1.04775e-05 to 134.926 h/Mpc,
# number of wavenumbers equal to 255
#    1:k (h/Mpc)              2:P (Mpc/h)^3        
       1.047750691338e-05       7.261927095548e-03 
       1.131335172818e-05       7.820332151038e-03 
       1.221587619877e-05       8.421675382635e-03 
       1.319039970550e-05       9.069257738331e-03 
       1.424266598317e-05       9.766636451479e-03 
       1.537887697396e-05       1.051763973679e-02 
       1.660572938097e-05       1.132639250793e-02 
       1.793045413791e-05       1.219733201553e-02 
       1.936085902737e-05       1.313524187251e-02 
       2.090537469909e-05       1.414527085029e-02 
       2.257310435923e-05       1.523296544548e-02 
       2.437387742372e-05       1.640429654701e-02 
       2.631830745176e-05       1.766569603352e-02 
       2.841785470091e-05       1.902408711233e-02 
       3.068489367268e-05       2.048692967520e-02 
       3.313278604643e-05       2.206225467631e-02 
       3.577595943165e-05       2.375870883940e-02 
       3.862999240274e-05       2.558560669919e-02 
       4.171170631739e-05       2.755297672614e-02 
       4.503926445983e-05       2.967161933527e-02 
       4.863227909323e-05       3.195316455778e-02 
       5.251192705226e-05       3.441013466264e-02 
       5.670107455699e-05       3.705601741845e-02 
       6.122441198393e-05       3.990533412992e-02 
       6.610859938837e-05       4.297372242697e-02 
       7.138242363583e-05       4.627802055038e-02 
       7.707696806873e-05       4.983636160081e-02 
       8.322579570814e-05       5.366826787137e-02 
       8.986514707061e-05       5.779476319954e-02 
       9.703415376577e-05       6.223848222072e-02 
       1.047750691338e-04       6.702379825276e-02 
       1.131335172818e-04       7.217695031349e-02 
       1.221587619877e-04       7.772619030657e-02 
       1.319039970550e-04       8.370193380368e-02 
       1.424266598317e-04       9.013692507009e-02 
       1.537887697396e-04       9.706641130769e-02 
       1.660572938097e-04       1.045283343151e-01 
       1.793045413791e-04       1.125635329229e-01 
       1.936085902737e-04       1.212159592356e-01 
       2.090537469909e-04       1.305329107486e-01 
       2.257310435923e-04       1.405652819415e-01 
       2.437387742372e-04       1.513678275134e-01 
       2.631830745176e-04       1.629994475197e-01 
       2.841785470091e-04       1.755234890547e-01 
       3.068489367268e-04       1.890080645373e-01 
       3.313278604643e-04       2.035263977511e-01 
       3.577595943165e-04       2.191571778131e-01 
       3.862999240274e-04       2.359849423353e-01 
       4.171170631739e-04       2.541004713102e-01 
       4.503926445983e-04       2.736012061266e-01 
       4.863227909323e-04       2.945916774757e-01 
       5.251192705226e-04       3.171839507986e-01 
       5.670107455699e-04       3.414980769238e-01 
       6.122441198393e-04       3.676625416439e-01 
       6.610859938837e-04       3.958147273012e-01 
       7.138242363583e-04       4.261013332220e-01 
       7.707696806873e-04       4.586787881013e-01 
       8.322579570814e-04       4.937136112993e-01 
       8.986514707061e-04       5.313826962256e-01 
       9.703415376577e-04       5.718735176989e-01 
       1.047750691338e-03       6.153841926440e-01 
       1.131335172818e-03       6.621233623314e-01 
       1.221587619877e-03       7.123098743843e-01 
       1.319039970550e-03       7.661721263969e-01 
       1.424266598317e-03       8.239547181475e-01 
       1.537887697396e-03       8.859012282969e-01 
       1.660572938097e-03       9.522589495866e-01 
       1.793045413791e-03       1.023280284742e+00 
       1.936085902737e-03       1.099216542124e+00 
       2.090537469909e-03       1.180313285044e+00 
       2.257310435923e-03       1.266804486801e+00 
       2.437387742372e-03       1.358905328434e+00 
       2.631830745176e-03       1.456803285890e+00 
       2.841785470091e-03       1.560647662935e+00 
       3.068489367268e-03       1.670537010416e+00 
       3.313278604643e-03       1.786505039398e+00 
       3.577595943165e-03       1.908504409768e+00 
       3.862999240274e-03       2.036389468258e+00 
       4.171170631739e-03       2.169898252097e+00 
       4.503926445983e-03       2.308634490983e+00 
       4.863227909323e-03       2.452050673407e+00 
       5.251192705226e-03       2.599434679247e+00 
       5.670107455699e-03       2.749901123872e+00 
       6.122441198393e-03       2.902390054785e+00 
       6.610859938837e-03       3.055671265009e+00 
       7.138242363583e-03       3.208360116299e+00 
       7.707696806873e-03       3.358926642516e+00 
       8.322579570814e-03       3.505726688459e+00 
       8.986514707061e-03       3.647012313858e+00 
       9.703415376577e-03       3.780926158027e+00 
       1.047750691338e-02       3.905492846153e+00 
       1.131335172818e-02       4.018589788465e+00 
       1.221587619877e-02       4.117902839240e+00 
       1.319039970550e-02       4.200917635312e+00 
       1.424266598317e-02       4.264943650022e+00 
       1.537887697392e-02       4.307219598147e+00 
       1.660572938023e-02       4.325062246412e+00 
       1.793045412706e-02       4.316060171841e+00 
       1.936085890181e-02       4.278228570806e+00 
       2.090537352463e-02       4.210204171257e+00 
       2.257309535333e-02       4.111418365584e+00 
       2.437382002918e-02       3.982420454203e+00 
       2.631799944462e-02       3.825168083095e+00 
       2.841644545389e-02       3.643281471420e+00 
       3.067933355377e-02       3.442197791122e+00 
       3.311368470740e-02       3.229240561889e+00 
       3.571840443502e-02       3.013514999288e+00 
       3.847720348444e-02       2.805283253394e+00 
       4.135335538431e-02       2.614408830341e+00 
       4.429361667738e-02       2.448130073015e+00 
       4.724366439141e-02       2.309238282532e+00 
       5.016480835311e-02       2.196112563291e+00 
       5.303989620246e-02       2.104366970257e+00 
       5.586870669566e-02       2.028459458866e+00 
       5.866042680613e-02       1.963151945598e+00 
       6.142798932958e-02       1.903776112550e+00 
       6.418496440164e-02       1.846475381295e+00 
       6.694418833788e-02       1.788193445699e+00 
       6.971731106057e-02       1.726711474436e+00 
       7.251476155766e-02       1.660650042108e+00 
       7.534587671527e-02       1.589465531210e+00 
       7.821907666265e-02       1.513432022412e+00 
       8.114203772912e-02       1.433564130304e+00 
       8.412184535029e-02       1.351487532032e+00 
       8.716512279304e-02       1.269268912490e+00 
       9.027813695930e-02       1.189188281160e+00 
       9.346688431697e-02       1.113496131028e+00 
       9.673716028276e-02       1.044169372270e+00 
       1.000946150830e-01       9.827007885386e-01 
       1.035447986537e-01       9.299315453811e-01 
       1.070931966762e-01       8.859530091280e-01 
       1.107452594425e-01       8.500654119424e-01 
       1.145064249153e-01       8.207974647224e-01 
       1.183821370918e-01       7.960181874240e-01 
       1.223778605862e-01       7.731395052276e-01 
       1.264990921987e-01       7.494455532081e-01 
       1.307513701367e-01       7.225504568509e-01 
       1.351402814784e-01       6.909016933256e-01 
       1.396714684203e-01       6.541737620014e-01 
       1.443506338194e-01       6.134194065054e-01 
       1.491835465229e-01       5.708607811561e-01 
       1.541760469708e-01       5.293570970335e-01 
       1.593340535561e-01       4.917036164700e-01 
       1.646635702297e-01       4.599126628802e-01 
       1.701706958456e-01       4.347205070908e-01 
       1.758616357459e-01       4.154002626214e-01 
       1.817427160982e-01       3.999291565758e-01 
       1.878204015065e-01       3.856750426723e-01 
       1.941013164283e-01       3.698015611700e-01 
       2.005922709503e-01       3.505386409126e-01 
       2.073002914972e-01       3.280351168198e-01 
       2.142326570816e-01       3.042054910828e-01 
       2.213969417533e-01       2.816037944666e-01 
       2.288010639706e-01       2.622487921595e-01 
       2.364533437147e-01       2.469537105601e-01 
       2.443625682930e-01       2.350050972296e-01 
       2.525380679504e-01       2.244096097353e-01 
       2.609898026346e-01       2.130855098731e-01 
       2.697284615565e-01       2.000935882757e-01 
       2.787655775689e-01       1.860117801629e-01 
       2.881136588829e-01       1.725082065285e-01 
       2.977863412677e-01       1.610577568886e-01 
       3.077985646929e-01       1.517526677439e-01 
       3.181667794071e-01       1.435511005748e-01 
       3.289091877812e-01       1.351731889234e-01 
       3.400460299658e-01       1.261560911799e-01 
       3.515999236474e-01       1.171936747073e-01 
       3.635962711085e-01       1.091686816285e-01 
       3.760637506334e-01       1.023014093255e-01 
       3.890349143879e-01       9.592947335154e-02 
       4.025469216825e-01       8.949950500845e-02 
       4.166424456376e-01       8.310359490877e-02 
       4.313708035863e-01       7.720734658613e-02 
       4.467893782977e-01       7.189249656663e-02 
       4.629654199664e-01       6.686095389217e-02 
       4.799783501994e-01       6.190948451827e-02 
       4.979227319373e-01       5.721422956973e-02 
       5.169121270864e-01       5.289493258837e-02 
       5.370841404489e-01       4.876187483576e-02 
       5.586070464571e-01       4.478286669173e-02 
       5.816885094930e-01       4.104411876888e-02 
       6.065870144995e-01       3.748219198160e-02 
       6.336266468475e-01       3.406857281926e-02 
       6.632156059511e-01       3.082698067369e-02 
       6.958678639263e-01       2.772090019068e-02 
       7.322247985589e-01       2.475977455859e-02 
       7.730680195114e-01       2.193235083523e-02 
       8.193049553677e-01       1.924901242279e-02 
       8.718988016039e-01       1.672231801826e-02 
       9.317218031082e-01       1.437731545062e-02 
       9.993660908989e-01       1.224395299389e-02 
       1.075037110174e+00       1.034604917306e-02 
       1.158653485707e+00       8.693295187383e-03 
       1.250099157308e+00       7.278377766750e-03 
       1.349432401273e+00       6.079421916009e-03 
       1.456947457397e+00       5.069891785988e-03 
       1.573135111331e+00       4.222622184127e-03 
       1.698621895592e+00       3.513050522575e-03 
       1.834127512934e+00       2.919648116527e-03 
       1.980444934528e+00       2.424011139597e-03 
       2.138435191726e+00       2.010505726101e-03 
       2.309029199186e+00       1.665954676811e-03 
       2.493232377687e+00       1.379158617503e-03 
       2.692130395285e+00       1.140653507322e-03 
       2.906895534573e+00       9.425423865749e-04 
       3.138793597714e+00       7.781370360345e-04 
       3.389191366484e+00       6.418300435046e-04 
       3.659564657905e+00       5.289232489406e-04 
       3.951507022538e+00       4.354945967479e-04 
       4.266739136701e+00       3.582462843053e-04 
       4.607118943941e+00       2.944292827922e-04 
       4.974652605557e+00       2.417559125777e-04 
       5.371506324689e+00       1.983169117659e-04 
       5.800019113685e+00       1.625215304483e-04 
       6.262716579983e+00       1.330498422757e-04 
       6.762325811764e+00       1.088041320404e-04 
       7.301791451110e+00       8.887483782467e-05 
       7.884293049406e+00       7.250642288467e-05 
       8.513263807261e+00       5.907459432259e-05 
       9.192410809424e+00       4.806190971395e-05 
       9.925736873929e+00       3.904081639682e-05 
       1.071756414427e+01       3.165782106552e-05 
       1.157255956364e+01       2.562166276812e-05 
       1.249576238137e+01       2.069210467875e-05 
       1.349261385375e+01       1.667075978329e-05 
       1.456898931416e+01       1.339480303872e-05 
       1.573123280165e+01       1.072965572817e-05 
       1.698619445202e+01       8.565051902474e-06 
       1.834127087176e+01       6.810162026108e-06 
       1.980444873285e+01       5.390362825961e-06 
       2.138435184532e+01       4.244468716286e-06 
       2.309029198506e+01       3.322306102951e-06 
       2.493232377636e+01       2.582662077545e-06 
       2.692130395282e+01       1.991778179143e-06 
       2.906895534573e+01       1.521944077159e-06 
       3.138793597714e+01       1.150460727384e-06 
       3.389191366484e+01       8.587435710722e-07 
       3.659564657905e+01       6.315171160010e-07 
       3.951507022538e+01       4.562837361405e-07 
       4.266739136701e+01       3.227750817588e-07 
       4.607118943941e+01       2.225571389793e-07 
       4.974652605557e+01       1.486963848188e-07 
       5.371506324689e+01       9.550409007693e-08 
       5.800019113685e+01       5.829624910556e-08 
       6.262716579983e+01       3.324205366880e-08 
       6.762325811764e+01       1.721559720870e-08 
       7.301791451110e+01       7.685013174274e-09 
       7.884293049406e+01       2.629116406064e-09 
       8.513263807261e+01       4.681319167195e-10 
       9.192410809424e+01       2.836939294405e-12 
       9.925736873929e+01       3.664254902706e-10 
       1.071756414427e+02       9.767433314423e-10 
       1.157255956364e+02       1.486515177808e-09 
       1.249576238137e+02       1.737235130336e-09 
       1.349261385375e+02       1.706495470058e-09 
