# Matter power spectrum P(k) at redshift z=0
# for k=1.04775e-05 to 213.844 h/Mpc,
# number of wavenumbers equal to 261
#    1:k (h/Mpc)              2:P (Mpc/h)^3        
       1.047750691338e-05       5.020963338989e+01 
       1.131335172818e-05       5.407048731768e+01 
       1.221587619877e-05       5.822819724788e+01 
       1.319039970550e-05       6.270562830179e+01 
       1.424266598317e-05       6.752730569081e+01 
       1.537887697396e-05       7.271975326659e+01 
       1.660572938097e-05       7.831147259884e+01 
       1.793045413791e-05       8.433313348350e+01 
       1.936085902737e-05       9.081779160984e+01 
       2.090537469909e-05       9.780107897804e+01 
       2.257310435923e-05       1.053212969021e+02 
       2.437387742372e-05       1.134197301640e+02 
       2.631830745176e-05       1.221408313110e+02 
       2.841785470091e-05       1.315324624513e+02 
       3.068489367268e-05       1.416461662431e+02 
       3.313278604643e-05       1.525374435434e+02 
       3.577595943165e-05       1.642660584670e+02 
       3.862999240274e-05       1.768963479272e+02 
       4.171170631739e-05       1.904976008826e+02 
       4.503926445983e-05       2.051444256630e+02 
       4.863227909323e-05       2.209171409368e+02 
       5.251192705226e-05       2.379022278652e+02 
       5.670107455699e-05       2.561927826507e+02 
       6.122441198393e-05       2.758890484949e+02 
       6.610859938837e-05       2.970989234128e+02 
       7.138242363583e-05       3.199385568128e+02 
       7.707696806873e-05       3.445329729826e+02 
       8.322579570814e-05       3.710167325947e+02 
       8.986514707061e-05       3.995346448651e+02 
       9.703415376577e-05       4.302425397465e+02 
       1.047750691338e-04       4.633080769004e+02 
       1.131335172818e-04       4.989116270959e+02 
       1.221587619877e-04       5.372471940435e+02 
       1.319039970550e-04       5.785234118413e+02 
       1.424266598317e-04       6.229645932198e+02 
       1.537887697396e-04       6.708118483839e+02 
       1.660572938097e-04       7.223242662381e+02 
       1.793045413791e-04       7.777801565811e+02 
       1.936085902737e-04       8.374783606137e+02 
       2.090537469909e-04       9.017396249150e+02 
       2.257310435923e-04       9.709080234982e+02 
       2.437387742372e-04       1.045352444929e+03 
       2.631830745176e-04       1.125468114085e+03 
       2.841785470091e-04       1.211678167806e+03 
       3.068489367268e-04       1.304435229434e+03 
       3.313278604643e-04       1.404223025878e+03 
       3.577595943165e-04       1.511557975526e+03 
       3.862999240274e-04       1.626990775673e+03 
       4.171170631739e-04       1.751107931944e+03 
       4.503926445983e-04       1.884533242018e+03 
       4.863227909323e-04       2.027929172756e+03 
       5.251192705226e-04       2.181998143686e+03 
       5.670107455699e-04       2.347483654430e+03 
       6.122441198393e-04       2.525171219504e+03 
       6.610859938837e-04       2.715889032869e+03 
       7.138242363583e-04       2.920508312124e+03 
       7.707696806873e-04       3.139943095569e+03 
       8.322579570814e-04       3.375149445167e+03 
       8.986514707061e-04       3.627123656455e+03 
       9.703415376577e-04       3.896899423983e+03 
       1.047750691338e-03       4.185543509732e+03 
       1.131335172818e-03       4.494150000063e+03 
       1.221587619877e-03       4.823832913539e+03 
       1.319039970550e-03       5.175717280791e+03 
       1.424266598317e-03       5.550982799771e+03 
       1.537887697396e-03       5.950735050511e+03 
       1.660572938097e-03       6.376046412318e+03 
       1.793045413791e-03       6.827964197264e+03 
       1.936085902737e-03       7.307469064477e+03 
       2.090537469909e-03       7.815449933148e+03 
       2.257310435923e-03       8.352676455172e+03 
       2.437387742372e-03       8.919768486187e+03 
       2.631830745176e-03       9.517160977611e+03 
       2.841785470091e-03       1.014506549023e+04 
       3.068489367268e-03       1.080342750623e+04 
       3.313278604643e-03       1.149187884224e+04 
       3.577595943165e-03       1.220968190050e+04 
       3.862999240274e-03       1.295566658219e+04 
       4.171170631739e-03       1.372816351035e+04 
       4.503926445983e-03       1.452493343564e+04 
       4.863227909323e-03       1.534307060298e+04 
       5.251192705226e-03       1.617905088512e+04 
       5.670107455699e-03       1.702852902092e+04 
       6.122441198393e-03       1.788613460044e+04 
       6.610859938837e-03       1.874563508714e+04 
       7.138242363583e-03       1.959969828244e+04 
       7.707696806873e-03       2.043979070229e+04 
       8.322579570814e-03       2.125607610472e+04 
       8.986514707061e-03       2.203738112820e+04 
       9.703415376577e-03       2.277091506811e+04 
       1.047750691338e-02       2.344242207034e+04 
       1.131335172818e-02       2.403596109328e+04 
       1.221587619877e-02       2.453398835910e+04 
       1.319039970550e-02       2.491747577512e+04 
       1.424266598317e-02       2.516573973424e+04 
       1.537887697392e-02       2.525771291952e+04 
       1.660572938023e-02       2.517120656368e+04 
       1.793045412706e-02       2.488502659600e+04 
       1.936085890181e-02       2.437937931304e+04 
       2.090537352463e-02       2.363780263927e+04 
       2.257309535333e-02       2.264908913604e+04 
       2.437382002918e-02       2.140994795529e+04 
       2.631799944462e-02       1.992725688099e+04 
       2.841644545389e-02       1.822149429602e+04 
       3.067933355377e-02       1.632943905600e+04 
       3.311368470740e-02       1.430675610192e+04 
       3.571840443502e-02       1.222964645117e+04 
       3.847720348444e-02       1.019124795436e+04 
       4.135335538431e-02       8.289893889352e+03 
       4.429361667738e-02       6.606561878847e+03 
       4.724366439141e-02       5.184617332157e+03 
       5.016480835311e-02       4.025685876273e+03 
       5.303989620246e-02       3.102752869726e+03 
       5.586870669566e-02       2.377548208828e+03 
       5.866042680613e-02       1.811518321247e+03 
       6.142798932958e-02       1.371166563193e+03 
       6.418496440164e-02       1.029108585313e+03 
       6.694418833788e-02       7.636011670593e+02 
       6.971731106057e-02       5.577353633030e+02 
       7.251476155766e-02       3.984998848934e+02 
       7.534587671527e-02       2.759871520375e+02 
       7.821907666265e-02       1.827228917751e+02 
       8.114203772912e-02       1.131224099563e+02 
       8.412184535029e-02       6.302102433972e+01 
       8.716512279304e-02       2.923982187772e+01 
       9.027813695930e-02       9.216606673991e+00 
       9.346688431697e-02       6.888687952826e-01 
       9.673716028276e-02       1.424916978244e+00 
       1.000946150830e-01       9.057234772127e+00 
       1.035447986537e-01       2.103860447610e+01 
       1.070931966762e-01       3.472719783309e+01 
       1.107452594425e-01       4.760647534899e+01 
       1.145064249153e-01       5.757676751280e+01 
       1.183821370918e-01       6.322273984979e+01 
       1.223778605862e-01       6.402821348668e+01 
       1.264990921987e-01       6.038217774981e+01 
       1.307513701367e-01       5.339629163926e+01 
       1.351402814784e-01       4.456121819034e+01 
       1.396714684203e-01       3.534741966802e+01 
       1.443506338194e-01       2.688524029842e+01 
       1.491835465229e-01       1.980711125491e+01 
       1.541760469708e-01       1.427039913083e+01 
       1.593340535561e-01       1.010717842970e+01 
       1.646635702297e-01       6.993328004600e+00 
       1.701706958456e-01       4.610549743077e+00 
       1.758616357459e-01       2.744955527169e+00 
       1.817427160982e-01       1.326138034360e+00 
       1.878204015065e-01       3.933799399785e-01 
       1.941013164283e-01       1.088395177238e-02 
       2.005922709503e-01       1.354801569146e-01 
       2.073002914972e-01       5.487917523612e-01 
       2.142326570816e-01       9.709242064586e-01 
       2.213969417533e-01       1.194900236634e+00 
       2.288010639706e-01       1.162873278123e+00 
       2.364533437147e-01       9.697616655894e-01 
       2.443625682930e-01       7.478287761996e-01 
       2.525380679504e-01       5.606806288955e-01 
       2.609898026346e-01       4.172387531125e-01 
       2.697284615565e-01       3.009154274906e-01 
       2.787655775689e-01       1.871270990439e-01 
       2.881136588829e-01       8.348640361676e-02 
       2.977863412677e-01       1.875506711082e-02 
       3.077985646929e-01       1.143737174059e-06 
       3.181667794071e-01       8.568478278918e-03 
       3.289091877812e-01       1.942572081187e-02 
       3.400460299658e-01       2.474751157596e-02 
       3.515999236474e-01       2.605538719958e-02 
       3.635962711085e-01       2.641488696514e-02 
       3.760637506334e-01       2.270258852142e-02 
       3.890349143879e-01       1.517645649585e-02 
       4.025469216825e-01       6.922212685962e-03 
       4.166424456376e-01       2.155652903296e-03 
       4.313708035863e-01       3.198231503765e-04 
       4.467893782977e-01       2.471823968794e-06 
       4.629654199664e-01       2.817040152709e-04 
       4.799783501994e-01       7.040703509411e-04 
       4.979227319373e-01       7.171055893696e-04 
       5.169121270864e-01       4.481523925159e-04 
       5.370841404489e-01       2.093797016891e-04 
       5.586070464571e-01       4.754660152259e-05 
       5.816885094930e-01       1.182467823480e-07 
       6.065870144995e-01       2.319281714186e-05 
       6.336266468475e-01       4.247928509157e-05 
       6.632156059511e-01       3.658013392780e-05 
       6.958678639263e-01       1.723707809905e-05 
       7.322247985589e-01       3.372085012458e-06 
       7.730680195114e-01       1.549697786587e-07 
       8.193049553677e-01       9.275346125800e-09 
       8.718988016039e-01       6.892781085806e-08 
       9.317218031082e-01       5.165701729531e-07 
       9.993660908989e-01       4.656103298338e-07 
       1.075037110174e+00       1.585577947324e-07 
       1.158653485707e+00       5.526609099500e-08 
       1.250099157308e+00       7.143789192614e-08 
       1.349432401273e+00       2.293915664288e-08 
       1.456947457397e+00       2.490423882992e-08 
       1.573135111331e+00       1.885089149696e-08 
       1.698621895592e+00       2.188261485006e-08 
       1.834127512934e+00       1.088345389074e-08 
       1.980444934528e+00       2.960517216721e-09 
       2.138435191726e+00       4.951404367936e-09 
       2.309029199186e+00       1.986409472372e-09 
       2.493232377687e+00       1.171894813079e-08 
       2.692130395285e+00       5.463777145976e-09 
       2.906895534573e+00       3.821977826096e-10 
       3.138793597714e+00       1.685703629141e-08 
       3.389191366484e+00       7.579998735532e-10 
       3.659564657905e+00       5.936656093595e-09 
       3.951507022538e+00       5.494271853410e-09 
       4.266739136701e+00       6.290413477116e-10 
       4.607118943941e+00       6.329758319820e-10 
       4.974652605557e+00       2.565531706770e-10 
       5.371506324689e+00       8.862162675573e-09 
       5.800019113685e+00       2.799507090440e-08 
       6.262716579983e+00       6.301814194397e-09 
       6.762325811764e+00       6.863184134840e-08 
       7.301791451110e+00       1.164610172626e-10 
       7.884293049406e+00       3.707801874528e-08 
       8.513263807261e+00       4.517038923609e-09 
       9.192410809424e+00       6.319816906745e-09 
       9.925736873929e+00       4.922991765464e-09 
       1.071756414427e+01       5.934023190568e-08 
       1.157255956364e+01       2.677822063250e-08 
       1.249576238137e+01       4.051661096475e-08 
       1.349261385375e+01       9.361972608821e-11 
       1.456898931416e+01       9.781842601957e-09 
       1.573123280165e+01       1.147427138173e-07 
       1.698619445202e+01       3.444190480676e-08 
       1.834127087176e+01       4.234034513251e-08 
       1.980444873285e+01       4.660662775534e-09 
       2.138435184532e+01       8.149623031370e-10 
       2.309029198506e+01       9.330406905447e-10 
       2.493232377636e+01       1.530252808580e-09 
       2.692130395282e+01       2.202159185927e-11 
       2.906895534573e+01       1.974078297577e-08 
       3.138793597714e+01       3.041095868107e-08 
       3.389191366484e+01       2.123872252218e-07 
       3.659564657905e+01       1.059907800583e-07 
       3.951507022538e+01       4.743523657539e-07 
       4.266739136701e+01       1.190485425478e-07 
       4.607118943941e+01       3.152092549228e-07 
       4.974652605557e+01       1.625448464780e-07 
       5.371506324689e+01       1.987836034163e-07 
       5.800019113685e+01       2.531172118126e-07 
       6.262716579983e+01       1.473807744690e-08 
       6.762325811764e+01       1.379750166356e-08 
       7.301791451110e+01       6.982182197884e-08 
       7.884293049406e+01       3.826747283440e-08 
       8.513263807261e+01       1.064866441661e-09 
       9.192410809424e+01       2.299657858478e-09 
       9.925736873929e+01       8.947917526724e-10 
       1.071756414427e+02       8.687295173068e-09 
       1.157255956364e+02       2.934894180268e-09 
       1.249576238137e+02       1.703499852260e-08 
       1.349261385375e+02       1.319501516381e-12 
       1.456898931416e+02       1.409847920547e-11 
       1.573123280165e+02       3.805260329998e-12 
       1.698619445202e+02       2.661399446275e-13 
       1.834127087176e+02       1.129659997466e-13 
       1.980444873285e+02       9.394695258887e-11 
       2.138435184532e+02       1.875442905545e-10 
