# Matter power spectrum P(k) at redshift z=0
# for k=1.04775e-05 to 213.844 h/Mpc,
# number of wavenumbers equal to 261
#    1:k (h/Mpc)              2:P (Mpc/h)^3        
       1.047750691338e-05       5.020963918550e+01 
       1.131335172818e-05       5.407048940944e+01 
       1.221587619877e-05       5.822819361445e+01 
       1.319039970550e-05       6.270561849389e+01 
       1.424266598317e-05       6.752731476485e+01 
       1.537887697396e-05       7.271976788529e+01 
       1.660572938097e-05       7.831147223778e+01 
       1.793045413791e-05       8.433312564092e+01 
       1.936085902737e-05       9.081779357462e+01 
       2.090537469909e-05       9.780107177110e+01 
       2.257310435923e-05       1.053212938680e+02 
       2.437387742372e-05       1.134197268597e+02 
       2.631830745176e-05       1.221408261108e+02 
       2.841785470091e-05       1.315324609487e+02 
       3.068489367268e-05       1.416461671415e+02 
       3.313278604643e-05       1.525374470192e+02 
       3.577595943165e-05       1.642660516402e+02 
       3.862999240274e-05       1.768963422090e+02 
       4.171170631739e-05       1.904975992480e+02 
       4.503926445983e-05       2.051444243757e+02 
       4.863227909323e-05       2.209171404335e+02 
       5.251192705226e-05       2.379022250179e+02 
       5.670107455699e-05       2.561927841707e+02 
       6.122441198393e-05       2.758890477333e+02 
       6.610859938837e-05       2.970989214651e+02 
       7.138242363583e-05       3.199385570077e+02 
       7.707696806873e-05       3.445329734501e+02 
       8.322579570814e-05       3.710167320603e+02 
       8.986514707061e-05       3.995346443053e+02 
       9.703415376577e-05       4.302425394737e+02 
       1.047750691338e-04       4.633080773473e+02 
       1.131335172818e-04       4.989116273931e+02 
       1.221587619877e-04       5.372471939697e+02 
       1.319039970550e-04       5.785234116041e+02 
       1.424266598317e-04       6.229645933261e+02 
       1.537887697396e-04       6.708118478951e+02 
       1.660572938097e-04       7.223242664592e+02 
       1.793045413791e-04       7.777801576368e+02 
       1.936085902737e-04       8.374783637034e+02 
       2.090537469909e-04       9.017396286442e+02 
       2.257310435923e-04       9.709080297627e+02 
       2.437387742372e-04       1.045352452313e+03 
       2.631830745176e-04       1.125468127716e+03 
       2.841785470091e-04       1.211678185509e+03 
       3.068489367268e-04       1.304435254253e+03 
       3.313278604643e-04       1.404223062281e+03 
       3.577595943165e-04       1.511558029098e+03 
       3.862999240274e-04       1.626990852391e+03 
       4.171170631739e-04       1.751108045764e+03 
       4.503926445983e-04       1.884533403650e+03 
       4.863227909323e-04       2.027929407212e+03 
       5.251192705226e-04       2.181998483156e+03 
       5.670107455699e-04       2.347484141475e+03 
       6.122441198393e-04       2.525171923780e+03 
       6.610859938837e-04       2.715890052893e+03 
       7.138242363583e-04       2.920509774462e+03 
       7.707696806873e-04       3.139945203843e+03 
       8.322579570814e-04       3.375152470546e+03 
       8.986514707061e-04       3.627128011962e+03 
       9.703415376577e-04       3.896905653527e+03 
       1.047750691338e-03       4.185552434598e+03 
       1.131335172818e-03       4.494162749426e+03 
       1.221587619877e-03       4.823851113281e+03 
       1.319039970550e-03       5.175743225531e+03 
       1.424266598317e-03       5.551020220406e+03 
       1.537887697396e-03       5.950789069435e+03 
       1.660572938097e-03       6.376123979404e+03 
       1.793045413791e-03       6.828074987109e+03 
       1.936085902737e-03       7.307626688849e+03 
       2.090537469909e-03       7.815673434484e+03 
       2.257310435923e-03       8.352992171235e+03 
       2.437387742372e-03       8.920213198315e+03 
       2.631830745176e-03       9.517785608001e+03 
       2.841785470091e-03       1.014593977205e+04 
       3.068489367268e-03       1.080464835651e+04 
       3.313278604643e-03       1.149357799731e+04 
       3.577595943165e-03       1.221203995325e+04 
       3.862999240274e-03       1.295892894038e+04 
       4.171170631739e-03       1.373266313866e+04 
       4.503926445983e-03       1.453112009910e+04 
       4.863227909323e-03       1.535154890498e+04 
       5.251192705226e-03       1.619063174514e+04 
       5.670107455699e-03       1.704429573253e+04 
       6.122441198393e-03       1.790752324845e+04 
       6.610859938837e-03       1.877454581054e+04 
       7.138242363583e-03       1.963863781658e+04 
       7.707696806873e-03       2.049202987047e+04 
       8.322579570814e-03       2.132589471172e+04 
       8.986514707061e-03       2.213031062988e+04 
       9.703415376577e-03       2.289412693296e+04 
       1.047750691338e-02       2.360503645258e+04 
       1.131335172818e-02       2.424963359009e+04 
       1.221587619877e-02       2.481344643930e+04 
       1.319039970550e-02       2.528114897313e+04 
       1.424266598317e-02       2.563677942780e+04 
       1.537887697392e-02       2.586429248117e+04 
       1.660572938023e-02       2.594797174442e+04 
       1.793045412706e-02       2.587339043319e+04 
       1.936085890181e-02       2.562841155172e+04 
       2.090537352463e-02       2.520454224196e+04 
       2.257309535333e-02       2.459837403215e+04 
       2.437382002918e-02       2.381327239898e+04 
       2.631799944462e-02       2.286094559778e+04 
       2.841644545389e-02       2.176283421694e+04 
       3.067933355377e-02       2.055132563078e+04 
       3.311368470740e-02       1.927007351037e+04 
       3.571840443502e-02       1.797349785570e+04 
       3.847720348444e-02       1.672256858132e+04 
       4.135335538431e-02       1.557638064838e+04 
       4.429361667738e-02       1.457802170644e+04 
       4.724366439141e-02       1.374400531850e+04 
       5.016480835311e-02       1.306438186513e+04 
       5.303989620246e-02       1.251248636651e+04 
       5.586870669566e-02       1.205573645706e+04 
       5.866042680613e-02       1.166250622605e+04 
       6.142798932958e-02       1.130492575862e+04 
       6.418496440164e-02       1.095987677707e+04 
       6.694418833788e-02       1.060914376548e+04 
       6.971731106057e-02       1.023949078638e+04 
       7.251476155766e-02       9.842656933523e+03 
       7.534587671527e-02       9.415401545168e+03 
       7.821907666265e-02       8.959455486930e+03 
       8.114203772912e-02       8.480772276771e+03 
       8.412184535029e-02       7.989039449552e+03 
       8.716512279304e-02       7.496692652980e+03 
       9.027813695930e-02       7.017209425834e+03 
       9.346688431697e-02       6.564026437581e+03 
       9.673716028276e-02       6.148834619384e+03 
       1.000946150830e-01       5.780484280523e+03 
       1.035447986537e-01       5.463999229745e+03 
       1.070931966762e-01       5.199770481547e+03 
       1.107452594425e-01       4.983707212589e+03 
       1.145064249153e-01       4.807009683066e+03 
       1.183821370918e-01       4.657017758331e+03 
       1.223778605862e-01       4.518394203258e+03 
       1.264990921987e-01       4.375102189158e+03 
       1.307513701367e-01       4.213019810817e+03 
       1.351402814784e-01       4.022981368344e+03 
       1.396714684203e-01       3.803107016966e+03 
       1.443506338194e-01       3.559642949325e+03 
       1.491835465229e-01       3.305785199547e+03 
       1.541760469708e-01       3.058299401261e+03 
       1.593340535561e-01       2.833715461601e+03 
       1.646635702297e-01       2.643815793575e+03 
       1.701706958456e-01       2.492824719149e+03 
       1.758616357459e-01       2.376431439451e+03 
       1.817427160982e-01       2.282747826045e+03 
       1.878204015065e-01       2.196423098345e+03 
       1.941013164283e-01       2.100831352472e+03 
       2.005922709503e-01       1.985691457856e+03 
       2.073002914972e-01       1.851930724553e+03 
       2.142326570816e-01       1.710701560751e+03 
       2.213969417533e-01       1.576833131184e+03 
       2.288010639706e-01       1.462033847540e+03 
       2.364533437147e-01       1.370904762192e+03 
       2.443625682930e-01       1.299284447260e+03 
       2.525380679504e-01       1.235706074955e+03 
       2.609898026346e-01       1.168185556585e+03 
       2.697284615565e-01       1.091371914052e+03 
       2.787655775689e-01       1.008590470985e+03 
       2.881136588829e-01       9.293573605959e+02 
       2.977863412677e-01       8.620110385190e+02 
       3.077985646929e-01       8.070609164878e+02 
       3.181667794071e-01       7.585742098959e+02 
       3.289091877812e-01       7.093524154488e+02 
       3.400460299658e-01       6.568060850488e+02 
       3.515999236474e-01       6.048166740086e+02 
       3.635962711085e-01       5.582800327782e+02 
       3.760637506334e-01       5.183876836548e+02 
       3.890349143879e-01       4.814696579534e+02 
       4.025469216825e-01       4.444866611982e+02 
       4.166424456376e-01       4.079388562422e+02 
       4.313708035863e-01       3.743430993362e+02 
       4.467893782977e-01       3.441228007410e+02 
       4.629654199664e-01       3.156663028079e+02 
       4.799783501994e-01       2.878889570090e+02 
       4.979227319373e-01       2.617114954093e+02 
       5.169121270864e-01       2.377521993188e+02 
       5.370841404489e-01       2.150169932415e+02 
       5.586070464571e-01       1.933351507049e+02 
       5.816885094930e-01       1.731393991849e+02 
       6.065870144995e-01       1.541088197963e+02 
       6.336266468475e-01       1.361025724878e+02 
       6.632156059511e-01       1.192344040111e+02 
       6.958678639263e-01       1.033382650660e+02 
       7.322247985589e-01       8.846996731668e+01 
       7.730680195114e-01       7.459377710048e+01 
       8.193049553677e-01       6.177828534796e+01 
       8.718988016039e-01       5.010205964385e+01 
       9.317218031082e-01       3.969299592508e+01 
       9.993660908989e-01       3.067648264575e+01 
       1.075037110174e+00       2.311940501567e+01 
       1.158653485707e+00       1.699482456546e+01 
       1.250099157308e+00       1.218298869706e+01 
       1.349432401273e+00       8.501000177402e+00 
       1.456947457397e+00       5.753662719703e+00 
       1.573135111331e+00       3.756161472944e+00 
       1.698621895592e+00       2.345652670924e+00 
       1.834127512934e+00       1.384264173480e+00 
       1.980444934528e+00       7.576323568943e-01 
       2.138435191726e+00       3.726960014923e-01 
       2.309029199186e+00       1.550383865234e-01 
       2.493232377687e+00       4.717914062004e-02 
       2.692130395285e+00       6.015259620478e-03 
       2.906895534573e+00       8.118680984007e-04 
       3.138793597714e+00       1.095333354564e-02 
       3.389191366484e+00       2.389807873605e-02 
       3.659564657905e+00       3.321054793347e-02 
       3.951507022538e+00       3.667201784998e-02 
       4.266739136701e+00       3.467707225454e-02 
       4.607118943941e+00       2.900350556078e-02 
       4.974652605557e+00       2.168228356402e-02 
       5.371506324689e+00       1.447188615323e-02 
       5.800019113685e+00       8.516082611189e-03 
       6.262716579983e+00       4.298607581817e-03 
       6.762325811764e+00       1.749059543472e-03 
       7.301791451110e+00       4.942297284460e-04 
       7.884293049406e+00       5.381770738728e-05 
       8.513263807261e+00       8.121546410958e-06 
       9.192410809424e+00       7.661089908888e-05 
       9.925736873929e+00       1.238937951192e-04 
       1.071756414427e+01       1.192490350702e-04 
       1.157255956364e+01       8.264415134575e-05 
       1.249576238137e+01       4.264602624673e-05 
       1.349261385375e+01       1.552769181501e-05 
       1.456898931416e+01       3.193520606782e-06 
       1.573123280165e+01       8.391312872253e-08 
       1.698619445202e+01       2.859458457169e-07 
       1.834127087176e+01       6.609831660149e-07 
       1.980444873285e+01       5.424119367660e-07 
       2.138435184532e+01       2.507671028001e-07 
       2.309029198506e+01       6.400078091983e-08 
       2.493232377636e+01       5.477239721010e-09 
       2.692130395282e+01       2.776910810520e-10 
       2.906895534573e+01       1.396108474605e-09 
       3.138793597714e+01       4.726154338928e-10 
       3.389191366484e+01       2.903906277341e-12 
       3.659564657905e+01       2.914767398054e-10 
       3.951507022538e+01       4.866414596249e-10 
       4.266739136701e+01       3.834736671804e-10 
       4.607118943941e+01       2.390133099971e-10 
       4.974652605557e+01       1.527829451439e-10 
       5.371506324689e+01       1.006031871589e-10 
       5.800019113685e+01       8.120240188674e-11 
       6.262716579983e+01       6.624798344805e-11 
       6.762325811764e+01       5.042226438865e-11 
       7.301791451110e+01       3.653618634917e-11 
       7.884293049406e+01       2.713799747986e-11 
       8.513263807261e+01       1.976525284190e-11 
       9.192410809424e+01       1.443977457056e-11 
       9.925736873929e+01       1.049295334062e-11 
       1.071756414427e+02       7.346292141861e-12 
       1.157255956364e+02       5.201293836554e-12 
       1.249576238137e+02       3.577493938704e-12 
       1.349261385375e+02       2.481915796981e-12 
       1.456898931416e+02       1.683648563276e-12 
       1.573123280165e+02       1.165518188371e-12 
       1.698619445202e+02       8.574957948572e-13 
       1.834127087176e+02       6.566063554939e-13 
       1.980444873285e+02       4.590403998730e-13 
       2.138435184532e+02       3.091431770713e-13 
