# Matter power spectrum P(k) at redshift z=0
# for k=1.04775e-05 to 134.926 h/Mpc,
# number of wavenumbers equal to 255
#    1:k (h/Mpc)              2:P (Mpc/h)^3        
       1.047750691338e-05       5.020963909504e+01 
       1.131335172818e-05       5.407048938811e+01 
       1.221587619877e-05       5.822819360700e+01 
       1.319039970550e-05       6.270561849597e+01 
       1.424266598317e-05       6.752731476171e+01 
       1.537887697396e-05       7.271976787820e+01 
       1.660572938097e-05       7.831147226465e+01 
       1.793045413791e-05       8.433312563974e+01 
       1.936085902737e-05       9.081779357267e+01 
       2.090537469909e-05       9.780107207749e+01 
       2.257310435923e-05       1.053212938647e+02 
       2.437387742372e-05       1.134197268536e+02 
       2.631830745176e-05       1.221408281749e+02 
       2.841785470091e-05       1.315324610223e+02 
       3.068489367268e-05       1.416461683227e+02 
       3.313278604643e-05       1.525374488861e+02 
       3.577595943165e-05       1.642660514567e+02 
       3.862999240274e-05       1.768963424177e+02 
       4.171170631739e-05       1.904975993538e+02 
       4.503926445983e-05       2.051444243194e+02 
       4.863227909323e-05       2.209171412096e+02 
       5.251192705226e-05       2.379022266142e+02 
       5.670107455699e-05       2.561927855192e+02 
       6.122441198393e-05       2.758890476446e+02 
       6.610859938837e-05       2.970989214156e+02 
       7.138242363583e-05       3.199385559545e+02 
       7.707696806873e-05       3.445329733577e+02 
       8.322579570814e-05       3.710167324833e+02 
       8.986514707061e-05       3.995346445606e+02 
       9.703415376577e-05       4.302425394746e+02 
       1.047750691338e-04       4.633080773436e+02 
       1.131335172818e-04       4.989116272698e+02 
       1.221587619877e-04       5.372471940420e+02 
       1.319039970550e-04       5.785234121156e+02 
       1.424266598317e-04       6.229645931623e+02 
       1.537887697396e-04       6.708118479137e+02 
       1.660572938097e-04       7.223242664138e+02 
       1.793045413791e-04       7.777801578604e+02 
       1.936085902737e-04       8.374783637081e+02 
       2.090537469909e-04       9.017396287121e+02 
       2.257310435923e-04       9.709080297867e+02 
       2.437387742372e-04       1.045352452276e+03 
       2.631830745176e-04       1.125468127260e+03 
       2.841785470091e-04       1.211678185272e+03 
       3.068489367268e-04       1.304435254254e+03 
       3.313278604643e-04       1.404223061813e+03 
       3.577595943165e-04       1.511558029236e+03 
       3.862999240274e-04       1.626990852495e+03 
       4.171170631739e-04       1.751108045978e+03 
       4.503926445983e-04       1.884533404620e+03 
       4.863227909323e-04       2.027929407101e+03 
       5.251192705226e-04       2.181998483422e+03 
       5.670107455699e-04       2.347484144055e+03 
       6.122441198393e-04       2.525171924264e+03 
       6.610859938837e-04       2.715890053610e+03 
       7.138242363583e-04       2.920509774966e+03 
       7.707696806873e-04       3.139945205285e+03 
       8.322579570814e-04       3.375152472808e+03 
       8.986514707061e-04       3.627128014837e+03 
       9.703415376577e-04       3.896905655036e+03 
       1.047750691338e-03       4.185552440974e+03 
       1.131335172818e-03       4.494162758503e+03 
       1.221587619877e-03       4.823851126223e+03 
       1.319039970550e-03       5.175743243981e+03 
       1.424266598317e-03       5.551020247229e+03 
       1.537887697396e-03       5.950789108460e+03 
       1.660572938097e-03       6.376124035716e+03 
       1.793045413791e-03       6.828075067937e+03 
       1.936085902737e-03       7.307626804078e+03 
       2.090537469909e-03       7.815673612955e+03 
       2.257310435923e-03       8.352992401739e+03 
       2.437387742372e-03       8.920213536900e+03 
       2.631830745176e-03       9.517786060049e+03 
       2.841785470091e-03       1.014594042121e+04 
       3.068489367268e-03       1.080464923125e+04 
       3.313278604643e-03       1.149357920563e+04 
       3.577595943165e-03       1.221204162053e+04 
       3.862999240274e-03       1.295893139676e+04 
       4.171170631739e-03       1.373266625130e+04 
       4.503926445983e-03       1.453112421693e+04 
       4.863227909323e-03       1.535155465514e+04 
       5.251192705226e-03       1.619063952390e+04 
       5.670107455699e-03       1.704430622418e+04 
       6.122441198393e-03       1.790753782321e+04 
       6.610859938837e-03       1.877456464620e+04 
       7.138242363583e-03       1.963866321820e+04 
       7.707696806873e-03       2.049206286509e+04 
       8.322579570814e-03       2.132593840828e+04 
       8.986514707061e-03       2.213036778088e+04 
       9.703415376577e-03       2.289420198245e+04 
       1.047750691338e-02       2.360513350842e+04 
       1.131335172818e-02       2.424976005355e+04 
       1.221587619877e-02       2.481360863174e+04 
       1.319039970550e-02       2.528135654667e+04 
       1.424266598317e-02       2.563704283752e+04 
       1.537887697392e-02       2.586462522749e+04 
       1.660572938023e-02       2.594838957257e+04 
       1.793045412706e-02       2.587390908041e+04 
       1.936085890181e-02       2.562904688348e+04 
       2.090537352463e-02       2.520532898267e+04 
       2.257309535333e-02       2.459932750336e+04 
       2.437382002918e-02       2.381441128208e+04 
       2.631799944462e-02       2.286234561852e+04 
       2.841644545389e-02       2.176447190901e+04 
       3.067933355377e-02       2.055317212089e+04 
       3.311368470740e-02       1.927222196755e+04 
       3.571840443502e-02       1.797589309487e+04 
       3.847720348444e-02       1.672520618813e+04 
       4.135335538431e-02       1.557924851895e+04 
       4.429361667738e-02       1.458111746530e+04 
       4.724366439141e-02       1.374721430997e+04 
       5.016480835311e-02       1.306768359809e+04 
       5.303989620246e-02       1.251572400765e+04 
       5.586870669566e-02       1.205887241980e+04 
       5.866042680613e-02       1.166545995878e+04 
       6.142798932958e-02       1.130753895164e+04 
       6.418496440164e-02       1.096210075431e+04 
       6.694418833788e-02       1.061085557814e+04 
       6.971731106057e-02       1.024054707729e+04 
       7.251476155766e-02       9.842974834731e+03 
       7.534587671527e-02       9.414907106474e+03 
       7.821907666265e-02       8.958045908031e+03 
       8.114203772912e-02       8.478360091774e+03 
       8.412184535029e-02       7.985570572817e+03 
       8.716512279304e-02       7.492135756110e+03 
       9.027813695930e-02       7.011550190406e+03 
       9.346688431697e-02       6.557247884975e+03 
       9.673716028276e-02       6.140933034151e+03 
       1.000946150830e-01       5.771465933015e+03 
       1.035447986537e-01       5.453832790937e+03 
       1.070931966762e-01       5.188468806771e+03 
       1.107452594425e-01       4.971217496156e+03 
       1.145064249153e-01       4.793269661403e+03 
       1.183821370918e-01       4.641996773812e+03 
       1.223778605862e-01       4.502065849342e+03 
       1.264990921987e-01       4.357389885386e+03 
       1.307513701367e-01       4.193886353224e+03 
       1.351402814784e-01       4.002405841348e+03 
       1.396714684203e-01       3.781116740587e+03 
       1.443506338194e-01       3.536283233243e+03 
       1.491835465229e-01       3.281029646560e+03 
       1.541760469708e-01       3.032235347878e+03 
       1.593340535561e-01       2.806318891531e+03 
       1.646635702297e-01       2.614987379378e+03 
       1.701706958456e-01       2.462485316067e+03 
       1.758616357459e-01       2.344472902738e+03 
       1.817427160982e-01       2.249088213252e+03 
       1.878204015065e-01       2.161058794326e+03 
       1.941013164283e-01       2.063866171203e+03 
       2.005922709503e-01       1.947305933914e+03 
       2.073002914972e-01       1.812331917872e+03 
       2.142326570816e-01       1.670039547253e+03 
       2.213969417533e-01       1.535167463856e+03 
       2.288010639706e-01       1.419249058904e+03 
       2.364533437147e-01       1.326841756721e+03 
       2.443625682930e-01       1.253786280516e+03 
       2.525380679504e-01       1.188769243422e+03 
       2.609898026346e-01       1.120001958460e+03 
       2.697284615565e-01       1.042249135797e+03 
       2.787655775689e-01       9.587957586841e+02 
       2.881136588829e-01       8.789860290855e+02 
       2.977863412677e-01       8.109412656011e+02 
       3.077985646929e-01       7.551312617042e+02 
       3.181667794071e-01       7.057695646912e+02 
       3.289091877812e-01       6.558822969248e+02 
       3.400460299658e-01       6.029855927123e+02 
       3.515999236474e-01       5.508331824666e+02 
       3.635962711085e-01       5.041123943391e+02 
       3.760637506334e-01       4.639442742636e+02 
       3.890349143879e-01       4.268239155278e+02 
       4.025469216825e-01       3.898743374848e+02 
       4.166424456376e-01       3.535749297793e+02 
       4.313708035863e-01       3.202826691221e+02 
       4.467893782977e-01       2.903748871249e+02 
       4.629654199664e-01       2.623576301189e+02 
       4.799783501994e-01       2.352348474053e+02 
       4.979227319373e-01       2.098428584953e+02 
       5.169121270864e-01       1.867365117976e+02 
       5.370841404489e-01       1.650223533708e+02 
       5.586070464571e-01       1.445503372193e+02 
       5.816885094930e-01       1.257004632014e+02 
       6.065870144995e-01       1.081986342051e+02 
       6.336266468475e-01       9.192909292159e+01 
       6.632156059511e-01       7.699971366316e+01 
       6.958678639263e-01       6.328584089724e+01 
       7.322247985589e-01       5.085070928599e+01 
       7.730680195114e-01       3.968526962388e+01 
       8.193049553677e-01       2.986778359194e+01 
       8.718988016039e-01       2.146885261955e+01 
       9.317218031082e-01       1.457008584025e+01 
       9.993660908989e-01       9.204332685380e+00 
       1.075037110174e+00       5.307651610921e+00 
       1.158653485707e+00       2.704065689941e+00 
       1.250099157308e+00       1.140109868789e+00 
       1.349432401273e+00       3.350990128716e-01 
       1.456947457397e+00       3.184298338857e-02 
       1.573135111331e+00       1.852772531701e-02 
       1.698621895592e+00       1.362336791414e-01 
       1.834127512934e+00       2.777324505968e-01 
       1.980444934528e+00       3.805659866358e-01 
       2.138435191726e+00       4.194373078817e-01 
       2.309029199186e+00       3.959525496814e-01 
       2.493232377687e+00       3.279426299964e-01 
       2.692130395285e+00       2.392872152094e-01 
       2.906895534573e+00       1.521995445881e-01 
       3.138793597714e+00       8.191124985342e-02 
       3.389191366484e+00       3.492342281543e-02 
       3.659564657905e+00       9.968432166452e-03 
       3.951507022538e+00       9.113526345740e-04 
       4.266739136701e+00       3.703072670095e-04 
       4.607118943941e+00       2.346491467760e-03 
       4.974652605557e+00       3.556103845295e-03 
       5.371506324689e+00       3.238433180497e-03 
       5.800019113685e+00       2.045589326872e-03 
       6.262716579983e+00       8.798053439998e-04 
       6.762325811764e+00       2.108175308935e-04 
       7.301791451110e+00       7.502527876108e-06 
       7.884293049406e+00       1.902712308816e-05 
       8.513263807261e+00       4.855481267855e-05 
       9.192410809424e+00       3.970618882367e-05 
       9.925736873929e+00       1.620997451143e-05 
       1.071756414427e+01       2.556765879122e-06 
       1.157255956364e+01       5.206496691923e-09 
       1.249576238137e+01       5.629781212919e-07 
       1.349261385375e+01       4.679073216890e-07 
       1.456898931416e+01       9.748003197707e-08 
       1.573123280165e+01       1.893120170152e-10 
       1.698619445202e+01       2.328337376363e-08 
       1.834127087176e+01       1.903520809820e-08 
       1.980444873285e+01       5.134378438381e-09 
       2.138435184532e+01       7.356942953680e-10 
       2.309029198506e+01       2.813139512398e-10 
       2.493232377636e+01       4.736606339977e-10 
       2.692130395282e+01       6.447956550837e-10 
       2.906895534573e+01       4.910784387136e-10 
       3.138793597714e+01       3.317936463814e-10 
       3.389191366484e+01       2.168158908425e-10 
       3.659564657905e+01       1.634872006430e-10 
       3.951507022538e+01       1.196452141845e-10 
       4.266739136701e+01       8.644055531816e-11 
       4.607118943941e+01       5.837215091627e-11 
       4.974652605557e+01       3.738832355964e-11 
       5.371506324689e+01       2.842095242095e-11 
       5.800019113685e+01       2.291213720632e-11 
       6.262716579983e+01       1.394166347897e-11 
       6.762325811764e+01       7.832148828141e-12 
       7.301791451110e+01       5.041984756638e-12 
       7.884293049406e+01       3.755087189870e-12 
       8.513263807261e+01       2.273810418438e-12 
       9.192410809424e+01       8.291442952594e-13 
       9.925736873929e+01       5.630886557696e-13 
       1.071756414427e+02       4.289227614988e-13 
       1.157255956364e+02       2.604591465442e-13 
       1.249576238137e+02       6.765606345523e-14 
       1.349261385375e+02       7.154030912211e-14 
