# Matter power spectrum P(k) at redshift z=99
# for k=1.04775e-05 to 134.926 h/Mpc,
# number of wavenumbers equal to 255
#    1:k (h/Mpc)              2:P (Mpc/h)^3        
       1.047750691338e-05       7.261944391922e-03 
       1.131335172818e-05       7.820350769368e-03 
       1.221587619877e-05       8.421695526853e-03 
       1.319039970550e-05       9.069279271966e-03 
       1.424266598317e-05       9.766661536274e-03 
       1.537887697396e-05       1.051766481695e-02 
       1.660572938097e-05       1.132641788433e-02 
       1.793045413791e-05       1.219736120016e-02 
       1.936085902737e-05       1.313527310358e-02 
       2.090537469909e-05       1.414530458050e-02 
       2.257310435923e-05       1.523300166737e-02 
       2.437387742372e-05       1.640433553635e-02 
       2.631830745176e-05       1.766573806786e-02 
       2.841785470091e-05       1.902413228603e-02 
       3.068489367268e-05       2.048697832134e-02 
       3.313278604643e-05       2.206230639958e-02 
       3.577595943165e-05       2.375876494178e-02 
       3.862999240274e-05       2.558566714391e-02 
       4.171170631739e-05       2.755304234459e-02 
       4.503926445983e-05       2.967168982830e-02 
       4.863227909323e-05       3.195324125610e-02 
       5.251192705226e-05       3.441021680371e-02 
       5.670107455699e-05       3.705610598293e-02 
       6.122441198393e-05       3.990542910563e-02 
       6.610859938837e-05       4.297382544243e-02 
       7.138242363583e-05       4.627813138600e-02 
       7.707696806873e-05       4.983648079520e-02 
       8.322579570814e-05       5.366839582147e-02 
       8.986514707061e-05       5.779490102930e-02 
       9.703415376577e-05       6.223863056855e-02 
       1.047750691338e-04       6.702395728802e-02 
       1.131335172818e-04       7.217712069516e-02 
       1.221587619877e-04       7.772637438725e-02 
       1.319039970550e-04       8.370213202532e-02 
       1.424266598317e-04       9.013713836743e-02 
       1.537887697396e-04       9.706664085570e-02 
       1.660572938097e-04       1.045285812021e-01 
       1.793045413791e-04       1.125637984714e-01 
       1.936085902737e-04       1.212162448214e-01 
       2.090537469909e-04       1.305332179490e-01 
       2.257310435923e-04       1.405656120916e-01 
       2.437387742372e-04       1.513681825652e-01 
       2.631830745176e-04       1.629998285437e-01 
       2.841785470091e-04       1.755238977215e-01 
       3.068489367268e-04       1.890085036919e-01 
       3.313278604643e-04       2.035268685512e-01 
       3.577595943165e-04       2.191576823371e-01 
       3.862999240274e-04       2.359854826196e-01 
       4.171170631739e-04       2.541010492158e-01 
       4.503926445983e-04       2.736018236944e-01 
       4.863227909323e-04       2.945923364138e-01 
       5.251192705226e-04       3.171846524443e-01 
       5.670107455699e-04       3.414988228615e-01 
       6.122441198393e-04       3.676633327289e-01 
       6.610859938837e-04       3.958155639839e-01 
       7.138242363583e-04       4.261022145651e-01 
       7.707696806873e-04       4.586797128419e-01 
       8.322579570814e-04       4.937145761218e-01 
       8.986514707061e-04       5.313836957365e-01 
       9.703415376577e-04       5.718745458267e-01 
       1.047750691338e-03       6.153852359587e-01 
       1.131335172818e-03       6.621244067707e-01 
       1.221587619877e-03       7.123108972659e-01 
       1.319039970550e-03       7.661731002268e-01 
       1.424266598317e-03       8.239556225836e-01 
       1.537887697396e-03       8.859019993974e-01 
       1.660572938097e-03       9.522594872507e-01 
       1.793045413791e-03       1.023280455718e+00 
       1.936085902737e-03       1.099216169091e+00 
       2.090537469909e-03       1.180312133295e+00 
       2.257310435923e-03       1.266802242367e+00 
       2.437387742372e-03       1.358901567395e+00 
       2.631830745176e-03       1.456797462745e+00 
       2.841785470091e-03       1.560639004966e+00 
       3.068489367268e-03       1.670524552036e+00 
       3.313278604643e-03       1.786487372457e+00 
       3.577595943165e-03       1.908479764625e+00 
       3.862999240274e-03       2.036355499640e+00 
       4.171170631739e-03       2.169851609934e+00 
       4.503926445983e-03       2.308570530816e+00 
       4.863227909323e-03       2.451963168158e+00 
       5.251192705226e-03       2.599315753210e+00 
       5.670107455699e-03       2.749739257831e+00 
       6.122441198393e-03       2.902170815725e+00 
       6.610859938837e-03       3.055375260712e+00 
       7.138242363583e-03       3.207958960596e+00 
       7.707696806873e-03       3.358386387814e+00 
       8.322579570814e-03       3.505001788068e+00 
       8.986514707061e-03       3.646039019386e+00 
       9.703415376577e-03       3.779624790924e+00 
       1.047750691338e-02       3.903760916547e+00 
       1.131335172818e-02       4.016291307586e+00 
       1.221587619877e-02       4.114866264406e+00 
       1.319039970550e-02       4.196922595140e+00 
       1.424266598317e-02       4.259712115554e+00 
       1.537887697392e-02       4.300400035939e+00 
       1.660572938023e-02       4.316216741977e+00 
       1.793045412706e-02       4.304646550414e+00 
       1.936085890181e-02       4.263583063487e+00 
       2.090537352463e-02       4.191529705998e+00 
       2.257309535333e-02       4.087770289811e+00 
       2.437382002918e-02       3.952684665163e+00 
       2.631799944462e-02       3.788074017125e+00 
       2.841644545389e-02       3.597408515318e+00 
       3.067933355377e-02       3.385999239049e+00 
       3.311368470740e-02       3.161103629930e+00 
       3.571840443502e-02       2.931837318024e+00 
       3.847720348444e-02       2.708610121441e+00 
       4.135335538431e-02       2.501605810996e+00 
       4.429361667738e-02       2.318542755948e+00 
       4.724366439141e-02       2.162654144302e+00 
       5.016480835311e-02       2.032739838115e+00 
       5.303989620246e-02       1.924692468707e+00 
       5.586870669566e-02       1.833164300302e+00 
       5.866042680613e-02       1.753052334774e+00 
       6.142798932958e-02       1.679832264235e+00 
       6.418496440164e-02       1.609746357705e+00 
       6.694418833788e-02       1.539847332138e+00 
       6.971731106057e-02       1.467992265607e+00 
       7.251476155766e-02       1.392838198905e+00 
       7.534587671527e-02       1.313838341461e+00 
       7.821907666265e-02       1.231199347735e+00 
       8.114203772912e-02       1.145812630984e+00 
       8.412184535029e-02       1.059130382993e+00 
       8.716512279304e-02       9.729874230897e-01 
       9.027813695930e-02       8.893946851796e-01 
       9.346688431697e-02       8.103109653973e-01 
       9.673716028276e-02       7.374129107401e-01 
       1.000946150830e-01       6.719244688402e-01 
       1.035447986537e-01       6.144839998815e-01 
       1.070931966762e-01       5.650929805039e-01 
       1.107452594425e-01       5.231118087294e-01 
       1.145064249153e-01       4.873460468177e-01 
       1.183821370918e-01       4.561346892304e-01 
       1.223778605862e-01       4.275412418876e-01 
       1.264990921987e-01       3.995967618596e-01 
       1.307513701367e-01       3.706134449321e-01 
       1.351402814784e-01       3.395231433767e-01 
       1.396714684203e-01       3.061324350184e-01 
       1.443506338194e-01       2.711942657304e-01 
       1.491835465229e-01       2.362135470645e-01 
       1.541760469708e-01       2.030424196924e-01 
       1.593340535561e-01       1.733609409641e-01 
       1.646635702297e-01       1.482516882115e-01 
       1.701706958456e-01       1.279479678304e-01 
       1.758616357459e-01       1.118899012358e-01 
       1.817427160982e-01       9.890288158963e-02 
       1.878204015065e-01       8.764707612316e-02 
       1.941013164283e-01       7.676705997188e-02 
       2.005922709503e-01       6.547270335289e-02 
       2.073002914972e-01       5.385063816226e-02 
       2.142326570816e-01       4.269274907250e-02 
       2.213969417533e-01       3.292566624118e-02 
       2.288010639706e-01       2.511555759768e-02 
       2.364533437147e-01       1.931174421098e-02 
       2.443625682930e-01       1.510705887204e-02 
       2.525380679504e-01       1.185839101264e-02 
       2.609898026346e-01       9.025502001714e-03 
       2.697284615565e-01       6.400130076503e-03 
       2.787655775689e-01       4.092466365527e-03 
       2.881136588829e-01       2.336354097054e-03 
       2.977863412677e-01       1.212365028749e-03 
       3.077985646929e-01       5.759780307803e-04 
       3.181667794071e-01       2.285722940198e-04 
       3.289091877812e-01       4.591033157097e-05 
       3.400460299658e-01       3.442458719036e-06 
       3.515999236474e-01       1.048961048877e-04 
       3.635962711085e-01       2.996070325545e-04 
       3.760637506334e-01       5.057193201902e-04 
       3.890349143879e-01       6.983237141927e-04 
       4.025469216825e-01       8.956588585574e-04 
       4.166424456376e-01       1.094568442224e-03 
       4.313708035863e-01       1.244937366294e-03 
       4.467893782977e-01       1.317051745039e-03 
       4.629654199664e-01       1.329265569799e-03 
       4.799783501994e-01       1.310743065768e-03 
       4.979227319373e-01       1.250144316484e-03 
       5.169121270864e-01       1.134041650027e-03 
       5.370841404489e-01       9.898992384474e-04 
       5.586070464571e-01       8.338150330159e-04 
       5.816885094930e-01       6.656842172537e-04 
       6.065870144995e-01       5.005964463803e-04 
       6.336266468475e-01       3.511833477031e-04 
       6.632156059511e-01       2.226827046503e-04 
       6.958678639263e-01       1.230807683645e-04 
       7.322247985589e-01       5.423544047005e-05 
       7.730680195114e-01       1.536898426811e-05 
       8.193049553677e-01       8.850813664970e-07 
       8.718988016039e-01       1.886030384004e-06 
       9.317218031082e-01       8.214967009855e-06 
       9.993660908989e-01       1.210543875022e-05 
       1.075037110174e+00       1.091167771091e-05 
       1.158653485707e+00       6.641249856709e-06 
       1.250099157308e+00       2.615247320349e-06 
       1.349432401273e+00       4.991003760395e-07 
       1.456947457397e+00       1.240909375861e-09 
       1.573135111331e+00       1.072754544753e-07 
       1.698621895592e+00       1.740664252464e-07 
       1.834127512934e+00       1.087766418142e-07 
       1.980444934528e+00       3.146592733305e-08 
       2.138435191726e+00       1.961480629054e-09 
       2.309029199186e+00       8.413205106149e-10 
       2.493232377687e+00       2.021279571297e-09 
       2.692130395285e+00       7.998644771630e-10 
       2.906895534573e+00       3.507139843000e-11 
       3.138793597714e+00       5.020258545591e-11 
       3.389191366484e+00       8.299375936539e-11 
       3.659564657905e+00       3.204903460672e-11 
       3.951507022538e+00       5.360930439923e-12 
       4.266739136701e+00       1.145255974775e-12 
       4.607118943941e+00       1.452531176746e-12 
       4.974652605557e+00       2.080522503949e-12 
       5.371506324689e+00       1.837987392027e-12 
       5.800019113685e+00       1.283152075987e-12 
       6.262716579983e+00       8.605725677927e-13 
       6.762325811764e+00       6.675653514006e-13 
       7.301791451110e+00       5.033800859441e-13 
       7.884293049406e+00       3.552500059494e-13 
       8.513263807261e+00       2.912389344773e-13 
       9.192410809424e+00       1.883507539343e-13 
       9.925736873929e+00       1.430823352211e-13 
       1.071756414427e+01       1.082484511821e-13 
       1.157255956364e+01       7.323524250207e-14 
       1.249576238137e+01       3.651605144456e-14 
       1.349261385375e+01       3.597348087485e-14 
       1.456898931416e+01       3.888760070392e-14 
       1.573123280165e+01       1.377975207038e-14 
       1.698619445202e+01       1.555505640083e-14 
       1.834127087176e+01       8.984154566074e-15 
       1.980444873285e+01       1.021247464028e-13 
       2.138435184532e+01       9.504132211357e-15 
       2.309029198506e+01       2.772740279382e-15 
       2.493232377636e+01       2.452943145050e-15 
       2.692130395282e+01       2.883192391498e-16 
       2.906895534573e+01       3.309311412639e-15 
       3.138793597714e+01       4.261644488505e-15 
       3.389191366484e+01       9.474200288466e-17 
       3.659564657905e+01       1.910073636041e-15 
       3.951507022538e+01       2.032202420159e-15 
       4.266739136701e+01       1.164439291251e-14 
       4.607118943941e+01       2.336720928688e-15 
       4.974652605557e+01       8.286901800098e-15 
       5.371506324689e+01       1.427637254861e-16 
       5.800019113685e+01       3.927608478247e-15 
       6.262716579983e+01       7.853828503527e-16 
       6.762325811764e+01       1.526626507920e-14 
       7.301791451110e+01       7.205502542745e-15 
       7.884293049406e+01       2.897129464382e-15 
       8.513263807261e+01       2.567166962838e-16 
       9.192410809424e+01       2.421672732441e-17 
       9.925736873929e+01       4.109719086018e-16 
       1.071756414427e+02       5.797591377042e-18 
       1.157255956364e+02       2.162368143046e-15 
       1.249576238137e+02       8.319180693451e-17 
       1.349261385375e+02       8.599973083661e-16 
