# Matter power spectrum P(k) at redshift z=99
# for k=1.04775e-05 to 134.926 h/Mpc,
# number of wavenumbers equal to 255
#    1:k (h/Mpc)              2:P (Mpc/h)^3        
       1.047750691338e-05       7.262838920619e-03 
       1.131335172818e-05       7.821313818425e-03 
       1.221587619877e-05       8.422730949599e-03 
       1.319039970550e-05       9.070395615900e-03 
       1.424266598317e-05       9.767864057350e-03 
       1.537887697396e-05       1.051896004415e-02 
       1.660572938097e-05       1.132781414008e-02 
       1.793045413791e-05       1.219886079885e-02 
       1.936085902737e-05       1.313688828031e-02 
       2.090537469909e-05       1.414704432500e-02 
       2.257310435923e-05       1.523487512137e-02 
       2.437387742372e-05       1.640635399690e-02 
       2.631830745176e-05       1.766791117683e-02 
       2.841785470091e-05       1.902647198112e-02 
       3.068489367268e-05       2.048949908049e-02 
       3.313278604643e-05       2.206501992534e-02 
       3.577595943165e-05       2.376168724723e-02 
       3.862999240274e-05       2.558881466678e-02 
       4.171170631739e-05       2.755643127582e-02 
       4.503926445983e-05       2.967534115355e-02 
       4.863227909323e-05       3.195717233898e-02 
       5.251192705226e-05       3.441445032824e-02 
       5.670107455699e-05       3.706066450195e-02 
       6.122441198393e-05       3.991033659808e-02 
       6.610859938837e-05       4.297910993357e-02 
       7.138242363583e-05       4.628382240033e-02 
       7.707696806873e-05       4.984260758087e-02 
       8.322579570814e-05       5.367499224406e-02 
       8.986514707061e-05       5.780200233331e-02 
       9.703415376577e-05       6.224627567885e-02 
       1.047750691338e-04       6.703218794275e-02 
       1.131335172818e-04       7.218597899138e-02 
       1.221587619877e-04       7.773590983750e-02 
       1.319039970550e-04       8.371239333172e-02 
       1.424266598317e-04       9.014818154148e-02 
       1.537887697396e-04       9.707852196545e-02 
       1.660572938097e-04       1.045413654659e-01 
       1.793045413791e-04       1.125775500004e-01 
       1.936085902737e-04       1.212310332975e-01 
       2.090537469909e-04       1.305491181407e-01 
       2.257310435923e-04       1.405827037791e-01 
       2.437387742372e-04       1.513865484971e-01 
       2.631830745176e-04       1.630195569884e-01 
       2.841785470091e-04       1.755450808707e-01 
       3.068489367268e-04       1.890312374232e-01 
       3.313278604643e-04       2.035512525586e-01 
       3.577595943165e-04       2.191838172879e-01 
       3.862999240274e-04       2.360134708863e-01 
       4.171170631739e-04       2.541309939652e-01 
       4.503926445983e-04       2.736338248671e-01 
       4.863227909323e-04       2.946264884892e-01 
       5.251192705226e-04       3.172210416040e-01 
       5.670107455699e-04       3.415375183722e-01 
       6.122441198393e-04       3.677043871684e-01 
       6.610859938837e-04       3.958589968681e-01 
       7.138242363583e-04       4.261480066505e-01 
       7.707696806873e-04       4.587277893252e-01 
       8.322579570814e-04       4.937647877640e-01 
       8.986514707061e-04       5.314357982534e-01 
       9.703415376577e-04       5.719281627957e-01 
       1.047750691338e-03       6.154398221785e-01 
       1.131335172818e-03       6.621791963260e-01 
       1.221587619877e-03       7.123648304936e-01 
       1.319039970550e-03       7.662247406021e-01 
       1.424266598317e-03       8.240030846158e-01 
       1.537887697396e-03       8.859425847823e-01 
       1.660572938097e-03       9.522895942042e-01 
       1.793045413791e-03       1.023295375773e+00 
       1.936085902737e-03       1.099209682007e+00 
       2.090537469909e-03       1.180276046694e+00 
       2.257310435923e-03       1.266725765921e+00 
       2.437387742372e-03       1.358770430571e+00 
       2.631830745176e-03       1.456592779464e+00 
       2.841785470091e-03       1.560335634920e+00 
       3.068489367268e-03       1.670089226624e+00 
       3.313278604643e-03       1.785875836113e+00 
       3.577595943165e-03       1.907632844641e+00 
       3.862999240274e-03       2.035194342624e+00 
       4.171170631739e-03       2.168270819219e+00 
       4.503926445983e-03       2.306429075935e+00 
       4.863227909323e-03       2.449072588965e+00 
       5.251192705226e-03       2.595424460392e+00 
       5.670107455699e-03       2.744510941139e+00 
       6.122441198393e-03       2.895160602228e+00 
       6.610859938837e-03       3.045992815510e+00 
       7.138242363583e-03       3.195426577199e+00 
       7.707696806873e-03       3.341687664089e+00 
       8.322579570814e-03       3.482809812836e+00 
       8.986514707061e-03       3.616644032193e+00 
       9.703415376577e-03       3.740835315613e+00 
       1.047750691338e-02       3.852791727325e+00 
       1.131335172818e-02       3.949631356850e+00 
       1.221587619877e-02       4.028125656733e+00 
       1.319039970550e-02       4.084661646688e+00 
       1.424266598317e-02       4.115253182573e+00 
       1.537887697392e-02       4.115633742654e+00 
       1.660572938023e-02       4.081419904444e+00 
       1.793045412706e-02       4.008367041624e+00 
       1.936085890181e-02       3.892609931337e+00 
       2.090537352463e-02       3.730993162435e+00 
       2.257309535333e-02       3.521489106993e+00 
       2.437382002918e-02       3.263789904368e+00 
       2.631799944462e-02       2.960014088023e+00 
       2.841644545389e-02       2.615508370796e+00 
       3.067933355377e-02       2.239548655531e+00 
       3.311368470740e-02       1.845990510472e+00 
       3.571840443502e-02       1.453339470650e+00 
       3.847720348444e-02       1.083599854025e+00 
       4.135335538431e-02       7.585250468455e-01 
       4.429361667738e-02       4.940284114242e-01 
       4.724366439141e-02       2.956718138110e-01 
       5.016480835311e-02       1.588642986024e-01 
       5.303989620246e-02       7.285855919197e-02 
       5.586870669566e-02       2.515802854258e-02 
       5.866042680613e-02       4.154632675237e-03 
       6.142798932958e-02       1.745557295732e-04 
       6.418496440164e-02       5.662689063619e-03 
       6.694418833788e-02       1.503660274667e-02 
       6.971731106057e-02       2.444582873739e-02 
       7.251476155766e-02       3.151794485210e-02 
       7.534587671527e-02       3.510364031195e-02 
       7.821907666265e-02       3.502064192774e-02 
       8.114203772912e-02       3.178169293637e-02 
       8.412184535029e-02       2.633891338186e-02 
       8.716512279304e-02       1.982515649696e-02 
       9.027813695930e-02       1.333444057781e-02 
       9.346688431697e-02       7.743834651029e-03 
       9.673716028276e-02       3.603135217542e-03 
       1.000946150830e-01       1.096109004559e-03 
       1.035447986537e-01       7.439944492109e-05 
       1.070931966762e-01       1.506044992828e-04 
       1.107452594425e-01       8.254582324306e-04 
       1.145064249153e-01       1.619687952537e-03 
       1.183821370918e-01       2.179019923042e-03 
       1.223778605862e-01       2.330416539737e-03 
       1.264990921987e-01       2.080845489103e-03 
       1.307513701367e-01       1.566676983273e-03 
       1.351402814784e-01       9.762598051603e-04 
       1.396714684203e-01       4.739468445920e-04 
       1.443506338194e-01       1.509988214889e-04 
       1.491835465229e-01       1.429874235261e-05 
       1.541760469708e-01       9.089300086207e-06 
       1.593340535561e-01       5.898086805747e-05 
       1.646635702297e-01       1.026329886162e-04 
       1.701706958456e-01       1.121975887772e-04 
       1.758616357459e-01       9.066814291840e-05 
       1.817427160982e-01       5.628811386410e-05 
       1.878204015065e-01       2.647948347076e-05 
       1.941013164283e-01       8.323626543470e-06 
       2.005922709503e-01       1.223160844987e-06 
       2.073002914972e-01       1.742964352799e-09 
       2.142326570816e-01       4.468552395565e-07 
       2.213969417533e-01       8.279722862181e-07 
       2.288010639706e-01       7.608849654851e-07 
       2.364533437147e-01       5.457037949622e-07 
       2.443625682930e-01       4.252436116385e-07 
       2.525380679504e-01       3.198610342027e-07 
       2.609898026346e-01       1.998939152728e-07 
       2.697284615565e-01       1.120944375002e-07 
       2.787655775689e-01       3.460685792189e-08 
       2.881136588829e-01       1.270338127610e-10 
       2.977863412677e-01       1.053707607656e-08 
       3.077985646929e-01       3.656007644799e-08 
       3.181667794071e-01       4.736067275378e-08 
       3.289091877812e-01       3.477546364751e-08 
       3.400460299658e-01       2.295659970306e-08 
       3.515999236474e-01       6.906404575415e-09 
       3.635962711085e-01       1.884349651233e-09 
       3.760637506334e-01       4.417051357861e-12 
       3.890349143879e-01       1.329363507428e-10 
       4.025469216825e-01       3.174749359004e-10 
       4.166424456376e-01       2.196902776001e-11 
       4.313708035863e-01       1.820448272283e-10 
       4.467893782977e-01       7.164758418150e-10 
       4.629654199664e-01       7.675121090804e-10 
       4.799783501994e-01       4.170448046764e-10 
       4.979227319373e-01       4.555307108866e-10 
       5.169121270864e-01       2.712862315186e-10 
       5.370841404489e-01       9.244689934245e-11 
       5.586070464571e-01       2.214505564680e-11 
       5.816885094930e-01       7.955200658420e-12 
       6.065870144995e-01       1.078988792497e-11 
       6.336266468475e-01       1.262511156174e-11 
       6.632156059511e-01       4.985810540421e-11 
       6.958678639263e-01       1.053116294138e-10 
       7.322247985589e-01       4.544082383778e-11 
       7.730680195114e-01       2.892473462989e-11 
       8.193049553677e-01       1.170618922825e-11 
       8.718988016039e-01       3.471402136318e-14 
       9.317218031082e-01       5.420861245126e-12 
       9.993660908989e-01       6.355303283428e-12 
       1.075037110174e+00       2.305777603276e-13 
       1.158653485707e+00       1.011814005583e-12 
       1.250099157308e+00       1.869408874169e-11 
       1.349432401273e+00       1.968519535264e-12 
       1.456947457397e+00       1.368239856416e-11 
       1.573135111331e+00       2.518827935750e-12 
       1.698621895592e+00       1.047025290460e-12 
       1.834127512934e+00       2.028176915366e-11 
       1.980444934528e+00       2.437244633829e-12 
       2.138435191726e+00       3.610463854720e-13 
       2.309029199186e+00       5.573264412331e-12 
       2.493232377687e+00       3.955626294756e-12 
       2.692130395285e+00       4.245572577753e-12 
       2.906895534573e+00       2.859211541313e-12 
       3.138793597714e+00       9.506677537552e-13 
       3.389191366484e+00       1.289724223730e-11 
       3.659564657905e+00       7.321070582562e-12 
       3.951507022538e+00       6.746063879851e-11 
       4.266739136701e+00       8.055238208607e-13 
       4.607118943941e+00       8.284699244571e-12 
       4.974652605557e+00       2.221528519604e-12 
       5.371506324689e+00       1.497858002930e-10 
       5.800019113685e+00       5.868032525741e-13 
       6.262716579983e+00       4.351762424491e-13 
       6.762325811764e+00       1.254076550557e-11 
       7.301791451110e+00       1.762999713350e-11 
       7.884293049406e+00       7.567280178018e-13 
       8.513263807261e+00       2.621997033252e-11 
       9.192410809424e+00       1.256300848195e-12 
       9.925736873929e+00       1.117742509174e-10 
       1.071756414427e+01       4.619737256337e-11 
       1.157255956364e+01       1.584610113506e-11 
       1.249576238137e+01       1.720984114835e-10 
       1.349261385375e+01       3.599705599282e-13 
       1.456898931416e+01       5.562212309756e-13 
       1.573123280165e+01       2.181093202106e-11 
       1.698619445202e+01       2.933255554731e-12 
       1.834127087176e+01       6.673366937430e-11 
       1.980444873285e+01       3.894776484352e-14 
       2.138435184532e+01       6.659423702108e-11 
       2.309029198506e+01       8.407327629821e-11 
       2.493232377636e+01       3.413662236621e-11 
       2.692130395282e+01       2.105629534429e-09 
       2.906895534573e+01       6.294697349444e-11 
       3.138793597714e+01       6.504030203308e-13 
       3.389191366484e+01       6.261937552009e-10 
       3.659564657905e+01       5.852218918140e-10 
       3.951507022538e+01       2.226883711673e-10 
       4.266739136701e+01       7.415030318637e-10 
       4.607118943941e+01       4.029732142579e-10 
       4.974652605557e+01       1.282545869063e-10 
       5.371506324689e+01       2.470515624989e-09 
       5.800019113685e+01       3.751027880146e-11 
       6.262716579983e+01       7.583700328722e-12 
       6.762325811764e+01       3.187869726596e-10 
       7.301791451110e+01       1.938620074888e-09 
       7.884293049406e+01       6.664057812818e-10 
       8.513263807261e+01       7.189094498898e-11 
       9.192410809424e+01       1.237724604092e-09 
       9.925736873929e+01       2.498888714059e-09 
       1.071756414427e+02       1.056217822225e-09 
       1.157255956364e+02       1.067922631978e-09 
       1.249576238137e+02       2.869180175522e-09 
       1.349261385375e+02       1.424788453148e-09 
