# Matter power spectrum P(k) at redshift z=99
# for k=1.04775e-05 to 134.926 h/Mpc,
# number of wavenumbers equal to 255
#    1:k (h/Mpc)              2:P (Mpc/h)^3        
       1.047750691338e-05       7.262973321100e-03 
       1.131335172818e-05       7.821459308713e-03 
       1.221587619877e-05       8.422887829022e-03 
       1.319039970550e-05       9.070563427174e-03 
       1.424266598317e-05       9.768042325633e-03 
       1.537887697396e-05       1.051915390680e-02 
       1.660572938097e-05       1.132802161024e-02 
       1.793045413791e-05       1.219908623220e-02 
       1.936085902737e-05       1.313713058611e-02 
       2.090537469909e-05       1.414730564245e-02 
       2.257310435923e-05       1.523515640887e-02 
       2.437387742372e-05       1.640665592628e-02 
       2.631830745176e-05       1.766823616509e-02 
       2.841785470091e-05       1.902682407448e-02 
       3.068489367268e-05       2.048987698457e-02 
       3.313278604643e-05       2.206542851524e-02 
       3.577595943165e-05       2.376212692451e-02 
       3.862999240274e-05       2.558928674791e-02 
       4.171170631739e-05       2.755694025670e-02 
       4.503926445983e-05       2.967588875658e-02 
       4.863227909323e-05       3.195776185416e-02 
       5.251192705226e-05       3.441508414608e-02 
       5.670107455699e-05       3.706134722250e-02 
       6.122441198393e-05       3.991107369559e-02 
       6.610859938837e-05       4.297990208813e-02 
       7.138242363583e-05       4.628467449651e-02 
       7.707696806873e-05       4.984352557888e-02 
       8.322579570814e-05       5.367598282892e-02 
       8.986514707061e-05       5.780306870841e-02 
       9.703415376577e-05       6.224742316544e-02 
       1.047750691338e-04       6.703342246152e-02 
       1.131335172818e-04       7.218730927517e-02 
       1.221587619877e-04       7.773734007666e-02 
       1.319039970550e-04       8.371393435673e-02 
       1.424266598317e-04       9.014983932199e-02 
       1.537887697396e-04       9.708030589617e-02 
       1.660572938097e-04       1.045432834087e-01 
       1.793045413791e-04       1.125796134916e-01 
       1.936085902737e-04       1.212332516179e-01 
       2.090537469909e-04       1.305515024015e-01 
       2.257310435923e-04       1.405852686463e-01 
       2.437387742372e-04       1.513893049570e-01 
       2.631830745176e-04       1.630225185091e-01 
       2.841785470091e-04       1.755482605282e-01 
       3.068489367268e-04       1.890346493649e-01 
       3.313278604643e-04       2.035549102933e-01 
       3.577595943165e-04       2.191877383183e-01 
       3.862999240274e-04       2.360176695050e-01 
       4.171170631739e-04       2.541354850524e-01 
       4.503926445983e-04       2.736386238828e-01 
       4.863227909323e-04       2.946316095316e-01 
       5.251192705226e-04       3.172264973728e-01 
       5.670107455699e-04       3.415433179663e-01 
       6.122441198393e-04       3.677105377129e-01 
       6.610859938837e-04       3.958655014706e-01 
       7.138242363583e-04       4.261548608641e-01 
       7.707696806873e-04       4.587349819265e-01 
       8.322579570814e-04       4.937722941806e-01 
       8.986514707061e-04       5.314435806958e-01 
       9.703415376577e-04       5.719361609787e-01 
       1.047750691338e-03       6.154479533185e-01 
       1.131335172818e-03       6.621873451467e-01 
       1.221587619877e-03       7.123728247544e-01 
       1.319039970550e-03       7.662323662565e-01 
       1.424266598317e-03       8.240100311539e-01 
       1.537887697396e-03       8.859484576302e-01 
       1.660572938097e-03       9.522938677522e-01 
       1.793045413791e-03       1.023297350373e+00 
       1.936085902737e-03       1.099208446783e+00 
       2.090537469909e-03       1.180270372948e+00 
       2.257310435923e-03       1.266714047771e+00 
       2.437387742372e-03       1.358750518579e+00 
       2.631830745176e-03       1.456561887091e+00 
       2.841785470091e-03       1.560290072251e+00 
       3.068489367268e-03       1.670024030340e+00 
       3.313278604643e-03       1.785784352781e+00 
       3.577595943165e-03       1.907506557225e+00 
       3.862999240274e-03       2.035021186906e+00 
       4.171170631739e-03       2.168035197518e+00 
       4.503926445983e-03       2.306110324017e+00 
       4.863227909323e-03       2.448643002569e+00 
       5.251192705226e-03       2.594846954868e+00 
       5.670107455699e-03       2.743736542402e+00 
       6.122441198393e-03       2.894123593350e+00 
       6.610859938837e-03       3.044606235104e+00 
       7.138242363583e-03       3.193578036510e+00 
       7.707696806873e-03       3.339226273590e+00 
       8.322579570814e-03       3.479547665134e+00 
       8.986514707061e-03       3.612331104174e+00 
       9.703415376577e-03       3.735157837189e+00 
       1.047750691338e-02       3.845348391583e+00 
       1.131335172818e-02       3.939926057120e+00 
       1.221587619877e-02       4.015542564682e+00 
       1.319039970550e-02       4.068434808012e+00 
       1.424266598317e-02       4.094460381695e+00 
       1.537887697392e-02       4.089174477674e+00 
       1.660572938023e-02       4.048009388244e+00 
       1.793045412706e-02       3.966523905122e+00 
       1.936085890181e-02       3.840680008425e+00 
       2.090537352463e-02       3.667230120552e+00 
       2.257309535333e-02       3.444147210937e+00 
       2.437382002918e-02       3.171256791198e+00 
       2.631799944462e-02       2.851153962734e+00 
       2.841644545389e-02       2.489909565733e+00 
       3.067933355377e-02       2.098050385098e+00 
       3.311368470740e-02       1.691141220222e+00 
       3.571840443502e-02       1.289857956618e+00 
       3.847720348444e-02       9.184962742296e-01 
       4.135335538431e-02       6.005625474383e-01 
       4.429361667738e-02       3.523655996237e-01 
       4.724366439141e-02       1.781882359956e-01 
       5.016480835311e-02       7.088113033416e-02 
       5.303989620246e-02       1.665731081616e-02 
       5.586870669566e-02       1.396090400979e-04 
       5.866042680613e-02       7.299732772357e-03 
       6.142798932958e-02       2.662182439095e-02 
       6.418496440164e-02       4.932061399603e-02 
       6.694418833788e-02       6.920576488029e-02 
       6.971731106057e-02       8.242452832198e-02 
       7.251476155766e-02       8.722452221606e-02 
       7.534587671527e-02       8.359630466903e-02 
       7.821907666265e-02       7.290630002450e-02 
       8.114203772912e-02       5.750519856124e-02 
       8.412184535029e-02       4.021119393147e-02 
       8.716512279304e-02       2.386987891557e-02 
       9.027813695930e-02       1.085261446336e-02 
       9.346688431697e-02       2.728999165725e-03 
       9.673716028276e-02       1.950495726193e-06 
       1.000946150830e-01       2.085336101058e-03 
       1.035447986537e-01       7.465860736993e-03 
       1.070931966762e-01       1.406066094055e-02 
       1.107452594425e-01       1.972027064924e-02 
       1.145064249153e-01       2.273310300304e-02 
       1.183821370918e-01       2.226299477727e-02 
       1.223778605862e-01       1.853644413305e-02 
       1.264990921987e-01       1.275228838403e-02 
       1.307513701367e-01       6.681128635983e-03 
       1.351402814784e-01       2.074017282980e-03 
       1.396714684203e-01       6.156846293503e-05 
       1.443506338194e-01       7.599836787491e-04 
       1.491835465229e-01       3.260746480947e-03 
       1.541760469708e-01       6.026913526205e-03 
       1.593340535561e-01       7.584270648217e-03 
       1.646635702297e-01       7.170317444596e-03 
       1.701706958456e-01       5.067445675011e-03 
       1.758616357459e-01       2.395467483291e-03 
       1.817427160982e-01       4.689336481726e-04 
       1.878204015065e-01       3.870697936787e-05 
       1.941013164283e-01       9.029654904937e-04 
       2.005922709503e-01       2.107921417838e-03 
       2.073002914972e-01       2.633751521812e-03 
       2.142326570816e-01       2.116433763338e-03 
       2.213969417533e-01       1.009622475651e-03 
       2.288010639706e-01       1.526675693669e-04 
       2.364533437147e-01       5.423519079856e-05 
       2.443625682930e-01       5.044237806263e-04 
       2.525380679504e-01       8.717631832283e-04 
       2.609898026346e-01       7.531253245753e-04 
       2.697284615565e-01       3.132347656014e-04 
       2.787655775689e-01       1.725365680381e-05 
       2.881136588829e-01       7.058238416113e-05 
       2.977863412677e-01       2.502233879181e-04 
       3.077985646929e-01       2.599436746870e-04 
       3.181667794071e-01       1.040312849376e-04 
       3.289091877812e-01       1.788358513892e-06 
       3.400460299658e-01       3.930593920690e-05 
       3.515999236474e-01       8.699511777043e-05 
       3.635962711085e-01       5.170388030222e-05 
       3.760637506334e-01       3.777746914840e-06 
       3.890349143879e-01       9.460393898789e-06 
       4.025469216825e-01       2.448463998714e-05 
       4.166424456376e-01       1.047037577234e-05 
       4.313708035863e-01       8.318730422523e-09 
       4.467893782977e-01       5.561569126735e-06 
       4.629654199664e-01       4.539272302960e-06 
       4.799783501994e-01       6.389692223738e-08 
       4.979227319373e-01       1.298514463882e-06 
       5.169121270864e-01       8.876776777322e-07 
       5.370841404489e-01       2.517494947646e-08 
       5.586070464571e-01       3.709105688613e-07 
       5.816885094930e-01       1.802417939133e-08 
       6.065870144995e-01       5.945599646966e-08 
       6.336266468475e-01       1.043085836499e-08 
       6.632156059511e-01       1.415439701108e-08 
       6.958678639263e-01       9.899820297663e-11 
       7.322247985589e-01       7.464627093220e-10 
       7.730680195114e-01       3.030228388809e-11 
       8.193049553677e-01       2.733774787420e-11 
       8.718988016039e-01       8.188392154928e-10 
       9.317218031082e-01       6.643286898506e-11 
       9.993660908989e-01       1.819342805379e-15 
       1.075037110174e+00       1.909618311284e-10 
       1.158653485707e+00       6.398825908245e-11 
       1.250099157308e+00       3.085516004276e-11 
       1.349432401273e+00       4.245014535970e-10 
       1.456947457397e+00       9.290035448272e-13 
       1.573135111331e+00       1.257220888478e-09 
       1.698621895592e+00       2.541841405631e-10 
       1.834127512934e+00       4.020345874136e-10 
       1.980444934528e+00       1.231816020756e-09 
       2.138435191726e+00       3.499555167718e-10 
       2.309029199186e+00       7.407103188705e-11 
       2.493232377687e+00       7.166117902018e-10 
       2.692130395285e+00       5.020620348187e-11 
       2.906895534573e+00       3.136486586689e-10 
       3.138793597714e+00       2.330122792747e-10 
       3.389191366484e+00       8.712789880448e-10 
       3.659564657905e+00       1.402371766414e-10 
       3.951507022538e+00       2.670749182505e-10 
       4.266739136701e+00       2.397409553158e-09 
       4.607118943941e+00       1.541206661714e-11 
       4.974652605557e+00       2.441887385521e-10 
       5.371506324689e+00       4.941659391276e-11 
       5.800019113685e+00       1.073118919243e-10 
       6.262716579983e+00       8.588724129817e-12 
       6.762325811764e+00       9.771915680363e-13 
       7.301791451110e+00       1.434571103947e-11 
       7.884293049406e+00       2.350579603939e-16 
       8.513263807261e+00       2.782642673756e-12 
       9.192410809424e+00       1.252869794578e-13 
       9.925736873929e+00       1.125475579891e-12 
       1.071756414427e+01       5.494072736159e-14 
       1.157255956364e+01       1.389873041069e-11 
       1.249576238137e+01       9.427854006405e-13 
       1.349261385375e+01       1.247009150556e-13 
       1.456898931416e+01       2.142497079592e-11 
       1.573123280165e+01       1.268464076605e-12 
       1.698619445202e+01       3.596144442029e-11 
       1.834127087176e+01       2.246887120265e-12 
       1.980444873285e+01       4.047457666579e-13 
       2.138435184532e+01       5.813157908893e-16 
       2.309029198506e+01       7.783315806520e-14 
       2.493232377636e+01       3.512754023319e-12 
       2.692130395282e+01       3.740937291949e-14 
       2.906895534573e+01       5.893887155389e-13 
       3.138793597714e+01       1.607350476115e-13 
       3.389191366484e+01       2.444552482248e-15 
       3.659564657905e+01       1.702340571556e-15 
       3.951507022538e+01       1.120335466914e-16 
       4.266739136701e+01       1.331879376743e-15 
       4.607118943941e+01       2.697476868663e-13 
       4.974652605557e+01       1.656902423217e-13 
       5.371506324689e+01       1.440009808917e-13 
       5.800019113685e+01       1.040984210431e-13 
       6.262716579983e+01       2.176552770293e-16 
       6.762325811764e+01       8.987196309873e-16 
       7.301791451110e+01       1.319979251469e-14 
       7.884293049406e+01       8.915646235366e-14 
       8.513263807261e+01       6.142228159345e-15 
       9.192410809424e+01       1.130494627845e-13 
       9.925736873929e+01       3.375923740600e-15 
       1.071756414427e+02       4.386737312453e-15 
       1.157255956364e+02       5.651805174359e-14 
       1.249576238137e+02       2.469730254654e-13 
       1.349261385375e+02       1.470158849650e-14 
