# Matter power spectrum P(k) at redshift z=99
# for k=1.04775e-05 to 134.926 h/Mpc,
# number of wavenumbers equal to 255
#    1:k (h/Mpc)              2:P (Mpc/h)^3        
       1.047750691338e-05       7.262987387385e-03 
       1.131335172818e-05       7.821473683185e-03 
       1.221587619877e-05       8.422903730092e-03 
       1.319039970550e-05       9.070581184785e-03 
       1.424266598317e-05       9.768062547009e-03 
       1.537887697396e-05       1.051917466479e-02 
       1.660572938097e-05       1.132804343549e-02 
       1.793045413791e-05       1.219911096970e-02 
       1.936085902737e-05       1.313715678638e-02 
       2.090537469909e-05       1.414733392851e-02 
       2.257310435923e-05       1.523518642570e-02 
       2.437387742372e-05       1.640668831930e-02 
       2.631830745176e-05       1.766827160306e-02 
       2.841785470091e-05       1.902686144374e-02 
       3.068489367268e-05       2.048991765044e-02 
       3.313278604643e-05       2.206547177661e-02 
       3.577595943165e-05       2.376217353257e-02 
       3.862999240274e-05       2.558933770985e-02 
       4.171170631739e-05       2.755699407425e-02 
       4.503926445983e-05       2.967594615887e-02 
       4.863227909323e-05       3.195782391906e-02 
       5.251192705226e-05       3.441515119869e-02 
       5.670107455699e-05       3.706141900492e-02 
       6.122441198393e-05       3.991115032215e-02 
       6.610859938837e-05       4.297998579343e-02 
       7.138242363583e-05       4.628476364009e-02 
       7.707696806873e-05       4.984362224822e-02 
       8.322579570814e-05       5.367608576593e-02 
       8.986514707061e-05       5.780317990813e-02 
       9.703415376577e-05       6.224754343665e-02 
       1.047750691338e-04       6.703355167040e-02 
       1.131335172818e-04       7.218744814630e-02 
       1.221587619877e-04       7.773749063860e-02 
       1.319039970550e-04       8.371409603153e-02 
       1.424266598317e-04       9.015001301448e-02 
       1.537887697396e-04       9.708049440289e-02 
       1.660572938097e-04       1.045434850545e-01 
       1.793045413791e-04       1.125798309590e-01 
       1.936085902737e-04       1.212334877349e-01 
       2.090537469909e-04       1.305517549917e-01 
       2.257310435923e-04       1.405855386079e-01 
       2.437387742372e-04       1.513895952892e-01 
       2.631830745176e-04       1.630228294416e-01 
       2.841785470091e-04       1.755485947329e-01 
       3.068489367268e-04       1.890350070137e-01 
       3.313278604643e-04       2.035552956544e-01 
       3.577595943165e-04       2.191881508152e-01 
       3.862999240274e-04       2.360181117416e-01 
       4.171170631739e-04       2.541359582449e-01 
       4.503926445983e-04       2.736391289233e-01 
       4.863227909323e-04       2.946321484716e-01 
       5.251192705226e-04       3.172270705473e-01 
       5.670107455699e-04       3.415439277800e-01 
       6.122441198393e-04       3.677111852823e-01 
       6.610859938837e-04       3.958661858919e-01 
       7.138242363583e-04       4.261555816994e-01 
       7.707696806873e-04       4.587357381983e-01 
       8.322579570814e-04       4.937730828305e-01 
       8.986514707061e-04       5.314444015011e-01 
       9.703415376577e-04       5.719370020638e-01 
       1.047750691338e-03       6.154488070068e-01 
       1.131335172818e-03       6.621881874848e-01 
       1.221587619877e-03       7.123736626837e-01 
       1.319039970550e-03       7.662331499233e-01 
       1.424266598317e-03       8.240107573892e-01 
       1.537887697396e-03       8.859490643196e-01 
       1.660572938097e-03       9.522943009629e-01 
       1.793045413791e-03       1.023297551902e+00 
       1.936085902737e-03       1.099208297322e+00 
       2.090537469909e-03       1.180269718859e+00 
       2.257310435923e-03       1.266712748339e+00 
       2.437387742372e-03       1.358748318695e+00 
       2.631830745176e-03       1.456558491726e+00 
       2.841785470091e-03       1.560285186270e+00 
       3.068489367268e-03       1.670017207539e+00 
       3.313278604643e-03       1.785774727432e+00 
       3.577595943165e-03       1.907492854811e+00 
       3.862999240274e-03       2.035003087328e+00 
       4.171170631739e-03       2.168010514169e+00 
       4.503926445983e-03       2.306077245318e+00 
       4.863227909323e-03       2.448598245528e+00 
       5.251192705226e-03       2.594787025016e+00 
       5.670107455699e-03       2.743656262067e+00 
       6.122441198393e-03       2.894016146479e+00 
       6.610859938837e-03       3.044462640275e+00 
       7.138242363583e-03       3.193386056717e+00 
       7.707696806873e-03       3.338973692906e+00 
       8.322579570814e-03       3.479211103473e+00 
       8.986514707061e-03       3.611889193350e+00 
       9.703415376577e-03       3.734575307336e+00 
       1.047750691338e-02       3.844587852421e+00 
       1.131335172818e-02       3.938936701319e+00 
       1.221587619877e-02       4.014258710069e+00 
       1.319039970550e-02       4.066788967841e+00 
       1.424266598317e-02       4.092357923335e+00 
       1.537887697392e-02       4.086510847749e+00 
       1.660572938023e-02       4.044655889399e+00 
       1.793045412706e-02       3.962333169926e+00 
       1.936085890181e-02       3.835506542786e+00 
       2.090537352463e-02       3.660909644328e+00 
       2.257309535333e-02       3.436505122559e+00 
       2.437382002918e-02       3.162188410173e+00 
       2.631799944462e-02       2.840544236860e+00 
       2.841644545389e-02       2.477764047066e+00 
       3.067933355377e-02       2.084503382964e+00 
       3.311368470740e-02       1.676497567597e+00 
       3.571840443502e-02       1.274654297408e+00 
       3.847720348444e-02       9.034428088126e-01 
       4.135335538431e-02       5.865701844833e-01 
       4.429361667738e-02       3.403014899709e-01 
       4.724366439141e-02       1.687862224746e-01 
       5.016480835311e-02       6.456174525567e-02 
       5.303989620246e-02       1.353196228852e-02 
       5.586870669566e-02       1.569904674927e-06 
       5.866042680613e-02       9.709337243216e-03 
       6.142798932958e-02       3.096842337248e-02 
       6.418496440164e-02       5.489937730311e-02 
       6.694418833788e-02       7.525255541523e-02 
       6.971731106057e-02       8.826490089973e-02 
       7.251476155766e-02       9.225604343762e-02 
       7.534587671527e-02       8.741820712440e-02 
       7.821907666265e-02       7.529730263705e-02 
       8.114203772912e-02       5.848184035891e-02 
       8.412184535029e-02       4.003349008151e-02 
       8.716512279304e-02       2.294033670639e-02 
       9.027813695930e-02       9.728064804117e-03 
       9.346688431697e-02       1.963213811968e-03 
       9.673716028276e-02       7.489058149510e-05 
       1.000946150830e-01       3.296168850688e-03 
       1.035447986537e-01       9.861058298622e-03 
       1.070931966762e-01       1.741996790398e-02 
       1.107452594425e-01       2.358676953740e-02 
       1.145064249153e-01       2.652109668496e-02 
       1.183821370918e-01       2.540614072393e-02 
       1.223778605862e-01       2.064235013418e-02 
       1.264990921987e-01       1.372694247022e-02 
       1.307513701367e-01       6.765747183963e-03 
       1.351402814784e-01       1.781033866965e-03 
       1.396714684203e-01       7.470159041039e-07 
       1.443506338194e-01       1.413042292799e-03 
       1.491835465229e-01       4.788229019333e-03 
       1.541760469708e-01       8.198661551728e-03 
       1.593340535561e-01       9.856054117842e-03 
       1.646635702297e-01       8.950549282182e-03 
       1.701706958456e-01       6.020049421428e-03 
       1.758616357459e-01       2.586737199842e-03 
       1.817427160982e-01       3.521660145528e-04 
       1.878204015065e-01       1.801777272661e-04 
       1.941013164283e-01       1.631216429096e-03 
       2.005922709503e-01       3.299603808291e-03 
       2.073002914972e-01       3.830048077206e-03 
       2.142326570816e-01       2.857839807721e-03 
       2.213969417533e-01       1.197557768870e-03 
       2.288010639706e-01       1.004057737207e-04 
       2.364533437147e-01       1.998015628635e-04 
       2.443625682930e-01       1.011019280983e-03 
       2.525380679504e-01       1.503775923502e-03 
       2.609898026346e-01       1.153764859241e-03 
       2.697284615565e-01       3.860660884192e-04 
       2.787655775689e-01       1.324936028913e-06 
       2.881136588829e-01       2.239541699337e-04 
       2.977863412677e-01       5.435675374989e-04 
       3.077985646929e-01       4.688763017139e-04 
       3.181667794071e-01       1.347203197130e-04 
       3.289091877812e-01       2.492048628958e-06 
       3.400460299658e-01       1.359773446745e-04 
       3.515999236474e-01       2.053918080484e-04 
       3.635962711085e-01       8.649852448830e-05 
       3.760637506334e-01       8.680855486393e-08 
       3.890349143879e-01       4.729459547213e-05 
       4.025469216825e-01       6.814750038399e-05 
       4.166424456376e-01       1.526565787837e-05 
       4.313708035863e-01       4.448038400995e-06 
       4.467893782977e-01       2.521440317313e-05 
       4.629654199664e-01       9.585747192393e-06 
       4.799783501994e-01       8.749879633405e-07 
       4.979227319373e-01       7.950437125928e-06 
       5.169121270864e-01       1.585598814956e-06 
       5.370841404489e-01       1.350580329099e-06 
       5.586070464571e-01       1.603179509028e-06 
       5.816885094930e-01       1.006829006938e-07 
       6.065870144995e-01       5.828643371858e-07 
       6.336266468475e-01       2.453036202172e-08 
       6.632156059511e-01       9.041993720040e-08 
       6.958678639263e-01       4.223501955974e-08 
       7.322247985589e-01       1.207232633513e-09 
       7.730680195114e-01       3.714607047138e-09 
       8.193049553677e-01       7.320728242407e-10 
       8.718988016039e-01       1.011447007151e-10 
       9.317218031082e-01       5.382300867965e-11 
       9.993660908989e-01       6.768377487794e-10 
       1.075037110174e+00       1.433990718777e-10 
       1.158653485707e+00       1.405447399768e-10 
       1.250099157308e+00       6.678319869412e-10 
       1.349432401273e+00       1.383250584749e-09 
       1.456947457397e+00       2.203362889317e-10 
       1.573135111331e+00       5.215038749719e-11 
       1.698621895592e+00       2.119116535387e-11 
       1.834127512934e+00       5.669316880091e-13 
       1.980444934528e+00       8.105921415146e-10 
       2.138435191726e+00       3.228259446176e-10 
       2.309029199186e+00       2.802694555621e-10 
       2.493232377687e+00       2.064068317744e-11 
       2.692130395285e+00       6.549985924886e-11 
       2.906895534573e+00       1.179278508271e-11 
       3.138793597714e+00       1.632305122058e-09 
       3.389191366484e+00       8.341292069255e-12 
       3.659564657905e+00       2.378336629087e-13 
       3.951507022538e+00       2.014781060776e-11 
       4.266739136701e+00       6.581837663767e-11 
       4.607118943941e+00       6.288577222687e-11 
       4.974652605557e+00       7.127859019672e-14 
       5.371506324689e+00       1.294641231280e-11 
       5.800019113685e+00       2.327905879345e-13 
       6.262716579983e+00       4.291708686910e-11 
       6.762325811764e+00       2.596275227770e-12 
       7.301791451110e+00       1.714551654300e-12 
       7.884293049406e+00       3.167348145477e-15 
       8.513263807261e+00       1.316064476631e-13 
       9.192410809424e+00       7.920371189267e-12 
       9.925736873929e+00       7.071301865675e-13 
       1.071756414427e+01       7.375568960828e-12 
       1.157255956364e+01       4.829945537425e-12 
       1.249576238137e+01       1.874460583102e-11 
       1.349261385375e+01       1.244309437404e-11 
       1.456898931416e+01       1.607891624159e-12 
       1.573123280165e+01       9.127474811835e-13 
       1.698619445202e+01       1.591561553402e-13 
       1.834127087176e+01       7.860877356557e-15 
       1.980444873285e+01       2.889669218557e-14 
       2.138435184532e+01       1.342283445653e-12 
       2.309029198506e+01       2.138456129713e-12 
       2.493232377636e+01       1.729627022470e-16 
       2.692130395282e+01       3.417477364313e-13 
       2.906895534573e+01       1.360480716327e-12 
       3.138793597714e+01       2.857890010398e-14 
       3.389191366484e+01       2.579022520101e-14 
       3.659564657905e+01       4.867955588487e-14 
       3.951507022538e+01       3.295122888890e-14 
       4.266739136701e+01       1.499382858717e-17 
       4.607118943941e+01       1.568759664641e-14 
       4.974652605557e+01       7.875361109644e-16 
       5.371506324689e+01       1.937390465403e-14 
       5.800019113685e+01       1.506536763628e-15 
       6.262716579983e+01       1.640031350897e-16 
       6.762325811764e+01       5.021010682997e-15 
       7.301791451110e+01       1.062183288651e-14 
       7.884293049406e+01       1.974532251786e-15 
       8.513263807261e+01       7.518708500225e-16 
       9.192410809424e+01       4.963672531806e-18 
       9.925736873929e+01       7.385888949082e-14 
       1.071756414427e+02       5.418423586462e-14 
       1.157255956364e+02       4.204276435523e-17 
       1.249576238137e+02       1.168331745518e-17 
       1.349261385375e+02       1.565238716194e-16 
