# Matter power spectrum P(k) at redshift z=0
# for k=1.04775e-05 to 134.926 h/Mpc,
# number of wavenumbers equal to 255
#    1:k (h/Mpc)              2:P (Mpc/h)^3        
       1.047750691338e-05       5.020963906804e+01 
       1.131335172818e-05       5.407048937148e+01 
       1.221587619877e-05       5.822820724029e+01 
       1.319039970550e-05       6.270562047249e+01 
       1.424266598317e-05       6.752731476098e+01 
       1.537887697396e-05       7.271975715395e+01 
       1.660572938097e-05       7.831147101246e+01 
       1.793045413791e-05       8.433312302135e+01 
       1.936085902737e-05       9.081780130646e+01 
       2.090537469909e-05       9.780107449416e+01 
       2.257310435923e-05       1.053212938596e+02 
       2.437387742372e-05       1.134197268469e+02 
       2.631830745176e-05       1.221408285625e+02 
       2.841785470091e-05       1.315324590474e+02 
       3.068489367268e-05       1.416461671357e+02 
       3.313278604643e-05       1.525374478901e+02 
       3.577595943165e-05       1.642660517220e+02 
       3.862999240274e-05       1.768963429376e+02 
       4.171170631739e-05       1.904975997820e+02 
       4.503926445983e-05       2.051444243234e+02 
       4.863227909323e-05       2.209171412049e+02 
       5.251192705226e-05       2.379022266147e+02 
       5.670107455699e-05       2.561927841240e+02 
       6.122441198393e-05       2.758890479639e+02 
       6.610859938837e-05       2.970989213982e+02 
       7.138242363583e-05       3.199385559930e+02 
       7.707696806873e-05       3.445329727006e+02 
       8.322579570814e-05       3.710167324010e+02 
       8.986514707061e-05       3.995346444121e+02 
       9.703415376577e-05       4.302425389349e+02 
       1.047750691338e-04       4.633080773458e+02 
       1.131335172818e-04       4.989116271596e+02 
       1.221587619877e-04       5.372471938794e+02 
       1.319039970550e-04       5.785234116881e+02 
       1.424266598317e-04       6.229645933132e+02 
       1.537887697396e-04       6.708118487510e+02 
       1.660572938097e-04       7.223242657764e+02 
       1.793045413791e-04       7.777801571268e+02 
       1.936085902737e-04       8.374783638365e+02 
       2.090537469909e-04       9.017396276734e+02 
       2.257310435923e-04       9.709080297651e+02 
       2.437387742372e-04       1.045352453376e+03 
       2.631830745176e-04       1.125468127721e+03 
       2.841785470091e-04       1.211678185928e+03 
       3.068489367268e-04       1.304435256065e+03 
       3.313278604643e-04       1.404223062921e+03 
       3.577595943165e-04       1.511558029577e+03 
       3.862999240274e-04       1.626990852555e+03 
       4.171170631739e-04       1.751108045602e+03 
       4.503926445983e-04       1.884533404755e+03 
       4.863227909323e-04       2.027929406956e+03 
       5.251192705226e-04       2.181998483913e+03 
       5.670107455699e-04       2.347484146066e+03 
       6.122441198393e-04       2.525171925196e+03 
       6.610859938837e-04       2.715890054979e+03 
       7.138242363583e-04       2.920509779320e+03 
       7.707696806873e-04       3.139945208051e+03 
       8.322579570814e-04       3.375152477018e+03 
       8.986514707061e-04       3.627128020461e+03 
       9.703415376577e-04       3.896905669504e+03 
       1.047750691338e-03       4.185552452612e+03 
       1.131335172818e-03       4.494162775568e+03 
       1.221587619877e-03       4.823851150588e+03 
       1.319039970550e-03       5.175743278702e+03 
       1.424266598317e-03       5.551020298670e+03 
       1.537887697396e-03       5.950789185416e+03 
       1.660572938097e-03       6.376124150033e+03 
       1.793045413791e-03       6.828075236562e+03 
       1.936085902737e-03       7.307627051018e+03 
       2.090537469909e-03       7.815673959007e+03 
       2.257310435923e-03       8.352992922919e+03 
       2.437387742372e-03       8.920214306262e+03 
       2.631830745176e-03       9.517787166573e+03 
       2.841785470091e-03       1.014594130654e+04 
       3.068489367268e-03       1.080465136454e+04 
       3.313278604643e-03       1.149358239473e+04 
       3.577595943165e-03       1.221204586803e+04 
       3.862999240274e-03       1.295893666416e+04 
       4.171170631739e-03       1.373267338510e+04 
       4.503926445983e-03       1.453113499884e+04 
       4.863227909323e-03       1.535157115101e+04 
       5.251192705226e-03       1.619066155040e+04 
       5.670107455699e-03       1.704433881009e+04 
       6.122441198393e-03       1.790758124655e+04 
       6.610859938837e-03       1.877461996514e+04 
       7.138242363583e-03       1.963874650213e+04 
       7.707696806873e-03       2.049217384812e+04 
       8.322579570814e-03       2.132608014388e+04 
       8.986514707061e-03       2.213056717904e+04 
       9.703415376577e-03       2.289447297797e+04 
       1.047750691338e-02       2.360549525781e+04 
       1.131335172818e-02       2.425024123791e+04 
       1.221587619877e-02       2.481424703331e+04 
       1.319039970550e-02       2.528219963261e+04 
       1.424266598317e-02       2.563815123419e+04 
       1.537887697392e-02       2.586607606967e+04 
       1.660572938023e-02       2.595027113113e+04 
       1.793045412706e-02       2.587635563610e+04 
       1.936085890181e-02       2.563219711330e+04 
       2.090537352463e-02       2.520936142160e+04 
       2.257309535333e-02       2.460445422821e+04 
       2.437382002918e-02       2.382088509874e+04 
       2.631799944462e-02       2.287044844820e+04 
       2.841644545389e-02       2.177448773115e+04 
       3.067933355377e-02       2.056556777332e+04 
       3.311368470740e-02       1.928731459066e+04 
       3.571840443502e-02       1.799402009224e+04 
       3.847720348444e-02       1.674684652653e+04 
       4.135335538431e-02       1.560459630830e+04 
       4.429361667738e-02       1.461037719166e+04 
       4.724366439141e-02       1.378055767364e+04 
       5.016480835311e-02       1.310505344766e+04 
       5.303989620246e-02       1.255717917647e+04 
       5.586870669566e-02       1.210423814164e+04 
       5.866042680613e-02       1.171465169168e+04 
       6.142798932958e-02       1.136046906446e+04 
       6.418496440164e-02       1.101854952210e+04 
       6.694418833788e-02       1.067067146257e+04 
       6.971731106057e-02       1.030357817398e+04 
       7.251476155766e-02       9.909007412285e+03 
       7.534587671527e-02       9.483727615397e+03 
       7.821907666265e-02       9.029492728558e+03 
       8.114203772912e-02       8.552306118180e+03 
       8.412184535029e-02       8.061889461775e+03 
       8.716512279304e-02       7.570764089608e+03 
       9.027813695930e-02       7.092481883656e+03 
       9.346688431697e-02       6.640515460400e+03 
       9.673716028276e-02       6.226700902088e+03 
       1.000946150830e-01       5.859926094773e+03 
       1.035447986537e-01       5.545265255039e+03 
       1.070931966762e-01       5.283135621629e+03 
       1.107452594425e-01       5.069421591553e+03 
       1.145064249153e-01       4.895247637928e+03 
       1.183821370918e-01       4.747835431295e+03 
       1.223778605862e-01       4.611696188982e+03 
       1.264990921987e-01       4.470615451096e+03 
       1.307513701367e-01       4.310246402793e+03 
       1.351402814784e-01       4.121366560089e+03 
       1.396714684203e-01       3.902054518852e+03 
       1.443506338194e-01       3.658642506589e+03 
       1.491835465229e-01       3.404481386851e+03 
       1.541760469708e-01       3.156655299851e+03 
       1.593340535561e-01       2.931940799069e+03 
       1.646635702297e-01       2.742355818490e+03 
       1.701706958456e-01       2.592236325021e+03 
       1.758616357459e-01       2.477221033222e+03 
       1.817427160982e-01       2.385162200708e+03 
       1.878204015065e-01       2.300346076120e+03 
       1.941013164283e-01       2.205737236506e+03 
       2.005922709503e-01       2.090802178903e+03 
       2.073002914972e-01       1.956445106128e+03 
       2.142326570816e-01       1.814172229922e+03 
       2.213969417533e-01       1.679264153211e+03 
       2.288010639706e-01       1.563823596671e+03 
       2.364533437147e-01       1.472663851367e+03 
       2.443625682930e-01       1.401501196459e+03 
       2.525380679504e-01       1.338393939216e+03 
       2.609898026346e-01       1.270882892031e+03 
       2.697284615565e-01       1.193364539979e+03 
       2.787655775689e-01       1.109317076021e+03 
       2.881136588829e-01       1.028749353029e+03 
       2.977863412677e-01       9.604610182802e+02 
       3.077985646929e-01       9.050029418778e+02 
       3.181667794071e-01       8.561255655872e+02 
       3.289091877812e-01       8.061683227858e+02 
       3.400460299658e-01       7.523713927314e+02 
       3.515999236474e-01       6.989030647257e+02 
       3.635962711085e-01       6.510445926453e+02 
       3.760637506334e-01       6.101026996255e+02 
       3.890349143879e-01       5.721135879965e+02 
       4.025469216825e-01       5.337640415361e+02 
       4.166424456376e-01       4.956137965212e+02 
       4.313708035863e-01       4.604497296333e+02 
       4.467893782977e-01       4.287583593175e+02 
       4.629654199664e-01       3.987552295068e+02 
       4.799783501994e-01       3.692238715012e+02 
       4.979227319373e-01       3.412223609441e+02 
       5.169121270864e-01       3.154665998613e+02 
       5.370841404489e-01       2.908190575383e+02 
       5.586070464571e-01       2.670891653039e+02 
       5.816885094930e-01       2.447936615494e+02 
       6.065870144995e-01       2.235520019263e+02 
       6.336266468475e-01       2.031947796682e+02 
       6.632156059511e-01       1.838633275760e+02 
       6.958678639263e-01       1.653399279526e+02 
       7.322247985589e-01       1.476815660584e+02 
       7.730680195114e-01       1.308202144899e+02 
       8.193049553677e-01       1.148179425572e+02 
       8.718988016039e-01       9.974976988846e+01 
       9.317218031082e-01       8.576550191555e+01 
       9.993660908989e-01       7.304300285541e+01 
       1.075037110174e+00       6.172467083116e+01 
       1.158653485707e+00       5.186821619279e+01 
       1.250099157308e+00       4.343005515160e+01 
       1.349432401273e+00       3.627975481211e+01 
       1.456947457397e+00       3.025897569301e+01 
       1.573135111331e+00       2.520583072504e+01 
       1.698621895592e+00       2.097389107236e+01 
       1.834127512934e+00       1.743475837774e+01 
       1.980444934528e+00       1.447847478136e+01 
       2.138435191726e+00       1.201216767058e+01 
       2.309029199186e+00       9.956835150424e+00 
       2.493232377687e+00       8.245876743615e+00 
       2.692130395285e+00       6.823054074221e+00 
       2.906895534573e+00       5.641034577832e+00 
       3.138793597714e+00       4.660029458325e+00 
       3.389191366484e+00       3.846560247554e+00 
       3.659564657905e+00       3.172702028926e+00 
       3.951507022538e+00       2.614934900522e+00 
       4.266739136701e+00       2.153684075286e+00 
       4.607118943941e+00       1.772512578373e+00 
       4.974652605557e+00       1.457807379520e+00 
       5.371506324689e+00       1.198174973753e+00 
       5.800019113685e+00       9.841287443872e-01 
       6.262716579983e+00       8.077975689258e-01 
       6.762325811764e+00       6.626383354019e-01 
       7.301791451110e+00       5.432244646527e-01 
       7.884293049406e+00       4.450554577538e-01 
       8.513263807261e+00       3.644054724094e-01 
       9.192410809424e+00       2.981896551172e-01 
       9.925736873929e+00       2.438598913479e-01 
       1.071756414427e+01       1.993055413068e-01 
       1.157255956364e+01       1.627944952904e-01 
       1.249576238137e+01       1.328928383734e-01 
       1.349261385375e+01       1.084121023413e-01 
       1.456898931416e+01       8.838916565234e-02 
       1.573123280165e+01       7.201711347332e-02 
       1.698619445202e+01       5.863819044718e-02 
       1.834127087176e+01       4.771352430241e-02 
       1.980444873285e+01       3.879540265058e-02 
       2.138435184532e+01       3.152086240345e-02 
       2.309029198506e+01       2.558996542052e-02 
       2.493232377636e+01       2.075787666415e-02 
       2.692130395282e+01       1.682288367575e-02 
       2.906895534573e+01       1.362077139285e-02 
       3.138793597714e+01       1.101660382574e-02 
       3.389191366484e+01       8.900231042085e-03 
       3.659564657905e+01       7.181393542580e-03 
       3.951507022538e+01       5.786532512164e-03 
       4.266739136701e+01       4.655598729351e-03 
       4.607118943941e+01       3.739357734534e-03 
       4.974652605557e+01       2.997713397634e-03 
       5.371506324689e+01       2.398141051802e-03 
       5.800019113685e+01       1.913948298112e-03 
       6.262716579983e+01       1.523447517840e-03 
       6.762325811764e+01       1.208980411319e-03 
       7.301791451110e+01       9.561588711656e-04 
       7.884293049406e+01       7.532761807596e-04 
       8.513263807261e+01       5.908475620624e-04 
       9.192410809424e+01       4.611197920986e-04 
       9.925736873929e+01       3.578316044523e-04 
       1.071756414427e+02       2.758735785296e-04 
       1.157255956364e+02       2.110984812222e-04 
       1.249576238137e+02       1.601513772108e-04 
       1.349261385375e+02       1.202983724531e-04 
