# Matter power spectrum P(k) at redshift z=99
# for k=1.04775e-05 to 134.926 h/Mpc,
# number of wavenumbers equal to 255
#    1:k (h/Mpc)              2:P (Mpc/h)^3        
       1.047750691338e-05       7.261927096225e-03 
       1.131335172818e-05       7.820332151767e-03 
       1.221587619877e-05       8.421675383418e-03 
       1.319039970550e-05       9.069257739175e-03 
       1.424266598317e-05       9.766636452387e-03 
       1.537887697396e-05       1.051763973777e-02 
       1.660572938097e-05       1.132639250898e-02 
       1.793045413791e-05       1.219733201666e-02 
       1.936085902737e-05       1.313524187373e-02 
       2.090537469909e-05       1.414527085161e-02 
       2.257310435923e-05       1.523296544690e-02 
       2.437387742372e-05       1.640429654854e-02 
       2.631830745176e-05       1.766569603515e-02 
       2.841785470091e-05       1.902408711409e-02 
       3.068489367268e-05       2.048692967710e-02 
       3.313278604643e-05       2.206225467835e-02 
       3.577595943165e-05       2.375870884156e-02 
       3.862999240274e-05       2.558560670157e-02 
       4.171170631739e-05       2.755297672873e-02 
       4.503926445983e-05       2.967161933805e-02 
       4.863227909323e-05       3.195316456077e-02 
       5.251192705226e-05       3.441013466581e-02 
       5.670107455699e-05       3.705601742194e-02 
       6.122441198393e-05       3.990533413373e-02 
       6.610859938837e-05       4.297372243103e-02 
       7.138242363583e-05       4.627802055490e-02 
       7.707696806873e-05       4.983636160554e-02 
       8.322579570814e-05       5.366826787635e-02 
       8.986514707061e-05       5.779476320493e-02 
       9.703415376577e-05       6.223848222650e-02 
       1.047750691338e-04       6.702379825898e-02 
       1.131335172818e-04       7.217695032009e-02 
       1.221587619877e-04       7.772619031375e-02 
       1.319039970550e-04       8.370193381159e-02 
       1.424266598317e-04       9.013692507840e-02 
       1.537887697396e-04       9.706641131666e-02 
       1.660572938097e-04       1.045283343248e-01 
       1.793045413791e-04       1.125635329332e-01 
       1.936085902737e-04       1.212159592468e-01 
       2.090537469909e-04       1.305329107606e-01 
       2.257310435923e-04       1.405652819544e-01 
       2.437387742372e-04       1.513678275272e-01 
       2.631830745176e-04       1.629994475346e-01 
       2.841785470091e-04       1.755234890707e-01 
       3.068489367268e-04       1.890080645545e-01 
       3.313278604643e-04       2.035263977695e-01 
       3.577595943165e-04       2.191571778328e-01 
       3.862999240274e-04       2.359849423564e-01 
       4.171170631739e-04       2.541004713328e-01 
       4.503926445983e-04       2.736012061508e-01 
       4.863227909323e-04       2.945916775015e-01 
       5.251192705226e-04       3.171839508261e-01 
       5.670107455699e-04       3.414980769531e-01 
       6.122441198393e-04       3.676625416749e-01 
       6.610859938837e-04       3.958147273340e-01 
       7.138242363583e-04       4.261013332566e-01 
       7.707696806873e-04       4.586787881376e-01 
       8.322579570814e-04       4.937136113372e-01 
       8.986514707061e-04       5.313826962649e-01 
       9.703415376577e-04       5.718735177394e-01 
       1.047750691338e-03       6.153841926851e-01 
       1.131335172818e-03       6.621233623727e-01 
       1.221587619877e-03       7.123098744249e-01 
       1.319039970550e-03       7.661721264358e-01 
       1.424266598317e-03       8.239547181837e-01 
       1.537887697396e-03       8.859012283283e-01 
       1.660572938097e-03       9.522589496096e-01 
       1.793045413791e-03       1.023280284752e+00 
       1.936085902737e-03       1.099216542114e+00 
       2.090537469909e-03       1.180313285007e+00 
       2.257310435923e-03       1.266804486725e+00 
       2.437387742372e-03       1.358905328305e+00 
       2.631830745176e-03       1.456803285688e+00 
       2.841785470091e-03       1.560647662634e+00 
       3.068489367268e-03       1.670537009982e+00 
       3.313278604643e-03       1.786505038784e+00 
       3.577595943165e-03       1.908504408910e+00 
       3.862999240274e-03       2.036389467072e+00 
       4.171170631739e-03       2.169898250469e+00 
       4.503926445983e-03       2.308634488758e+00 
       4.863227909323e-03       2.452050670376e+00 
       5.251192705226e-03       2.599434675130e+00 
       5.670107455699e-03       2.749901118286e+00 
       6.122441198393e-03       2.902390047226e+00 
       6.610859938837e-03       3.055671254802e+00 
       7.138242363583e-03       3.208360102523e+00 
       7.707696806873e-03       3.358926517466e+00 
       8.322579570814e-03       3.505728015652e+00 
       8.986514707061e-03       3.647012327819e+00 
       9.703415376577e-03       3.780925789062e+00 
       1.047750691338e-02       3.905492787207e+00 
       1.131335172818e-02       4.018589570951e+00 
       1.221587619877e-02       4.117902736479e+00 
       1.319039970550e-02       4.200917500544e+00 
       1.424266598317e-02       4.264943459580e+00 
       1.537887697392e-02       4.307219308986e+00 
       1.660572938023e-02       4.325061951040e+00 
       1.793045412706e-02       4.316059792239e+00 
       1.936085890181e-02       4.278228084739e+00 
       2.090537352463e-02       4.210203555352e+00 
       2.257309535333e-02       4.111417588998e+00 
       2.437382002918e-02       3.982419481468e+00 
       2.631799944462e-02       3.825166876102e+00 
       2.841644545389e-02       3.643279923450e+00 
       3.067933355377e-02       3.442195979170e+00 
       3.311368470740e-02       3.229235116826e+00 
       3.571840443502e-02       3.013512386859e+00 
       3.847720348444e-02       2.805280178364e+00 
       4.135335538431e-02       2.614405214535e+00 
       4.429361667738e-02       2.448125978701e+00 
       4.724366439141e-02       2.309233657507e+00 
       5.016480835311e-02       2.196107421804e+00 
       5.303989620246e-02       2.104361328081e+00 
       5.586870669566e-02       2.028453332936e+00 
       5.866042680613e-02       1.963145328154e+00 
       6.142798932958e-02       1.903769061885e+00 
       6.418496440164e-02       1.846467960110e+00 
       6.694418833788e-02       1.788185688505e+00 
       6.971731106057e-02       1.726703418335e+00 
       7.251476155766e-02       1.660641727588e+00 
       7.534587671527e-02       1.589456940691e+00 
       7.821907666265e-02       1.513423300010e+00 
       8.114203772912e-02       1.433555249515e+00 
       8.412184535029e-02       1.351478344398e+00 
       8.716512279304e-02       1.269260004016e+00 
       9.027813695930e-02       1.189179023058e+00 
       9.346688431697e-02       1.113486622903e+00 
       9.673716028276e-02       1.044159839708e+00 
       1.000946150830e-01       9.826910856688e-01 
       1.035447986537e-01       9.299218650694e-01 
       1.070931966762e-01       8.859428693189e-01 
       1.107452594425e-01       8.500550014863e-01 
       1.145064249153e-01       8.207867714016e-01 
       1.183821370918e-01       7.960072068668e-01 
       1.223778605862e-01       7.731281558278e-01 
       1.264990921987e-01       7.494341013032e-01 
       1.307513701367e-01       7.225388747670e-01 
       1.351402814784e-01       6.908899240871e-01 
       1.396714684203e-01       6.541619611649e-01 
       1.443506338194e-01       6.134075828282e-01 
       1.491835465229e-01       5.708491082879e-01 
       1.541760469708e-01       5.293457102822e-01 
       1.593340535561e-01       4.916920102829e-01 
       1.646635702297e-01       4.599010535087e-01 
       1.701706958456e-01       4.347087577921e-01 
       1.758616357459e-01       4.153884525297e-01 
       1.817427160982e-01       3.999170634894e-01 
       1.878204015065e-01       3.856629474518e-01 
       1.941013164283e-01       3.697893763124e-01 
       2.005922709503e-01       3.505264274203e-01 
       2.073002914972e-01       3.280229166425e-01 
       2.142326570816e-01       3.041938345759e-01 
       2.213969417533e-01       2.815919023129e-01 
       2.288010639706e-01       2.622371447172e-01 
       2.364533437147e-01       2.469420822889e-01 
       2.443625682930e-01       2.349934454366e-01 
       2.525380679504e-01       2.243979463524e-01 
       2.609898026346e-01       2.130738613296e-01 
       2.697284615565e-01       2.000829350956e-01 
       2.787655775689e-01       1.860003186267e-01 
       2.881136588829e-01       1.724978309123e-01 
       2.977863412677e-01       1.610467594229e-01 
       3.077985646929e-01       1.517416743294e-01 
       3.181667794071e-01       1.435402576278e-01 
       3.289091877812e-01       1.351624972470e-01 
       3.400460299658e-01       1.261455441456e-01 
       3.515999236474e-01       1.171833042144e-01 
       3.635962711085e-01       1.091584869688e-01 
       3.760637506334e-01       1.022912880974e-01 
       3.890349143879e-01       9.591957328558e-02 
       4.025469216825e-01       8.948976911285e-02 
       4.166424456376e-01       8.309413680318e-02 
       4.313708035863e-01       7.719802088092e-02 
       4.467893782977e-01       7.188335002429e-02 
       4.629654199664e-01       6.685197558940e-02 
       4.799783501994e-01       6.190073397241e-02 
       4.979227319373e-01       5.720567999851e-02 
       5.169121270864e-01       5.288659171679e-02 
       5.370841404489e-01       4.875376161663e-02 
       5.586070464571e-01       4.477500508201e-02 
       5.816885094930e-01       4.103648107824e-02 
       6.065870144995e-01       3.747480373115e-02 
       6.336266468475e-01       3.406144217047e-02 
       6.632156059511e-01       3.082010772508e-02 
       6.958678639263e-01       2.771431537034e-02 
       7.322247985589e-01       2.475348380766e-02 
       7.730680195114e-01       2.192637330419e-02 
       8.193049553677e-01       1.924336415941e-02 
       8.718988016039e-01       1.671701673500e-02 
       9.317218031082e-01       1.437238646843e-02 
       9.993660908989e-01       1.223938864954e-02 
       1.075037110174e+00       1.034186963454e-02 
       1.158653485707e+00       8.689493677279e-03 
       1.250099157308e+00       7.274939693347e-03 
       1.349432401273e+00       6.076334614893e-03 
       1.456947457397e+00       5.067139845076e-03 
       1.573135111331e+00       4.220186341441e-03 
       1.698621895592e+00       3.510900820451e-03 
       1.834127512934e+00       2.917796415338e-03 
       1.980444934528e+00       2.422413154943e-03 
       2.138435191726e+00       2.009176412958e-03 
       2.309029199186e+00       1.664841535696e-03 
       2.493232377687e+00       1.378241730529e-03 
       2.692130395285e+00       1.139933037451e-03 
       2.906895534573e+00       9.420070709098e-04 
       3.138793597714e+00       7.777634788151e-04 
       3.389191366484e+00       6.416024987091e-04 
       3.659564657905e+00       5.288385034354e-04 
       3.951507022538e+00       4.355291513359e-04 
       4.266739136701e+00       3.583887251023e-04 
       4.607118943941e+00       2.946691287702e-04 
       4.974652605557e+00       2.420810566391e-04 
       5.371506324689e+00       1.987154990805e-04 
       5.800019113685e+00       1.629852599254e-04 
       6.262716579983e+00       1.335681495716e-04 
       6.762325811764e+00       1.093692430404e-04 
       7.301791451110e+00       8.947837044077e-05 
       7.884293049406e+00       7.314029762298e-05 
       8.513263807261e+00       5.973117881301e-05 
       9.192410809424e+00       4.873518621714e-05 
       9.925736873929e+00       3.972471754424e-05 
       1.071756414427e+01       3.234678445093e-05 
       1.157255956364e+01       2.631113749856e-05 
       1.249576238137e+01       2.137739368971e-05 
       1.349261385375e+01       1.734744850052e-05 
       1.456898931416e+01       1.405899041982e-05 
       1.573123280165e+01       1.137797370640e-05 
       1.698619445202e+01       9.194216484184e-06 
       1.834127087176e+01       7.417339121450e-06 
       1.980444873285e+01       5.973153579865e-06 
       2.138435184532e+01       4.800649579933e-06 
       2.309029198506e+01       3.849961979790e-06 
       2.493232377636e+01       3.080188249821e-06 
       2.692130395282e+01       2.457796612626e-06 
       2.906895534573e+01       1.955403181110e-06 
       3.138793597714e+01       1.550638562270e-06 
       3.389191366484e+01       1.225185731457e-06 
       3.659564657905e+01       9.640943694908e-07 
       3.951507022538e+01       7.551995885049e-07 
       4.266739136701e+01       5.885361607718e-07 
       4.607118943941e+01       4.559971730013e-07 
       4.974652605557e+01       3.510240208402e-07 
       5.371506324689e+01       2.682202507731e-07 
       5.800019113685e+01       2.032427152623e-07 
       6.262716579983e+01       1.525414439849e-07 
       6.762325811764e+01       1.132447760421e-07 
       7.301791451110e+01       8.302372966952e-08 
       7.884293049406e+01       5.999184679481e-08 
       8.513263807261e+01       4.262378539417e-08 
       9.192410809424e+01       2.969093003573e-08 
       9.925736873929e+01       2.020022301381e-08 
       1.071756414427e+02       1.336319028114e-08 
       1.157255956364e+02       8.537265364109e-09 
       1.249576238137e+02       5.222733494936e-09 
       1.349261385375e+02       3.020222836952e-09 
