# Matter power spectrum P(k) at redshift z=99
# for k=1.04775e-05 to 134.926 h/Mpc,
# number of wavenumbers equal to 255
#    1:k (h/Mpc)              2:P (Mpc/h)^3        
       1.047750691338e-05       7.262548786577e-03 
       1.131335172818e-05       7.821001289728e-03 
       1.221587619877e-05       8.422396053111e-03 
       1.319039970550e-05       9.070034518955e-03 
       1.424266598317e-05       9.767472909427e-03 
       1.537887697396e-05       1.051854031514e-02 
       1.660572938097e-05       1.132735987568e-02 
       1.793045413791e-05       1.219837600281e-02 
       1.936085902737e-05       1.313636385725e-02 
       2.090537469909e-05       1.414648124395e-02 
       2.257310435923e-05       1.523426659372e-02 
       2.437387742372e-05       1.640569779651e-02 
       2.631830745176e-05       1.766720445407e-02 
       2.841785470091e-05       1.902571263898e-02 
       3.068489367268e-05       2.048868028341e-02 
       3.313278604643e-05       2.206413973964e-02 
       3.577595943165e-05       2.376073951426e-02 
       3.862999240274e-05       2.558779355876e-02 
       4.171170631739e-05       2.755533272208e-02 
       4.503926445983e-05       2.967415696764e-02 
       4.863227909323e-05       3.195589689893e-02 
       5.251192705226e-05       3.441307753710e-02 
       5.670107455699e-05       3.705918606541e-02 
       6.122441198393e-05       3.990874592137e-02 
       6.610859938837e-05       4.297739573722e-02 
       7.138242363583e-05       4.628197580651e-02 
       7.707696806873e-05       4.984061999266e-02 
       8.322579570814e-05       5.367285303666e-02 
       8.986514707061e-05       5.779969965926e-02 
       9.703415376577e-05       6.224379611446e-02 
       1.047750691338e-04       6.702951801515e-02 
       1.131335172818e-04       7.218310691898e-02 
       1.221587619877e-04       7.773281653683e-02 
       1.319039970550e-04       8.370906538704e-02 
       1.424266598317e-04       9.014459944293e-02 
       1.537887697396e-04       9.707466858544e-02 
       1.660572938097e-04       1.045372181826e-01 
       1.793045413791e-04       1.125730887481e-01 
       1.936085902737e-04       1.212262356922e-01 
       2.090537469909e-04       1.305439598792e-01 
       2.257310435923e-04       1.405771584566e-01 
       2.437387742372e-04       1.513805894511e-01 
       2.631830745176e-04       1.630131555722e-01 
       2.841785470091e-04       1.755382069803e-01 
       3.068489367268e-04       1.890238599058e-01 
       3.313278604643e-04       2.035433381664e-01 
       3.577595943165e-04       2.191753334986e-01 
       3.862999240274e-04       2.360043850186e-01 
       4.171170631739e-04       2.541212715994e-01 
       4.503926445983e-04       2.736234329745e-01 
       4.863227909323e-04       2.946153958252e-01 
       5.251192705226e-04       3.172092192169e-01 
       5.670107455699e-04       3.415249423547e-01 
       6.122441198393e-04       3.676910404891e-01 
       6.610859938837e-04       3.958448708702e-01 
       7.138242363583e-04       4.261331042100e-01 
       7.707696806873e-04       4.587121333048e-01 
       8.322579570814e-04       4.937484216672e-01 
       8.986514707061e-04       5.314187975540e-01 
       9.703415376577e-04       5.719106438576e-01 
       1.047750691338e-03       6.154219526888e-01 
       1.131335172818e-03       6.621612152891e-01 
       1.221587619877e-03       7.123470673987e-01 
       1.319039970550e-03       7.662076448543e-01 
       1.424266598317e-03       8.239872637804e-01 
       1.537887697396e-03       8.859288509442e-01 
       1.660572938097e-03       9.522790040629e-01 
       1.793045413791e-03       1.023289340148e+00 
       1.936085902737e-03       1.099210062627e+00 
       2.090537469909e-03       1.180285312913e+00 
       2.257310435923e-03       1.266747146980e+00 
       2.437387742372e-03       1.358808191931e+00 
       2.631830745176e-03       1.456652548714e+00 
       2.841785470091e-03       1.560424958098e+00 
       3.068489367268e-03       1.670217982855e+00 
       3.313278604643e-03       1.786057091505e+00 
       3.577595943165e-03       1.907884089006e+00 
       3.862999240274e-03       2.035538717416e+00 
       4.171170631739e-03       2.168739155631e+00 
       4.503926445983e-03       2.307062510778e+00 
       4.863227909323e-03       2.449925965587e+00 
       5.251192705226e-03       2.596570282519e+00 
       5.670107455699e-03       2.746046674089e+00 
       6.122441198393e-03       2.897212692338e+00 
       6.610859938837e-03       3.048729774291e+00 
       7.138242363583e-03       3.199068682278e+00 
       7.707696806873e-03       3.346520686430e+00 
       8.322579570814e-03       3.489205952715e+00 
       8.986514707061e-03       3.625076579811e+00 
       9.703415376577e-03       3.751905914729e+00 
       1.047750691338e-02       3.867259354574e+00 
       1.131335172818e-02       3.968437612606e+00 
       1.221587619877e-02       4.052430894808e+00 
       1.319039970550e-02       4.115886177955e+00 
       1.424266598317e-02       4.155097757365e+00 
       1.537887697392e-02       4.166120051251e+00 
       1.660572938023e-02       4.144909846718e+00 
       1.793045412706e-02       4.087537158863e+00 
       1.936085890181e-02       3.990415022279e+00 
       2.090537352463e-02       3.850560180263e+00 
       2.257309535333e-02       3.665921141371e+00 
       2.437382002918e-02       3.435891843316e+00 
       2.631799944462e-02       3.161887983390e+00 
       2.841644545389e-02       2.848000218889e+00 
       3.067933355377e-02       2.501563579592e+00 
       3.311368470740e-02       2.133714552988e+00 
       3.571840443502e-02       1.759690013752e+00 
       3.847720348444e-02       1.398017272230e+00 
       4.135335538431e-02       1.067874304154e+00 
       4.429361667738e-02       7.845075717699e-01 
       4.724366439141e-02       5.552169960241e-01 
       5.016480835311e-02       3.789023878723e-01 
       5.303989620246e-02       2.488791317370e-01 
       5.586870669566e-02       1.564048401298e-01 
       5.866042680613e-02       9.296810715757e-02 
       6.142798932958e-02       5.123827179707e-02 
       6.418496440164e-02       2.525189982972e-02 
       6.694418833788e-02       1.032172754028e-02 
       6.971731106057e-02       2.862065375691e-03 
       7.251476155766e-02       1.877434235240e-04 
       7.534587671527e-02       3.490903955430e-04 
       7.821907666265e-02       1.981796712318e-03 
       8.114203772912e-02       4.177468599849e-03 
       8.412184535029e-02       6.371850451230e-03 
       8.716512279304e-02       8.249599709464e-03 
       9.027813695930e-02       9.665189501640e-03 
       9.346688431697e-02       1.057843811531e-02 
       9.673716028276e-02       1.100870074054e-02 
       1.000946150830e-01       1.100126595835e-02 
       1.035447986537e-01       1.060906291945e-02 
       1.070931966762e-01       9.884033982715e-03 
       1.107452594425e-01       8.878714299046e-03 
       1.145064249153e-01       7.651130975385e-03 
       1.183821370918e-01       6.272147353389e-03 
       1.223778605862e-01       4.830646024301e-03 
       1.264990921987e-01       3.431103411388e-03 
       1.307513701367e-01       2.183396616788e-03 
       1.351402814784e-01       1.183184201997e-03 
       1.396714684203e-01       4.903292449696e-04 
       1.443506338194e-01       1.119839357794e-04 
       1.491835465229e-01       1.072882125146e-07 
       1.541760469708e-01       6.562776793504e-05 
       1.593340535561e-01       2.059899291909e-04 
       1.646635702297e-01       3.351139940715e-04 
       1.701706958456e-01       4.039957981300e-04 
       1.758616357459e-01       4.035396544289e-04 
       1.817427160982e-01       3.523799684604e-04 
       1.878204015065e-01       2.779772939173e-04 
       1.941013164283e-01       2.042204498935e-04 
       2.005922709503e-01       1.400352354891e-04 
       2.073002914972e-01       8.797204020800e-05 
       2.142326570816e-01       4.877003835549e-05 
       2.213969417533e-01       2.114536202554e-05 
       2.288010639706e-01       4.647622698826e-06 
       2.364533437147e-01       3.987903881412e-08 
       2.443625682930e-01       4.780544564501e-06 
       2.525380679504e-01       1.305490908083e-05 
       2.609898026346e-01       1.877364450177e-05 
       2.697284615565e-01       1.829317560921e-05 
       2.787655775689e-01       1.362575571563e-05 
       2.881136588829e-01       8.254864519410e-06 
       2.977863412677e-01       4.048224182109e-06 
       3.077985646929e-01       1.657021123319e-06 
       3.181667794071e-01       4.220838156288e-07 
       3.289091877812e-01       6.708808285998e-09 
       3.400460299658e-01       1.528988792144e-07 
       3.515999236474e-01       5.501843769631e-07 
       3.635962711085e-01       7.168324204666e-07 
       3.760637506334e-01       5.814207513870e-07 
       3.890349143879e-01       2.912044166845e-07 
       4.025469216825e-01       9.954927311374e-08 
       4.166424456376e-01       1.103906105662e-08 
       4.313708035863e-01       1.779484378662e-09 
       4.467893782977e-01       2.725216302116e-08 
       4.629654199664e-01       4.983536180191e-08 
       4.799783501994e-01       4.176153404460e-08 
       4.979227319373e-01       2.261123900226e-08 
       5.169121270864e-01       7.397542541990e-09 
       5.370841404489e-01       4.626984273147e-10 
       5.586070464571e-01       3.924903676931e-10 
       5.816885094930e-01       1.093880668691e-09 
       6.065870144995e-01       3.827885995997e-10 
       6.336266468475e-01       1.007506438056e-11 
       6.632156059511e-01       1.506188554698e-10 
       6.958678639263e-01       4.939033421548e-10 
       7.322247985589e-01       3.885100657360e-10 
       7.730680195114e-01       1.243465321829e-10 
       8.193049553677e-01       7.392756809397e-12 
       8.718988016039e-01       4.376929666289e-11 
       9.317218031082e-01       2.696430496190e-10 
       9.993660908989e-01       7.023515992249e-11 
       1.075037110174e+00       3.454253916223e-13 
       1.158653485707e+00       1.757049936126e-13 
       1.250099157308e+00       2.252307129451e-11 
       1.349432401273e+00       3.009933831779e-11 
       1.456947457397e+00       3.700318655853e-11 
       1.573135111331e+00       8.180201246158e-12 
       1.698621895592e+00       6.331525233407e-12 
       1.834127512934e+00       2.523088881724e-14 
       1.980444934528e+00       4.978034144754e-11 
       2.138435191726e+00       1.647637885096e-11 
       2.309029199186e+00       2.624566685547e-11 
       2.493232377687e+00       6.570416344289e-11 
       2.692130395285e+00       1.276818575642e-11 
       2.906895534573e+00       3.998106588166e-11 
       3.138793597714e+00       2.303001754935e-10 
       3.389191366484e+00       8.413923878633e-12 
       3.659564657905e+00       1.421151962879e-10 
       3.951507022538e+00       9.846387773005e-11 
       4.266739136701e+00       2.071628443631e-14 
       4.607118943941e+00       1.392650089531e-12 
       4.974652605557e+00       1.219505866586e-10 
       5.371506324689e+00       5.823861822358e-13 
       5.800019113685e+00       4.019836495178e-10 
       6.262716579983e+00       3.644263828005e-10 
       6.762325811764e+00       4.918310297465e-10 
       7.301791451110e+00       1.260818768580e-10 
       7.884293049406e+00       5.187297130734e-15 
       8.513263807261e+00       1.056553851653e-11 
       9.192410809424e+00       1.576716533882e-10 
       9.925736873929e+00       6.391201264456e-10 
       1.071756414427e+01       6.528463658767e-11 
       1.157255956364e+01       4.598833532147e-10 
       1.249576238137e+01       2.009577482096e-10 
       1.349261385375e+01       5.017878490800e-12 
       1.456898931416e+01       8.409458616684e-11 
       1.573123280165e+01       3.704193179889e-12 
       1.698619445202e+01       1.418908617238e-11 
       1.834127087176e+01       4.133454988727e-11 
       1.980444873285e+01       7.084247793474e-12 
       2.138435184532e+01       2.011512205622e-12 
       2.309029198506e+01       1.126737347676e-14 
       2.493232377636e+01       4.236672921841e-18 
       2.692130395282e+01       3.202185577161e-15 
       2.906895534573e+01       2.132612761090e-13 
       3.138793597714e+01       4.555099693396e-13 
       3.389191366484e+01       4.461567530138e-12 
       3.659564657905e+01       6.870308592166e-12 
       3.951507022538e+01       1.038318600728e-12 
       4.266739136701e+01       1.288497975779e-11 
       4.607118943941e+01       4.060087317238e-12 
       4.974652605557e+01       3.658738170310e-12 
       5.371506324689e+01       1.552182363578e-12 
       5.800019113685e+01       6.179687705899e-12 
       6.262716579983e+01       2.460694438071e-12 
       6.762325811764e+01       1.966580353409e-12 
       7.301791451110e+01       7.204587444896e-13 
       7.884293049406e+01       2.637216401588e-12 
       8.513263807261e+01       9.825789318762e-13 
       9.192410809424e+01       7.229455819358e-12 
       9.925736873929e+01       1.388152262740e-13 
       1.071756414427e+02       8.324907127244e-13 
       1.157255956364e+02       2.122523006085e-14 
       1.249576238137e+02       1.438771624709e-13 
       1.349261385375e+02       7.713822026267e-14 
