# Matter power spectrum P(k) at redshift z=0
# for k=1.04775e-05 to 134.926 h/Mpc,
# number of wavenumbers equal to 255
#    1:k (h/Mpc)              2:P (Mpc/h)^3        
       1.047750691338e-05       5.020963918244e+01 
       1.131335172818e-05       5.407048701394e+01 
       1.221587619877e-05       5.822819367928e+01 
       1.319039970550e-05       6.270561848850e+01 
       1.424266598317e-05       6.752731476974e+01 
       1.537887697396e-05       7.271975719623e+01 
       1.660572938097e-05       7.831145960400e+01 
       1.793045413791e-05       8.433312566494e+01 
       1.936085902737e-05       9.081778883057e+01 
       2.090537469909e-05       9.780107697122e+01 
       2.257310435923e-05       1.053212942957e+02 
       2.437387742372e-05       1.134197246641e+02 
       2.631830745176e-05       1.221408286202e+02 
       2.841785470091e-05       1.315324585806e+02 
       3.068489367268e-05       1.416461682569e+02 
       3.313278604643e-05       1.525374479015e+02 
       3.577595943165e-05       1.642660557135e+02 
       3.862999240274e-05       1.768963443028e+02 
       4.171170631739e-05       1.904975983574e+02 
       4.503926445983e-05       2.051444265273e+02 
       4.863227909323e-05       2.209171412222e+02 
       5.251192705226e-05       2.379022254290e+02 
       5.670107455699e-05       2.561927814713e+02 
       6.122441198393e-05       2.758890478015e+02 
       6.610859938837e-05       2.970989211756e+02 
       7.138242363583e-05       3.199385566820e+02 
       7.707696806873e-05       3.445329742358e+02 
       8.322579570814e-05       3.710167324663e+02 
       8.986514707061e-05       3.995346444639e+02 
       9.703415376577e-05       4.302425385087e+02 
       1.047750691338e-04       4.633080763035e+02 
       1.131335172818e-04       4.989116273940e+02 
       1.221587619877e-04       5.372471946145e+02 
       1.319039970550e-04       5.785234108079e+02 
       1.424266598317e-04       6.229645927156e+02 
       1.537887697396e-04       6.708118487514e+02 
       1.660572938097e-04       7.223242669098e+02 
       1.793045413791e-04       7.777801571681e+02 
       1.936085902737e-04       8.374783638235e+02 
       2.090537469909e-04       9.017396291902e+02 
       2.257310435923e-04       9.709080291579e+02 
       2.437387742372e-04       1.045352453750e+03 
       2.631830745176e-04       1.125468125849e+03 
       2.841785470091e-04       1.211678185990e+03 
       3.068489367268e-04       1.304435256569e+03 
       3.313278604643e-04       1.404223062440e+03 
       3.577595943165e-04       1.511558028736e+03 
       3.862999240274e-04       1.626990852008e+03 
       4.171170631739e-04       1.751108044177e+03 
       4.503926445983e-04       1.884533403399e+03 
       4.863227909323e-04       2.027929402751e+03 
       5.251192705226e-04       2.181998481204e+03 
       5.670107455699e-04       2.347484140597e+03 
       6.122441198393e-04       2.525171919694e+03 
       6.610859938837e-04       2.715890046845e+03 
       7.138242363583e-04       2.920509765570e+03 
       7.707696806873e-04       3.139945191693e+03 
       8.322579570814e-04       3.375152452954e+03 
       8.986514707061e-04       3.627127984156e+03 
       9.703415376577e-04       3.896905618946e+03 
       1.047750691338e-03       4.185552379405e+03 
       1.131335172818e-03       4.494162674180e+03 
       1.221587619877e-03       4.823851005788e+03 
       1.319039970550e-03       5.175743072308e+03 
       1.424266598317e-03       5.551019994031e+03 
       1.537887697396e-03       5.950788740064e+03 
       1.660572938097e-03       6.376123473117e+03 
       1.793045413791e-03       6.828074248658e+03 
       1.936085902737e-03       7.307625596690e+03 
       2.090537469909e-03       7.815671846946e+03 
       2.257310435923e-03       8.352989873903e+03 
       2.437387742372e-03       8.920209884433e+03 
       2.631830745176e-03       9.517780748769e+03 
       2.841785470091e-03       1.014593287641e+04 
       3.068489367268e-03       1.080463862831e+04 
       3.313278604643e-03       1.149356422464e+04 
       3.577595943165e-03       1.221202041504e+04 
       3.862999240274e-03       1.295890185075e+04 
       4.171170631739e-03       1.373262504248e+04 
       4.503926445983e-03       1.453106680995e+04 
       4.863227909323e-03       1.535147501196e+04 
       5.251192705226e-03       1.619052957721e+04 
       5.670107455699e-03       1.704415488450e+04 
       6.122441198393e-03       1.790733030859e+04 
       6.610859938837e-03       1.877428145169e+04 
       7.138242363583e-03       1.963827773863e+04 
       7.707696806873e-03       2.049154091031e+04 
       8.322579570814e-03       2.132523355882e+04 
       8.986514707061e-03       2.212942028926e+04 
       9.703415376577e-03       2.289293271063e+04 
       1.047750691338e-02       2.360344596529e+04 
       1.131335172818e-02       2.424751125635e+04 
       1.221587619877e-02       2.481063323052e+04 
       1.319039970550e-02       2.527743540835e+04 
       1.424266598317e-02       2.563190237544e+04 
       1.537887697392e-02       2.585791549716e+04 
       1.660572938023e-02       2.593968816376e+04 
       1.793045412706e-02       2.586266844111e+04 
       1.936085890181e-02       2.561461863265e+04 
       2.090537352463e-02       2.518689805348e+04 
       2.257309535333e-02       2.457598664309e+04 
       2.437382002918e-02       2.378500843036e+04 
       2.631799944462e-02       2.282559563796e+04 
       2.841644545389e-02       2.171895872642e+04 
       3.067933355377e-02       2.049743818014e+04 
       3.311368470740e-02       1.920453004352e+04 
       3.571840443502e-02       1.789456337720e+04 
       3.847720348444e-02       1.662876703836e+04 
       4.135335538431e-02       1.546646769562e+04 
       4.429361667738e-02       1.445106837315e+04 
       4.724366439141e-02       1.359967916791e+04 
       5.016480835311e-02       1.290263170603e+04 
       5.303989620246e-02       1.233353312552e+04 
       5.586870669566e-02       1.186006798028e+04 
       5.866042680613e-02       1.145067175562e+04 
       6.142798932958e-02       1.107754403023e+04 
       6.418496440164e-02       1.071770954627e+04 
       6.694418833788e-02       1.035307102938e+04 
       6.971731106057e-02       9.970400577781e+03 
       7.251476155766e-02       9.561498221770e+03 
       7.534587671527e-02       9.123141012369e+03 
       7.821907666265e-02       8.656949783893e+03 
       8.114203772912e-02       8.168799107197e+03 
       8.412184535029e-02       7.668197266846e+03 
       8.716512279304e-02       7.167384617833e+03 
       9.027813695930e-02       6.679559992087e+03 
       9.346688431697e-02       6.217880803211e+03 
       9.673716028276e-02       5.793762462720e+03 
       1.000946150830e-01       5.415720550846e+03 
       1.035447986537e-01       5.088541375293e+03 
       1.070931966762e-01       4.812565572611e+03 
       1.107452594425e-01       4.583725805885e+03 
       1.145064249153e-01       4.393487682886e+03 
       1.183821370918e-01       4.229687636362e+03 
       1.223778605862e-01       4.077759875458e+03 
       1.264990921987e-01       3.922420568118e+03 
       1.307513701367e-01       3.750393689716e+03 
       1.351402814784e-01       3.553048830343e+03 
       1.396714684203e-01       3.328699806768e+03 
       1.443506338194e-01       3.083310335588e+03 
       1.491835465229e-01       2.829232759486e+03 
       1.541760469708e-01       2.582200011528e+03 
       1.593340535561e-01       2.357361602801e+03 
       1.646635702297e-01       2.165366797530e+03 
       1.701706958456e-01       2.009902154399e+03 
       1.758616357459e-01       1.886904764112e+03 
       1.817427160982e-01       1.785587681317e+03 
       1.878204015065e-01       1.692388887929e+03 
       1.941013164283e-01       1.592770916084e+03 
       2.005922709503e-01       1.477816032851e+03 
       2.073002914972e-01       1.348430504984e+03 
       2.142326570816e-01       1.214284568124e+03 
       2.213969417533e-01       1.087985177601e+03 
       2.288010639706e-01       9.791295021180e+02 
       2.364533437147e-01       8.913113253394e+02 
       2.443625682930e-01       8.208736830352e+02 
       2.525380679504e-01       7.586155676444e+02 
       2.609898026346e-01       6.951156994352e+02 
       2.697284615565e-01       6.262873966689e+02 
       2.787655775689e-01       5.547304865749e+02 
       2.881136588829e-01       4.875443122032e+02 
       2.977863412677e-01       4.306569694271e+02 
       3.077985646929e-01       3.841863170063e+02 
       3.181667794071e-01       3.438717331166e+02 
       3.289091877812e-01       3.047760744006e+02 
       3.400460299658e-01       2.651991200228e+02 
       3.515999236474e-01       2.276134617611e+02 
       3.635962711085e-01       1.949398647521e+02 
       3.760637506334e-01       1.677045633391e+02 
       3.890349143879e-01       1.436607600205e+02 
       4.025469216825e-01       1.210564672661e+02 
       4.166424456376e-01       1.001076602954e+02 
       4.313708035863e-01       8.198694186318e+01 
       4.467893782977e-01       6.674212374410e+01 
       4.629654199664e-01       5.353147006216e+01 
       4.799783501994e-01       4.181058198123e+01 
       4.979227319373e-01       3.184833010344e+01 
       5.169121270864e-01       2.374296975870e+01 
       5.370841404489e-01       1.704968181741e+01 
       5.586070464571e-01       1.161762989418e+01 
       5.816885094930e-01       7.447929459164e+00 
       6.065870144995e-01       4.348292750655e+00 
       6.336266468475e-01       2.176560950111e+00 
       6.632156059511e-01       8.272223990328e-01 
       6.958678639263e-01       1.497743445242e-01 
       7.322247985589e-01       6.907131212068e-03 
       7.730680195114e-01       2.448522199627e-01 
       8.193049553677e-01       7.003014034254e-01 
       8.718988016039e-01       1.205607287321e+00 
       9.317218031082e-01       1.604984913083e+00 
       9.993660908989e-01       1.786901938166e+00 
       1.075037110174e+00       1.716606871824e+00 
       1.158653485707e+00       1.440462167215e+00 
       1.250099157308e+00       1.056775969991e+00 
       1.349432401273e+00       6.708763657127e-01 
       1.456947457397e+00       3.579301170032e-01 
       1.573135111331e+00       1.501302011231e-01 
       1.698621895592e+00       4.152627864372e-02 
       1.834127512934e+00       3.480579950716e-03 
       1.980444934528e+00       1.770581507484e-03 
       2.138435191726e+00       9.944401624530e-03 
       2.309029199186e+00       1.434807966336e-02 
       2.493232377687e+00       1.246929178924e-02 
       2.692130395285e+00       7.448306441945e-03 
       2.906895534573e+00       2.971994137769e-03 
       3.138793597714e+00       6.200639072643e-04 
       3.389191366484e+00       8.392034867297e-06 
       3.659564657905e+00       9.004894128154e-05 
       3.951507022538e+00       1.753957445792e-04 
       4.266739136701e+00       1.250289033613e-04 
       4.607118943941e+00       4.394866173523e-05 
       4.974652605557e+00       5.182041018731e-06 
       5.371506324689e+00       2.101880032980e-07 
       5.800019113685e+00       1.892009343287e-06 
       6.262716579983e+00       1.190979950845e-06 
       6.762325811764e+00       1.702729277116e-07 
       7.301791451110e+00       9.293257236688e-09 
       7.884293049406e+00       7.451253744644e-08 
       8.513263807261e+00       4.951499288308e-08 
       9.192410809424e+00       1.327033515545e-08 
       9.925736873929e+00       2.708212416768e-09 
       1.071756414427e+01       1.683825580825e-09 
       1.157255956364e+01       2.269526238797e-09 
       1.249576238137e+01       2.489683308753e-09 
       1.349261385375e+01       1.951840324663e-09 
       1.456898931416e+01       1.342803516503e-09 
       1.573123280165e+01       9.423159598986e-10 
       1.698619445202e+01       7.595003989700e-10 
       1.834127087176e+01       5.313734401583e-10 
       1.980444873285e+01       3.981138059314e-10 
       2.138435184532e+01       2.851031052958e-10 
       2.309029198506e+01       2.160082619867e-10 
       2.493232377636e+01       1.586251898926e-10 
       2.692130395282e+01       1.028216291676e-10 
       2.906895534573e+01       7.401152274987e-11 
       3.138793597714e+01       5.487506764266e-11 
       3.389191366484e+01       3.857333436736e-11 
       3.659564657905e+01       1.653785849973e-11 
       3.951507022538e+01       1.384425920483e-11 
       4.266739136701e+01       1.663139343179e-11 
       4.607118943941e+01       6.809863547713e-12 
       4.974652605557e+01       8.213561138810e-12 
       5.371506324689e+01       7.720064078685e-12 
       5.800019113685e+01       1.640929398293e-12 
       6.262716579983e+01       2.413734641588e-12 
       6.762325811764e+01       1.645074192447e-12 
       7.301791451110e+01       2.386107635179e-12 
       7.884293049406e+01       4.594234879043e-16 
       8.513263807261e+01       4.398709488872e-14 
       9.192410809424e+01       9.901847759240e-15 
       9.925736873929e+01       8.806997618846e-13 
       1.071756414427e+02       8.986543784317e-13 
       1.157255956364e+02       1.464716427911e-12 
       1.249576238137e+02       1.149413408416e-15 
       1.349261385375e+02       2.213882398159e-14 
