# Matter power spectrum P(k) at redshift z=0
# for k=1.04775e-05 to 134.926 h/Mpc,
# number of wavenumbers equal to 255
#    1:k (h/Mpc)              2:P (Mpc/h)^3        
       1.047750691338e-05       5.020963154382e+01 
       1.131335172818e-05       5.407049009136e+01 
       1.221587619877e-05       5.822820129846e+01 
       1.319039970550e-05       6.270559464556e+01 
       1.424266598317e-05       6.752731297802e+01 
       1.537887697396e-05       7.271976017321e+01 
       1.660572938097e-05       7.831145669203e+01 
       1.793045413791e-05       8.433312752319e+01 
       1.936085902737e-05       9.081779001414e+01 
       2.090537469909e-05       9.780106507107e+01 
       2.257310435923e-05       1.053212721895e+02 
       2.437387742372e-05       1.134197144668e+02 
       2.631830745176e-05       1.221408180070e+02 
       2.841785470091e-05       1.315324497994e+02 
       3.068489367268e-05       1.416461550259e+02 
       3.313278604643e-05       1.525374356274e+02 
       3.577595943165e-05       1.642660448943e+02 
       3.862999240274e-05       1.768963352707e+02 
       4.171170631739e-05       1.904975909888e+02 
       4.503926445983e-05       2.051444197474e+02 
       4.863227909323e-05       2.209171364897e+02 
       5.251192705226e-05       2.379022186417e+02 
       5.670107455699e-05       2.561927792256e+02 
       6.122441198393e-05       2.758890455265e+02 
       6.610859938837e-05       2.970989217160e+02 
       7.138242363583e-05       3.199385570846e+02 
       7.707696806873e-05       3.445329742511e+02 
       8.322579570814e-05       3.710167323055e+02 
       8.986514707061e-05       3.995346454885e+02 
       9.703415376577e-05       4.302425399446e+02 
       1.047750691338e-04       4.633080780067e+02 
       1.131335172818e-04       4.989116283752e+02 
       1.221587619877e-04       5.372471941771e+02 
       1.319039970550e-04       5.785234116647e+02 
       1.424266598317e-04       6.229645926993e+02 
       1.537887697396e-04       6.708118482568e+02 
       1.660572938097e-04       7.223242645243e+02 
       1.793045413791e-04       7.777801532993e+02 
       1.936085902737e-04       8.374783574947e+02 
       2.090537469909e-04       9.017396187648e+02 
       2.257310435923e-04       9.709080152677e+02 
       2.437387742372e-04       1.045352433619e+03 
       2.631830745176e-04       1.125468096925e+03 
       2.841785470091e-04       1.211678141671e+03 
       3.068489367268e-04       1.304435189480e+03 
       3.313278604643e-04       1.404222969315e+03 
       3.577595943165e-04       1.511557894435e+03 
       3.862999240274e-04       1.626990658730e+03 
       4.171170631739e-04       1.751107765167e+03 
       4.503926445983e-04       1.884532999257e+03 
       4.863227909323e-04       2.027928820229e+03 
       5.251192705226e-04       2.181997628266e+03 
       5.670107455699e-04       2.347482917797e+03 
       6.122441198393e-04       2.525170162158e+03 
       6.610859938837e-04       2.715887514515e+03 
       7.138242363583e-04       2.920506119379e+03 
       7.707696806873e-04       3.139939953962e+03 
       8.322579570814e-04       3.375144930507e+03 
       8.986514707061e-04       3.627117125890e+03 
       9.703415376577e-04       3.896890114365e+03 
       1.047750691338e-03       4.185530177566e+03 
       1.131335172818e-03       4.494130948525e+03 
       1.221587619877e-03       4.823805820215e+03 
       1.319039970550e-03       5.175678432876e+03 
       1.424266598317e-03       5.550927937294e+03 
       1.537887697396e-03       5.950657228002e+03 
       1.660572938097e-03       6.375936161431e+03 
       1.793045413791e-03       6.827808624527e+03 
       1.936085902737e-03       7.307249418104e+03 
       2.090537469909e-03       7.815140912229e+03 
       2.257310435923e-03       8.352242518610e+03 
       2.437387742372e-03       8.919160267750e+03 
       2.631830745176e-03       9.516311159535e+03 
       2.841785470091e-03       1.014388119770e+04 
       3.068489367268e-03       1.080177885226e+04 
       3.313278604643e-03       1.148959405821e+04 
       3.577595943165e-03       1.220652438135e+04 
       3.862999240274e-03       1.295131217920e+04 
       4.171170631739e-03       1.372218242898e+04 
       4.503926445983e-03       1.451673807867e+04 
       4.863227909323e-03       1.533188521492e+04 
       5.251192705226e-03       1.616383354645e+04 
       5.670107455699e-03       1.700790278963e+04 
       6.122441198393e-03       1.785829357456e+04 
       6.610859938837e-03       1.870818853110e+04 
       7.138242363583e-03       1.954952170767e+04 
       7.707696806873e-03       2.037289414354e+04 
       8.322579570814e-03       2.116725697318e+04 
       8.986514707061e-03       2.191989334353e+04 
       9.703415376577e-03       2.261633787440e+04 
       1.047750691338e-02       2.324002276395e+04 
       1.131335172818e-02       2.377237054891e+04 
       1.221587619877e-02       2.419249582279e+04 
       1.319039970550e-02       2.447759800995e+04 
       1.424266598317e-02       2.460295492181e+04 
       1.537887697392e-02       2.454235512060e+04 
       1.660572938023e-02       2.426866510441e+04 
       1.793045412706e-02       2.375553581007e+04 
       1.936085890181e-02       2.297841140951e+04 
       2.090537352463e-02       2.191746754579e+04 
       2.257309535333e-02       2.056077978029e+04 
       2.437382002918e-02       1.890771090225e+04 
       2.631799944462e-02       1.697389399439e+04 
       2.841644545389e-02       1.479658858724e+04 
       3.067933355377e-02       1.243929959135e+04 
       3.311368470740e-02       9.996211104123e+03 
       3.571840443502e-02       7.592126672793e+03 
       3.847720348444e-02       5.373803240115e+03 
       4.135335538431e-02       3.482176651277e+03 
       4.429361667738e-02       2.014295507057e+03 
       4.724366439141e-02       9.940427139786e+02 
       5.016480835311e-02       3.765939021951e+02 
       5.303989620246e-02       7.664842049045e+01 
       5.586870669566e-02       1.104480661246e-01 
       5.866042680613e-02       6.148156706119e+01 
       6.142798932958e-02       1.908102975934e+02 
       6.418496440164e-02       3.350094493811e+02 
       6.694418833788e-02       4.568578423693e+02 
       6.971731106057e-02       5.340957964503e+02 
       7.251476155766e-02       5.567067058306e+02 
       7.534587671527e-02       5.260780933058e+02 
       7.821907666265e-02       4.519816042833e+02 
       8.114203772912e-02       3.501240459035e+02 
       8.412184535029e-02       2.386192077764e+02 
       8.716512279304e-02       1.358908416563e+02 
       9.027813695930e-02       5.687555785301e+01 
       9.346688431697e-02       1.098497780632e+01 
       9.673716028276e-02       6.460652418637e-01 
       1.000946150830e-01       2.105933909747e+01 
       1.035447986537e-01       6.140219129823e+01 
       1.070931966762e-01       1.073908512238e+02 
       1.107452594425e-01       1.445740784732e+02 
       1.145064249153e-01       1.618963361506e+02 
       1.183821370918e-01       1.545114324533e+02 
       1.223778605862e-01       1.250224234185e+02 
       1.264990921987e-01       8.267072699497e+01 
       1.307513701367e-01       4.033411568230e+01 
       1.351402814784e-01       1.032118386387e+01 
       1.396714684203e-01       4.191069943806e-04 
       1.443506338194e-01       9.147423390957e+00 
       1.491835465229e-01       3.008293009482e+01 
       1.541760469708e-01       5.094559485200e+01 
       1.593340535561e-01       6.084908971883e+01 
       1.646635702297e-01       5.498101386877e+01 
       1.701706958456e-01       3.670782601583e+01 
       1.758616357459e-01       1.553325722728e+01 
       1.817427160982e-01       1.983581144243e+00 
       1.878204015065e-01       1.264940798562e+00 
       1.941013164283e-01       1.046231066691e+01 
       2.005922709503e-01       2.079547069704e+01 
       2.073002914972e-01       2.388844975925e+01 
       2.142326570816e-01       1.766583311637e+01 
       2.213969417533e-01       7.259596716007e+00 
       2.288010639706e-01       5.509486605103e-01 
       2.364533437147e-01       1.368577865883e+00 
       2.443625682930e-01       6.535319621282e+00 
       2.525380679504e-01       9.561599825639e+00 
       2.609898026346e-01       7.217582493170e+00 
       2.697284615565e-01       2.342425549565e+00 
       2.787655775689e-01       2.506397301399e-03 
       2.881136588829e-01       1.510415634581e+00 
       2.977863412677e-01       3.556483237226e+00 
       3.077985646929e-01       2.975884572177e+00 
       3.181667794071e-01       8.186378709237e-01 
       3.289091877812e-01       2.496289402924e-02 
       3.400460299658e-01       9.284717221530e-01 
       3.515999236474e-01       1.350678530468e+00 
       3.635962711085e-01       5.428829092952e-01 
       3.760637506334e-01       1.744790063160e-06 
       3.890349143879e-01       3.372769997800e-01 
       4.025469216825e-01       4.541451755814e-01 
       4.166424456376e-01       9.346036184111e-02 
       4.313708035863e-01       3.467773003629e-02 
       4.467893782977e-01       1.724456738507e-01 
       4.629654199664e-01       6.122085801783e-02 
       4.799783501994e-01       7.017556714117e-03 
       4.979227319373e-01       5.541565967644e-02 
       5.169121270864e-01       9.205424997319e-03 
       5.370841404489e-01       1.067872388265e-02 
       5.586070464571e-01       1.125001661913e-02 
       5.816885094930e-01       9.255614318442e-04 
       6.065870144995e-01       3.835024909336e-03 
       6.336266468475e-01       3.677274766456e-04 
       6.632156059511e-01       9.384584769100e-04 
       6.958678639263e-01       3.180087242440e-04 
       7.322247985589e-01       8.191443601906e-06 
       7.730680195114e-01       1.592892282780e-05 
       8.193049553677e-01       3.472037542663e-08 
       8.718988016039e-01       1.157868561086e-06 
       9.317218031082e-01       7.730190749812e-10 
       9.993660908989e-01       4.088551437155e-07 
       1.075037110174e+00       1.542904771351e-06 
       1.158653485707e+00       9.784270872468e-07 
       1.250099157308e+00       6.040411847366e-06 
       1.349432401273e+00       6.978991542548e-06 
       1.456947457397e+00       6.514369117085e-07 
       1.573135111331e+00       3.754885495087e-06 
       1.698621895592e+00       2.512019830346e-06 
       1.834127512934e+00       5.998636537206e-07 
       1.980444934528e+00       1.316681897791e-06 
       2.138435191726e+00       8.546899378425e-07 
       2.309029199186e+00       7.597644221531e-07 
       2.493232377687e+00       3.785368924989e-08 
       2.692130395285e+00       3.496131658508e-07 
       2.906895534573e+00       3.847954856473e-10 
       3.138793597714e+00       5.269265299057e-08 
       3.389191366484e+00       2.693169505373e-08 
       3.659564657905e+00       3.627851330922e-07 
       3.951507022538e+00       8.402973750508e-07 
       4.266739136701e+00       1.211286782896e-06 
       4.607118943941e+00       5.405767216357e-07 
       4.974652605557e+00       1.557188033545e-06 
       5.371506324689e+00       1.407874827272e-06 
       5.800019113685e+00       9.727200787900e-09 
       6.262716579983e+00       1.974081330132e-07 
       6.762325811764e+00       1.431828274781e-08 
       7.301791451110e+00       4.310044314986e-06 
       7.884293049406e+00       1.877046161409e-07 
       8.513263807261e+00       4.165017626588e-09 
       9.192410809424e+00       2.086046502103e-07 
       9.925736873929e+00       2.005813287923e-07 
       1.071756414427e+01       8.744983487624e-08 
       1.157255956364e+01       1.707835971790e-08 
       1.249576238137e+01       7.114437471764e-08 
       1.349261385375e+01       1.140064779513e-07 
       1.456898931416e+01       4.662934074899e-09 
       1.573123280165e+01       2.497911643734e-07 
       1.698619445202e+01       6.988781518000e-07 
       1.834127087176e+01       1.302915079919e-11 
       1.980444873285e+01       1.981417674512e-07 
       2.138435184532e+01       5.914147091129e-09 
       2.309029198506e+01       1.108188266004e-09 
       2.493232377636e+01       1.936972921107e-13 
       2.692130395282e+01       3.593271493449e-08 
       2.906895534573e+01       7.088610769036e-13 
       3.138793597714e+01       5.364706609560e-09 
       3.389191366484e+01       3.205546895373e-08 
       3.659564657905e+01       1.146707966928e-08 
       3.951507022538e+01       1.188676874061e-09 
       4.266739136701e+01       5.761027319010e-09 
       4.607118943941e+01       3.022717322404e-11 
       4.974652605557e+01       1.360171013743e-09 
       5.371506324689e+01       1.370006964448e-10 
       5.800019113685e+01       2.615411821305e-09 
       6.262716579983e+01       1.241186633733e-10 
       6.762325811764e+01       1.651745916887e-10 
       7.301791451110e+01       2.826527803222e-09 
       7.884293049406e+01       1.127794331340e-09 
       8.513263807261e+01       9.495190396153e-17 
       9.192410809424e+01       5.739595780779e-11 
       9.925736873929e+01       4.984113620827e-11 
       1.071756414427e+02       2.690640793137e-14 
       1.157255956364e+02       1.694236180628e-15 
       1.249576238137e+02       6.550251239235e-15 
       1.349261385375e+02       3.928754801561e-13 
