# Matter power spectrum P(k) at redshift z=0
# for k=1.04775e-05 to 134.926 h/Mpc,
# number of wavenumbers equal to 255
#    1:k (h/Mpc)              2:P (Mpc/h)^3        
       1.047750691338e-05       5.020963906804e+01 
       1.131335172818e-05       5.407048937148e+01 
       1.221587619877e-05       5.822820724029e+01 
       1.319039970550e-05       6.270562047247e+01 
       1.424266598317e-05       6.752731476098e+01 
       1.537887697396e-05       7.271975715395e+01 
       1.660572938097e-05       7.831147101246e+01 
       1.793045413791e-05       8.433312302135e+01 
       1.936085902737e-05       9.081780130646e+01 
       2.090537469909e-05       9.780107449180e+01 
       2.257310435923e-05       1.053212938596e+02 
       2.437387742372e-05       1.134197268469e+02 
       2.631830745176e-05       1.221408285624e+02 
       2.841785470091e-05       1.315324590474e+02 
       3.068489367268e-05       1.416461671359e+02 
       3.313278604643e-05       1.525374478894e+02 
       3.577595943165e-05       1.642660517241e+02 
       3.862999240274e-05       1.768963429379e+02 
       4.171170631739e-05       1.904975997820e+02 
       4.503926445983e-05       2.051444243234e+02 
       4.863227909323e-05       2.209171412049e+02 
       5.251192705226e-05       2.379022266146e+02 
       5.670107455699e-05       2.561927841238e+02 
       6.122441198393e-05       2.758890479539e+02 
       6.610859938837e-05       2.970989213979e+02 
       7.138242363583e-05       3.199385559930e+02 
       7.707696806873e-05       3.445329727006e+02 
       8.322579570814e-05       3.710167324011e+02 
       8.986514707061e-05       3.995346444121e+02 
       9.703415376577e-05       4.302425389349e+02 
       1.047750691338e-04       4.633080773458e+02 
       1.131335172818e-04       4.989116271584e+02 
       1.221587619877e-04       5.372471938794e+02 
       1.319039970550e-04       5.785234116884e+02 
       1.424266598317e-04       6.229645933130e+02 
       1.537887697396e-04       6.708118487511e+02 
       1.660572938097e-04       7.223242657765e+02 
       1.793045413791e-04       7.777801571271e+02 
       1.936085902737e-04       8.374783638365e+02 
       2.090537469909e-04       9.017396276772e+02 
       2.257310435923e-04       9.709080297651e+02 
       2.437387742372e-04       1.045352453376e+03 
       2.631830745176e-04       1.125468127721e+03 
       2.841785470091e-04       1.211678185928e+03 
       3.068489367268e-04       1.304435256065e+03 
       3.313278604643e-04       1.404223062921e+03 
       3.577595943165e-04       1.511558029577e+03 
       3.862999240274e-04       1.626990852555e+03 
       4.171170631739e-04       1.751108045602e+03 
       4.503926445983e-04       1.884533404755e+03 
       4.863227909323e-04       2.027929406956e+03 
       5.251192705226e-04       2.181998483913e+03 
       5.670107455699e-04       2.347484146066e+03 
       6.122441198393e-04       2.525171925196e+03 
       6.610859938837e-04       2.715890054979e+03 
       7.138242363583e-04       2.920509779320e+03 
       7.707696806873e-04       3.139945208051e+03 
       8.322579570814e-04       3.375152477019e+03 
       8.986514707061e-04       3.627128020462e+03 
       9.703415376577e-04       3.896905669505e+03 
       1.047750691338e-03       4.185552452613e+03 
       1.131335172818e-03       4.494162775570e+03 
       1.221587619877e-03       4.823851150591e+03 
       1.319039970550e-03       5.175743278706e+03 
       1.424266598317e-03       5.551020298676e+03 
       1.537887697396e-03       5.950789185425e+03 
       1.660572938097e-03       6.376124150046e+03 
       1.793045413791e-03       6.828075236582e+03 
       1.936085902737e-03       7.307627051047e+03 
       2.090537469909e-03       7.815673959048e+03 
       2.257310435923e-03       8.352992922977e+03 
       2.437387742372e-03       8.920214306347e+03 
       2.631830745176e-03       9.517787166692e+03 
       2.841785470091e-03       1.014594130671e+04 
       3.068489367268e-03       1.080465136478e+04 
       3.313278604643e-03       1.149358239506e+04 
       3.577595943165e-03       1.221204586850e+04 
       3.862999240274e-03       1.295893666481e+04 
       4.171170631739e-03       1.373267338601e+04 
       4.503926445983e-03       1.453113500010e+04 
       4.863227909323e-03       1.535157115277e+04 
       5.251192705226e-03       1.619066155287e+04 
       5.670107455699e-03       1.704433881337e+04 
       6.122441198393e-03       1.790758125097e+04 
       6.610859938837e-03       1.877461997118e+04 
       7.138242363583e-03       1.963874651017e+04 
       7.707696806873e-03       2.049217385925e+04 
       8.322579570814e-03       2.132608015761e+04 
       8.986514707061e-03       2.213056719979e+04 
       9.703415376577e-03       2.289447300352e+04 
       1.047750691338e-02       2.360549529328e+04 
       1.131335172818e-02       2.425024128650e+04 
       1.221587619877e-02       2.481424709474e+04 
       1.319039970550e-02       2.528219969984e+04 
       1.424266598317e-02       2.563815133569e+04 
       1.537887697392e-02       2.586607620249e+04 
       1.660572938023e-02       2.595027131552e+04 
       1.793045412706e-02       2.587635587136e+04 
       1.936085890181e-02       2.563219810500e+04 
       2.090537352463e-02       2.520936168943e+04 
       2.257309535333e-02       2.460445468836e+04 
       2.437382002918e-02       2.382088293577e+04 
       2.631799944462e-02       2.287044918078e+04 
       2.841644545389e-02       2.177450008910e+04 
       3.067933355377e-02       2.056556887251e+04 
       3.311368470740e-02       1.928731580535e+04 
       3.571840443502e-02       1.799402169820e+04 
       3.847720348444e-02       1.674684313465e+04 
       4.135335538431e-02       1.560459850416e+04 
       4.429361667738e-02       1.461037978999e+04 
       4.724366439141e-02       1.378056049360e+04 
       5.016480835311e-02       1.310505658092e+04 
       5.303989620246e-02       1.255718262546e+04 
       5.586870669566e-02       1.210424520379e+04 
       5.866042680613e-02       1.171465554659e+04 
       6.142798932958e-02       1.136047315894e+04 
       6.418496440164e-02       1.101855404602e+04 
       6.694418833788e-02       1.067067617225e+04 
       6.971731106057e-02       1.030358002415e+04 
       7.251476155766e-02       9.909012435522e+03 
       7.534587671527e-02       9.483732874014e+03 
       7.821907666265e-02       9.029498059310e+03 
       8.114203772912e-02       8.552311620622e+03 
       8.412184535029e-02       8.061895096479e+03 
       8.716512279304e-02       7.570759479331e+03 
       9.027813695930e-02       7.092487453401e+03 
       9.346688431697e-02       6.640521312922e+03 
       9.673716028276e-02       6.226706867239e+03 
       1.000946150830e-01       5.859932175788e+03 
       1.035447986537e-01       5.545260840598e+03 
       1.070931966762e-01       5.283141969371e+03 
       1.107452594425e-01       5.069428160844e+03 
       1.145064249153e-01       4.895254428157e+03 
       1.183821370918e-01       4.747842358610e+03 
       1.223778605862e-01       4.611723345202e+03 
       1.264990921987e-01       4.470609650595e+03 
       1.307513701367e-01       4.310253858115e+03 
       1.351402814784e-01       4.121374120347e+03 
       1.396714684203e-01       3.902062103633e+03 
       1.443506338194e-01       3.658650105354e+03 
       1.491835465229e-01       3.404490216757e+03 
       1.541760469708e-01       3.156662809625e+03 
       1.593340535561e-01       2.931948318089e+03 
       1.646635702297e-01       2.742363372741e+03 
       1.701706958456e-01       2.592243941132e+03 
       1.758616357459e-01       2.477228753265e+03 
       1.817427160982e-01       2.385170044326e+03 
       1.878204015065e-01       2.300354013313e+03 
       1.941013164283e-01       2.205745302552e+03 
       2.005922709503e-01       2.090805501181e+03 
       2.073002914972e-01       1.956453115874e+03 
       2.142326570816e-01       1.814180649662e+03 
       2.213969417533e-01       1.679271940639e+03 
       2.288010639706e-01       1.563831451167e+03 
       2.364533437147e-01       1.472671752334e+03 
       2.443625682930e-01       1.401509093051e+03 
       2.525380679504e-01       1.338401894059e+03 
       2.609898026346e-01       1.270888239327e+03 
       2.697284615565e-01       1.193373796771e+03 
       2.787655775689e-01       1.109327855754e+03 
       2.881136588829e-01       1.028757084113e+03 
       2.977863412677e-01       9.604686124772e+02 
       3.077985646929e-01       9.050106849766e+02 
       3.181667794071e-01       8.561330679143e+02 
       3.289091877812e-01       8.061752729777e+02 
       3.400460299658e-01       7.523803982173e+02 
       3.515999236474e-01       6.989108838685e+02 
       3.635962711085e-01       6.510501609357e+02 
       3.760637506334e-01       6.101100828440e+02 
       3.890349143879e-01       5.721208383062e+02 
       4.025469216825e-01       5.337711081399e+02 
       4.166424456376e-01       4.956210782267e+02 
       4.313708035863e-01       4.604565909909e+02 
       4.467893782977e-01       4.287651504418e+02 
       4.629654199664e-01       3.987620005666e+02 
       4.799783501994e-01       3.692306157432e+02 
       4.979227319373e-01       3.412289636902e+02 
       5.169121270864e-01       3.154731061430e+02 
       5.370841404489e-01       2.908254590744e+02 
       5.586070464571e-01       2.670955031008e+02 
       5.816885094930e-01       2.447998505762e+02 
       6.065870144995e-01       2.235580814103e+02 
       6.336266468475e-01       2.032006773876e+02 
       6.632156059511e-01       1.838690944919e+02 
       6.958678639263e-01       1.653455540638e+02 
       7.322247985589e-01       1.476870429641e+02 
       7.730680195114e-01       1.308254860771e+02 
       8.193049553677e-01       1.148230657684e+02 
       8.718988016039e-01       9.975470278632e+01 
       9.317218031082e-01       8.577011919988e+01 
       9.993660908989e-01       7.304755734951e+01 
       1.075037110174e+00       6.172897925269e+01 
       1.158653485707e+00       5.187230748051e+01 
       1.250099157308e+00       4.343393740944e+01 
       1.349432401273e+00       3.628342723352e+01 
       1.456947457397e+00       3.026250686513e+01 
       1.573135111331e+00       2.520915958457e+01 
       1.698621895592e+00       2.097697510539e+01 
       1.834127512934e+00       1.743764781851e+01 
       1.980444934528e+00       1.448115867389e+01 
       2.138435191726e+00       1.201472787243e+01 
       2.309029199186e+00       9.959235391479e+00 
       2.493232377687e+00       8.248133996117e+00 
       2.692130395285e+00       6.825167677780e+00 
       2.906895534573e+00       5.643010076471e+00 
       3.138793597714e+00       4.661878429044e+00 
       3.389191366484e+00       3.848284401634e+00 
       3.659564657905e+00       3.174314930063e+00 
       3.951507022538e+00       2.616423119242e+00 
       4.266739136701e+00       2.155085908470e+00 
       4.607118943941e+00       1.773819948870e+00 
       4.974652605557e+00       1.459024372643e+00 
       5.371506324689e+00       1.199306748653e+00 
       5.800019113685e+00       9.851806547169e-01 
       6.262716579983e+00       8.087763428616e-01 
       6.762325811764e+00       6.635488111527e-01 
       7.301791451110e+00       5.440694492458e-01 
       7.884293049406e+00       4.458399280290e-01 
       8.513263807261e+00       3.651332880470e-01 
       9.192410809424e+00       2.988634021888e-01 
       9.925736873929e+00       2.444846336189e-01 
       1.071756414427e+01       1.998865495379e-01 
       1.157255956364e+01       1.633340659457e-01 
       1.249576238137e+01       1.333896611010e-01 
       1.349261385375e+01       1.088754303253e-01 
       1.456898931416e+01       8.881725812617e-02 
       1.573123280165e+01       7.241309023717e-02 
       1.698619445202e+01       5.900564880622e-02 
       1.834127087176e+01       4.805194505199e-02 
       1.980444873285e+01       3.910933726652e-02 
       2.138435184532e+01       3.181096279966e-02 
       2.309029198506e+01       2.585845035135e-02 
       2.493232377636e+01       2.100558575913e-02 
       2.692130395282e+01       1.705185577614e-02 
       2.906895534573e+01       1.383208191718e-02 
       3.138793597714e+01       1.121157956750e-02 
       3.389191366484e+01       9.079954034724e-03 
       3.659564657905e+01       7.346947204023e-03 
       3.951507022538e+01       5.939049358561e-03 
       4.266739136701e+01       4.795827427280e-03 
       4.607118943941e+01       3.868058800242e-03 
       4.974652605557e+01       3.115860363561e-03 
       5.371506324689e+01       2.506321967088e-03 
       5.800019113685e+01       2.012927017175e-03 
       6.262716579983e+01       1.613746798483e-03 
       6.762325811764e+01       1.291221952414e-03 
       7.301791451110e+01       1.030859344473e-03 
       7.884293049406e+01       8.209286958834e-04 
       8.513263807261e+01       6.519273251279e-04 
       9.192410809424e+01       5.160822875746e-04 
       9.925736873929e+01       4.070432634024e-04 
       1.071756414427e+02       3.197286659339e-04 
       1.157255956364e+02       2.499668731382e-04 
       1.249576238137e+02       1.943926140978e-04 
       1.349261385375e+02       1.502516949132e-04 
