# Matter power spectrum P(k) at redshift z=99
# for k=1.04775e-05 to 134.926 h/Mpc,
# number of wavenumbers equal to 255
#    1:k (h/Mpc)              2:P (Mpc/h)^3        
       1.047750691338e-05       7.262229793021e-03 
       1.131335172818e-05       7.820658119821e-03 
       1.221587619877e-05       8.422025523446e-03 
       1.319039970550e-05       9.069635836935e-03 
       1.424266598317e-05       9.767043055013e-03 
       1.537887697396e-05       1.051807767602e-02 
       1.660572938097e-05       1.132686268622e-02 
       1.793045413791e-05       1.219783850749e-02 
       1.936085902737e-05       1.313578709752e-02 
       2.090537469909e-05       1.414585828555e-02 
       2.257310435923e-05       1.523359769943e-02 
       2.437387742372e-05       1.640497750954e-02 
       2.631830745176e-05       1.766642927085e-02 
       2.841785470091e-05       1.902487786069e-02 
       3.068489367268e-05       2.048778118332e-02 
       3.313278604643e-05       2.206317104066e-02 
       3.577595943165e-05       2.375969724901e-02 
       3.862999240274e-05       2.558667116489e-02 
       4.171170631739e-05       2.755412347330e-02 
       4.503926445983e-05       2.967285438009e-02 
       4.863227909323e-05       3.195449449490e-02 
       5.251192705226e-05       3.441156764011e-02 
       5.670107455699e-05       3.705756028290e-02 
       6.122441198393e-05       3.990699539247e-02 
       6.610859938837e-05       4.297551144049e-02 
       7.138242363583e-05       4.627994687388e-02 
       7.707696806873e-05       4.983843476427e-02 
       8.322579570814e-05       5.367050034180e-02 
       8.986514707061e-05       5.779716640182e-02 
       9.703415376577e-05       6.224106917424e-02 
       1.047750691338e-04       6.702658270542e-02 
       1.131335172818e-04       7.217994716708e-02 
       1.221587619877e-04       7.772941538840e-02 
       1.319039970550e-04       8.370540531513e-02 
       1.424266598317e-04       9.014066084389e-02 
       1.537887697396e-04       9.707043108386e-02 
       1.660572938097e-04       1.045326595524e-01 
       1.793045413791e-04       1.125681849006e-01 
       1.936085902737e-04       1.212209613677e-01 
       2.090537469909e-04       1.305382895080e-01 
       2.257310435923e-04       1.405710630693e-01 
       2.437387742372e-04       1.513740398680e-01 
       2.631830745176e-04       1.630061208003e-01 
       2.841785470091e-04       1.755306531587e-01 
       3.068489367268e-04       1.890157528853e-01 
       3.313278604643e-04       2.035346432156e-01 
       3.577595943165e-04       2.191660153906e-01 
       3.862999240274e-04       2.359944057244e-01 
       4.171170631739e-04       2.541105951316e-01 
       4.503926445983e-04       2.736120232509e-01 
       4.863227909323e-04       2.946032207827e-01 
       5.251192705226e-04       3.171962467772e-01 
       5.670107455699e-04       3.415111492368e-01 
       6.122441198393e-04       3.676764062470e-01 
       6.610859938837e-04       3.958293916905e-01 
       7.138242363583e-04       4.261167872324e-01 
       7.707696806873e-04       4.586950045680e-01 
       8.322579570814e-04       4.937305361184e-01 
       8.986514707061e-04       5.314002439280e-01 
       9.703415376577e-04       5.718915565418e-01 
       1.047750691338e-03       6.154025296976e-01 
       1.131335172818e-03       6.621417320647e-01 
       1.221587619877e-03       7.123279043705e-01 
       1.319039970550e-03       7.661893213821e-01 
       1.424266598317e-03       8.239705038812e-01 
       1.537887697396e-03       8.859145892123e-01 
       1.660572938097e-03       9.522684794697e-01 
       1.793045413791e-03       1.023284169274e+00 
       1.936085902737e-03       1.099212408272e+00 
       2.090537469909e-03       1.180298013978e+00 
       2.257310435923e-03       1.266773978403e+00 
       2.437387742372e-03       1.358854127601e+00 
       2.631830745176e-03       1.456724198736e+00 
       2.841785470091e-03       1.560531083608e+00 
       3.068489367268e-03       1.670370179579e+00 
       3.313278604643e-03       1.786270867054e+00 
       3.577595943165e-03       1.908180095316e+00 
       3.862999240274e-03       2.035944422775e+00 
       4.171170631739e-03       2.169291427618e+00 
       4.503926445983e-03       2.307810493384e+00 
       4.863227909323e-03       2.450935270064e+00 
       5.251192705226e-03       2.597928745613e+00 
       5.670107455699e-03       2.747871101797e+00 
       6.122441198393e-03       2.899658881922e+00 
       6.610859938837e-03       3.052002989827e+00 
       7.138242363583e-03       3.203439647134e+00 
       7.707696806873e-03       3.352343818172e+00 
       8.322579570814e-03       3.496941635426e+00 
       8.986514707061e-03       3.635320740960e+00 
       9.703415376577e-03       3.765420187796e+00 
       1.047750691338e-02       3.885009950746e+00 
       1.131335172818e-02       3.991644734573e+00 
       1.221587619877e-02       4.082618045412e+00 
       1.319039970550e-02       4.154934262974e+00 
       1.424266598317e-02       4.205320061347e+00 
       1.537887697392e-02       4.230317839874e+00 
       1.660572938023e-02       4.226428336754e+00 
       1.793045412706e-02       4.190314521129e+00 
       1.936085890181e-02       4.118970025001e+00 
       2.090537352463e-02       4.009944065511e+00 
       2.257309535333e-02       3.861578094597e+00 
       2.437382002918e-02       3.673405457836e+00 
       2.631799944462e-02       3.446596560301e+00 
       2.841644545389e-02       3.184360207393e+00 
       3.067933355377e-02       2.892345625988e+00 
       3.311368470740e-02       2.578964538670e+00 
       3.571840443502e-02       2.255653243332e+00 
       3.847720348444e-02       1.936305921272e+00 
       4.135335538431e-02       1.635566436049e+00 
       4.429361667738e-02       1.365590611685e+00 
       4.724366439141e-02       1.133080994321e+00 
       5.016480835311e-02       9.386189676614e-01 
       5.303989620246e-02       7.785359865214e-01 
       5.586870669566e-02       6.473589153531e-01 
       5.866042680613e-02       5.395864664269e-01 
       6.142798932958e-02       4.504187515662e-01 
       6.418496440164e-02       3.759134616630e-01 
       6.694418833788e-02       3.129587147487e-01 
       6.971731106057e-02       2.591739273490e-01 
       7.251476155766e-02       2.127655548837e-01 
       7.534587671527e-02       1.724343660029e-01 
       7.821907666265e-02       1.372783907037e-01 
       8.114203772912e-02       1.067173845279e-01 
       8.412184535029e-02       8.041768649931e-02 
       8.716512279304e-02       5.819599639492e-02 
       9.027813695930e-02       3.994167709889e-02 
       9.346688431697e-02       2.554061345895e-02 
       9.673716028276e-02       1.479793934799e-02 
       1.000946150830e-01       7.390903994350e-03 
       1.035447986537e-01       2.856402327001e-03 
       1.070931966762e-01       6.088624211931e-04 
       1.107452594425e-01       2.096515761422e-08 
       1.145064249153e-01       3.945124083819e-04 
       1.183821370918e-01       1.247614186207e-03 
       1.223778605862e-01       2.162368916836e-03 
       1.264990921987e-01       2.910664570494e-03 
       1.307513701367e-01       3.416009386282e-03 
       1.351402814784e-01       3.707777549946e-03 
       1.396714684203e-01       3.864104417317e-03 
       1.443506338194e-01       3.966365108083e-03 
       1.491835465229e-01       4.065520693673e-03 
       1.541760469708e-01       4.168675226539e-03 
       1.593340535561e-01       4.236373643152e-03 
       1.646635702297e-01       4.194712952957e-03 
       1.701706958456e-01       3.965552857191e-03 
       1.758616357459e-01       3.508239259129e-03 
       1.817427160982e-01       2.853804501794e-03 
       1.878204015065e-01       2.101209970633e-03 
       1.941013164283e-01       1.388446984786e-03 
       2.005922709503e-01       8.292748724030e-04 
       2.073002914972e-01       4.570497671643e-04 
       2.142326570816e-01       2.386456107378e-04 
       2.213969417533e-01       1.207293975879e-04 
       2.288010639706e-01       5.804254946265e-05 
       2.364533437147e-01       2.181448616998e-05 
       2.443625682930e-01       2.466190270511e-06 
       2.525380679504e-01       2.972703651065e-06 
       2.609898026346e-01       2.334484787519e-05 
       2.697284615565e-01       5.213553483677e-05 
       2.787655775689e-01       7.050380357670e-05 
       2.881136588829e-01       6.998452015006e-05 
       2.977863412677e-01       5.870416143324e-05 
       3.077985646929e-01       4.642787929113e-05 
       3.181667794071e-01       3.791398723784e-05 
       3.289091877812e-01       3.132583836302e-05 
       3.400460299658e-01       2.295845819140e-05 
       3.515999236474e-01       1.335655257544e-05 
       3.635962711085e-01       5.456042277189e-06 
       3.760637506334e-01       1.527120074837e-06 
       3.890349143879e-01       2.193631394721e-07 
       4.025469216825e-01       3.345085374729e-09 
       4.166424456376e-01       2.927755202260e-07 
       4.313708035863e-01       8.686804343316e-07 
       4.467893782977e-01       1.291216027685e-06 
       4.629654199664e-01       1.234602452026e-06 
       4.799783501994e-01       9.534679013780e-07 
       4.979227319373e-01       6.964104386676e-07 
       5.169121270864e-01       4.050342505032e-07 
       5.370841404489e-01       1.550543330506e-07 
       5.586070464571e-01       3.726871619544e-08 
       5.816885094930e-01       1.808125583491e-09 
       6.065870144995e-01       4.474405371131e-09 
       6.336266468475e-01       1.277107767721e-08 
       6.632156059511e-01       1.231987430805e-08 
       6.958678639263e-01       5.823492340331e-09 
       7.322247985589e-01       9.615175158055e-10 
       7.730680195114e-01       1.007267313707e-10 
       8.193049553677e-01       9.467423146681e-10 
       8.718988016039e-01       1.120803281252e-09 
       9.317218031082e-01       5.966981599503e-10 
       9.993660908989e-01       1.511639084634e-10 
       1.075037110174e+00       3.183426231219e-11 
       1.158653485707e+00       3.494725409318e-11 
       1.250099157308e+00       3.351181777024e-11 
       1.349432401273e+00       2.425749356930e-11 
       1.456947457397e+00       1.772511822855e-11 
       1.573135111331e+00       1.150227144392e-11 
       1.698621895592e+00       9.276576312411e-12 
       1.834127512934e+00       5.690866828213e-12 
       1.980444934528e+00       4.894200185552e-12 
       2.138435191726e+00       3.282271422540e-12 
       2.309029199186e+00       3.295865102221e-12 
       2.493232377687e+00       2.784929815929e-12 
       2.692130395285e+00       1.818416817153e-12 
       2.906895534573e+00       1.142913643900e-12 
       3.138793597714e+00       6.027920541331e-13 
       3.389191366484e+00       7.871213644317e-13 
       3.659564657905e+00       7.852180678365e-13 
       3.951507022538e+00       1.104737938920e-13 
       4.266739136701e+00       1.010662680071e-13 
       4.607118943941e+00       1.415291763220e-13 
       4.974652605557e+00       9.034591790728e-14 
       5.371506324689e+00       1.673373665460e-13 
       5.800019113685e+00       3.514189160212e-14 
       6.262716579983e+00       8.626561391279e-14 
       6.762325811764e+00       1.447827073981e-12 
       7.301791451110e+00       5.960879508934e-14 
       7.884293049406e+00       5.890504334146e-14 
       8.513263807261e+00       2.864977357170e-15 
       9.192410809424e+00       5.969802510521e-15 
       9.925736873929e+00       4.206677495713e-12 
       1.071756414427e+01       2.128488055299e-16 
       1.157255956364e+01       4.392343388832e-13 
       1.249576238137e+01       6.503853526555e-13 
       1.349261385375e+01       1.496090277831e-13 
       1.456898931416e+01       3.164172276468e-13 
       1.573123280165e+01       1.135299566615e-13 
       1.698619445202e+01       6.508670445788e-13 
       1.834127087176e+01       4.502618732936e-14 
       1.980444873285e+01       1.488756985563e-12 
       2.138435184532e+01       2.220453592924e-14 
       2.309029198506e+01       2.526792155033e-12 
       2.493232377636e+01       4.143007358687e-14 
       2.692130395282e+01       6.392289624967e-13 
       2.906895534573e+01       1.013187054955e-16 
       3.138793597714e+01       1.270849300805e-13 
       3.389191366484e+01       3.549369788431e-12 
       3.659564657905e+01       1.025676997109e-13 
       3.951507022538e+01       1.705316959487e-12 
       4.266739136701e+01       5.214306492377e-12 
       4.607118943941e+01       2.391965570693e-13 
       4.974652605557e+01       5.968919522367e-13 
       5.371506324689e+01       1.576916032084e-14 
       5.800019113685e+01       9.015628510935e-13 
       6.262716579983e+01       1.236060141211e-12 
       6.762325811764e+01       2.071689398580e-15 
       7.301791451110e+01       1.637484618679e-13 
       7.884293049406e+01       9.858081001499e-13 
       8.513263807261e+01       2.022840040358e-15 
       9.192410809424e+01       1.274496028160e-11 
       9.925736873929e+01       6.236932621644e-13 
       1.071756414427e+02       1.756970081971e-12 
       1.157255956364e+02       1.848347796532e-12 
       1.249576238137e+02       2.381434238590e-12 
       1.349261385375e+02       5.669700181543e-13 
