# Matter power spectrum P(k) at redshift z=0
# for k=1.04775e-05 to 134.926 h/Mpc,
# number of wavenumbers equal to 255
#    1:k (h/Mpc)              2:P (Mpc/h)^3        
       1.047750691338e-05       5.020963906804e+01 
       1.131335172818e-05       5.407048937148e+01 
       1.221587619877e-05       5.822820724030e+01 
       1.319039970550e-05       6.270562047253e+01 
       1.424266598317e-05       6.752731476098e+01 
       1.537887697396e-05       7.271975715395e+01 
       1.660572938097e-05       7.831147101245e+01 
       1.793045413791e-05       8.433312302135e+01 
       1.936085902737e-05       9.081780130646e+01 
       2.090537469909e-05       9.780107450147e+01 
       2.257310435923e-05       1.053212938596e+02 
       2.437387742372e-05       1.134197268469e+02 
       2.631830745176e-05       1.221408285627e+02 
       2.841785470091e-05       1.315324590474e+02 
       3.068489367268e-05       1.416461671352e+02 
       3.313278604643e-05       1.525374478917e+02 
       3.577595943165e-05       1.642660517170e+02 
       3.862999240274e-05       1.768963429370e+02 
       4.171170631739e-05       1.904975997819e+02 
       4.503926445983e-05       2.051444243234e+02 
       4.863227909323e-05       2.209171412049e+02 
       5.251192705226e-05       2.379022266149e+02 
       5.670107455699e-05       2.561927841244e+02 
       6.122441198393e-05       2.758890479859e+02 
       6.610859938837e-05       2.970989213987e+02 
       7.138242363583e-05       3.199385559930e+02 
       7.707696806873e-05       3.445329727006e+02 
       8.322579570814e-05       3.710167324009e+02 
       8.986514707061e-05       3.995346444122e+02 
       9.703415376577e-05       4.302425389349e+02 
       1.047750691338e-04       4.633080773458e+02 
       1.131335172818e-04       4.989116271301e+02 
       1.221587619877e-04       5.372471938793e+02 
       1.319039970550e-04       5.785234116869e+02 
       1.424266598317e-04       6.229645933140e+02 
       1.537887697396e-04       6.708118487507e+02 
       1.660572938097e-04       7.223242657763e+02 
       1.793045413791e-04       7.777801571257e+02 
       1.936085902737e-04       8.374783638364e+02 
       2.090537469909e-04       9.017396276626e+02 
       2.257310435923e-04       9.709080297650e+02 
       2.437387742372e-04       1.045352453376e+03 
       2.631830745176e-04       1.125468127720e+03 
       2.841785470091e-04       1.211678185928e+03 
       3.068489367268e-04       1.304435256065e+03 
       3.313278604643e-04       1.404223062921e+03 
       3.577595943165e-04       1.511558029577e+03 
       3.862999240274e-04       1.626990852555e+03 
       4.171170631739e-04       1.751108045602e+03 
       4.503926445983e-04       1.884533404754e+03 
       4.863227909323e-04       2.027929406955e+03 
       5.251192705226e-04       2.181998483912e+03 
       5.670107455699e-04       2.347484146065e+03 
       6.122441198393e-04       2.525171925194e+03 
       6.610859938837e-04       2.715890054977e+03 
       7.138242363583e-04       2.920509779318e+03 
       7.707696806873e-04       3.139945208048e+03 
       8.322579570814e-04       3.375152477014e+03 
       8.986514707061e-04       3.627128020456e+03 
       9.703415376577e-04       3.896905669497e+03 
       1.047750691338e-03       4.185552452602e+03 
       1.131335172818e-03       4.494162775555e+03 
       1.221587619877e-03       4.823851150571e+03 
       1.319039970550e-03       5.175743278679e+03 
       1.424266598317e-03       5.551020298638e+03 
       1.537887697396e-03       5.950789185372e+03 
       1.660572938097e-03       6.376124149971e+03 
       1.793045413791e-03       6.828075236477e+03 
       1.936085902737e-03       7.307627050900e+03 
       2.090537469909e-03       7.815673958842e+03 
       2.257310435923e-03       8.352992922690e+03 
       2.437387742372e-03       8.920214305943e+03 
       2.631830745176e-03       9.517787166135e+03 
       2.841785470091e-03       1.014594130593e+04 
       3.068489367268e-03       1.080465136370e+04 
       3.313278604643e-03       1.149358239357e+04 
       3.577595943165e-03       1.221204586644e+04 
       3.862999240274e-03       1.295893666197e+04 
       4.171170631739e-03       1.373267338211e+04 
       4.503926445983e-03       1.453113499473e+04 
       4.863227909323e-03       1.535157112424e+04 
       5.251192705226e-03       1.619066141409e+04 
       5.670107455699e-03       1.704433879383e+04 
       6.122441198393e-03       1.790758130853e+04 
       6.610859938837e-03       1.877461998361e+04 
       7.138242363583e-03       1.963874671869e+04 
       7.707696806873e-03       2.049217238068e+04 
       8.322579570814e-03       2.132612781356e+04 
       8.986514707061e-03       2.213056827888e+04 
       9.703415376577e-03       2.289447404863e+04 
       1.047750691338e-02       2.360549503184e+04 
       1.131335172818e-02       2.425023959978e+04 
       1.221587619877e-02       2.481424699834e+04 
       1.319039970550e-02       2.528220398251e+04 
       1.424266598317e-02       2.563815251380e+04 
       1.537887697392e-02       2.586608110213e+04 
       1.660572938023e-02       2.595027007965e+04 
       1.793045412706e-02       2.587635529375e+04 
       1.936085890181e-02       2.563219120405e+04 
       2.090537352463e-02       2.520936173159e+04 
       2.257309535333e-02       2.460445290074e+04 
       2.437382002918e-02       2.382086783746e+04 
       2.631799944462e-02       2.287039919554e+04 
       2.841644545389e-02       2.177448736802e+04 
       3.067933355377e-02       2.056556445637e+04 
       3.311368470740e-02       1.928730413727e+04 
       3.571840443502e-02       1.799401713082e+04 
       3.847720348444e-02       1.674683842815e+04 
       4.135335538431e-02       1.560459366996e+04 
       4.429361667738e-02       1.461036208861e+04 
       4.724366439141e-02       1.378053555444e+04 
       5.016480835311e-02       1.310502363437e+04 
       5.303989620246e-02       1.255715188052e+04 
       5.586870669566e-02       1.210422329910e+04 
       5.866042680613e-02       1.171462896330e+04 
       6.142798932958e-02       1.136051890026e+04 
       6.418496440164e-02       1.101859216854e+04 
       6.694418833788e-02       1.067071632828e+04 
       6.971731106057e-02       1.030356538268e+04 
       7.251476155766e-02       9.909031281813e+03 
       7.534587671527e-02       9.483736438657e+03 
       7.821907666265e-02       9.029516487583e+03 
       8.114203772912e-02       8.552296276227e+03 
       8.412184535029e-02       8.061952911178e+03 
       8.716512279304e-02       7.570713049591e+03 
       9.027813695930e-02       7.092441024720e+03 
       9.346688431697e-02       6.640486910202e+03 
       9.673716028276e-02       6.226696963205e+03 
       1.000946150830e-01       5.859883000475e+03 
       1.035447986537e-01       5.545180599962e+03 
       1.070931966762e-01       5.283103693289e+03 
       1.107452594425e-01       5.069378324878e+03 
       1.145064249153e-01       4.895203930675e+03 
       1.183821370918e-01       4.747793628681e+03 
       1.223778605862e-01       4.611695284326e+03 
       1.264990921987e-01       4.470539849754e+03 
       1.307513701367e-01       4.310200780437e+03 
       1.351402814784e-01       4.121319864124e+03 
       1.396714684203e-01       3.902009480211e+03 
       1.443506338194e-01       3.658612490119e+03 
       1.491835465229e-01       3.404443735002e+03 
       1.541760469708e-01       3.156618373562e+03 
       1.593340535561e-01       2.931902171046e+03 
       1.646635702297e-01       2.742311571985e+03 
       1.701706958456e-01       2.592195322397e+03 
       1.758616357459e-01       2.477175841300e+03 
       1.817427160982e-01       2.385119297200e+03 
       1.878204015065e-01       2.300295303400e+03 
       1.941013164283e-01       2.205694263034e+03 
       2.005922709503e-01       2.090748332692e+03 
       2.073002914972e-01       1.956396548204e+03 
       2.142326570816e-01       1.814120753332e+03 
       2.213969417533e-01       1.679216144762e+03 
       2.288010639706e-01       1.563776029650e+03 
       2.364533437147e-01       1.472614070111e+03 
       2.443625682930e-01       1.401453431608e+03 
       2.525380679504e-01       1.338343145950e+03 
       2.609898026346e-01       1.270829906358e+03 
       2.697284615565e-01       1.193312826413e+03 
       2.787655775689e-01       1.109267855447e+03 
       2.881136588829e-01       1.028697044743e+03 
       2.977863412677e-01       9.604078795502e+02 
       3.077985646929e-01       9.049505352197e+02 
       3.181667794071e-01       8.560730752619e+02 
       3.289091877812e-01       8.061140584374e+02 
       3.400460299658e-01       7.523184629747e+02 
       3.515999236474e-01       6.988484392076e+02 
       3.635962711085e-01       6.509884000753e+02 
       3.760637506334e-01       6.100483070130e+02 
       3.890349143879e-01       5.720580329738e+02 
       4.025469216825e-01       5.337080135219e+02 
       4.166424456376e-01       4.955576636543e+02 
       4.313708035863e-01       4.603930678196e+02 
       4.467893782977e-01       4.287021450413e+02 
       4.629654199664e-01       3.986980763694e+02 
       4.799783501994e-01       3.691670428829e+02 
       4.979227319373e-01       3.411650967916e+02 
       5.169121270864e-01       3.154085352054e+02 
       5.370841404489e-01       2.907611982873e+02 
       5.586070464571e-01       2.670313638290e+02 
       5.816885094930e-01       2.447356884883e+02 
       6.065870144995e-01       2.234941672324e+02 
       6.336266468475e-01       2.031369941383e+02 
       6.632156059511e-01       1.838059193313e+02 
       6.958678639263e-01       1.652827625244e+02 
       7.322247985589e-01       1.476242879593e+02 
       7.730680195114e-01       1.307628469217e+02 
       8.193049553677e-01       1.147610358863e+02 
       8.718988016039e-01       9.969337816033e+01 
       9.317218031082e-01       8.570937985692e+01 
       9.993660908989e-01       7.298739849509e+01 
       1.075037110174e+00       6.166976649107e+01 
       1.158653485707e+00       5.181403313626e+01 
       1.250099157308e+00       4.337667431421e+01 
       1.349432401273e+00       3.622734771599e+01 
       1.456947457397e+00       3.020733055551e+01 
       1.573135111331e+00       2.515511463146e+01 
       1.698621895592e+00       2.092439777446e+01 
       1.834127512934e+00       1.738618833876e+01 
       1.980444934528e+00       1.443105190030e+01 
       2.138435191726e+00       1.196607331345e+01 
       2.309029199186e+00       9.911680039291e+00 
       2.493232377687e+00       8.202017885966e+00 
       2.692130395285e+00       6.780452465387e+00 
       2.906895534573e+00       5.599676207640e+00 
       3.138793597714e+00       4.619916082639e+00 
       3.389191366484e+00       3.807724363870e+00 
       3.659564657905e+00       3.135102030248e+00 
       3.951507022538e+00       2.578598270221e+00 
       4.266739136701e+00       2.118607351790e+00 
       4.607118943941e+00       1.738713246564e+00 
       4.974652605557e+00       1.425272917112e+00 
       5.371506324689e+00       1.166884760759e+00 
       5.800019113685e+00       9.540848846851e-01 
       6.262716579983e+00       7.789856640330e-01 
       6.762325811764e+00       6.350539518126e-01 
       7.301791451110e+00       5.168514238255e-01 
       7.884293049406e+00       4.198770884654e-01 
       8.513263807261e+00       3.404056771219e-01 
       9.192410809424e+00       2.753519574872e-01 
       9.925736873929e+00       2.221710343410e-01 
       1.071756414427e+01       1.787501897987e-01 
       1.157255956364e+01       1.433555368018e-01 
       1.249576238137e+01       1.145497987617e-01 
       1.349261385375e+01       9.115381198738e-02 
       1.456898931416e+01       7.219169802125e-02 
       1.573123280165e+01       5.686459686387e-02 
       1.698619445202e+01       4.451090065352e-02 
       1.834127087176e+01       3.459066269466e-02 
       1.980444873285e+01       2.665656561427e-02 
       2.138435184532e+01       2.034306086926e-02 
       2.309029198506e+01       1.534952286903e-02 
       2.493232377636e+01       1.142794452747e-02 
       2.692130395282e+01       8.375445397829e-03 
       2.906895534573e+01       6.024257539526e-03 
       3.138793597714e+01       4.236795605230e-03 
       3.389191366484e+01       2.899465745133e-03 
       3.659564657905e+01       1.918413373251e-03 
       3.951507022538e+01       1.216605089721e-03 
       4.266739136701e+01       7.302890218496e-04 
       4.607118943941e+01       4.070017531806e-04 
       4.974652605557e+01       2.039489093687e-04 
       5.371506324689e+01       8.640439502618e-05 
       5.800019113685e+01       2.674040019681e-05 
       6.262716579983e+01       3.463306128987e-06 
       6.762325811764e+01       4.732777690351e-07 
       7.301791451110e+01       6.417950326003e-06 
       7.884293049406e+01       1.398926641806e-05 
       8.513263807261e+01       1.920519264398e-05 
       9.192410809424e+01       2.064654952283e-05 
       9.925736873929e+01       1.865338952299e-05 
       1.071756414427e+02       1.448921277493e-05 
       1.157255956364e+02       9.671763495148e-06 
       1.249576238137e+02       5.438777767398e-06 
       1.349261385375e+02       2.450334222866e-06 
