# Matter power spectrum P(k) at redshift z=99
# for k=1.04775e-05 to 134.926 h/Mpc,
# number of wavenumbers equal to 255
#    1:k (h/Mpc)              2:P (Mpc/h)^3        
       1.047750691338e-05       7.261930162210e-03 
       1.131335172818e-05       7.820335453569e-03 
       1.221587619877e-05       8.421678936428e-03 
       1.319039970550e-05       9.069261565064e-03 
       1.424266598317e-05       9.766640568815e-03 
       1.537887697396e-05       1.051764416978e-02 
       1.660572938097e-05       1.132639729517e-02 
       1.793045413791e-05       1.219733716295e-02 
       1.936085902737e-05       1.313524719312e-02 
       2.090537469909e-05       1.414527682038e-02 
       2.257310435923e-05       1.523297160904e-02 
       2.437387742372e-05       1.640430346028e-02 
       2.631830745176e-05       1.766570347085e-02 
       2.841785470091e-05       1.902409512199e-02 
       3.068489367268e-05       2.048693829916e-02 
       3.313278604643e-05       2.206226394747e-02 
       3.577595943165e-05       2.375871884937e-02 
       3.862999240274e-05       2.558561746916e-02 
       4.171170631739e-05       2.755298826641e-02 
       4.503926445983e-05       2.967163159155e-02 
       4.863227909323e-05       3.195317742900e-02 
       5.251192705226e-05       3.441014944769e-02 
       5.670107455699e-05       3.705603326972e-02 
       6.122441198393e-05       3.990535066692e-02 
       6.610859938837e-05       4.297374066032e-02 
       7.138242363583e-05       4.627804053072e-02 
       7.707696806873e-05       4.983638278944e-02 
       8.322579570814e-05       5.366829052977e-02 
       8.986514707061e-05       5.779478774803e-02 
       9.703415376577e-05       6.223850878300e-02 
       1.047750691338e-04       6.702382642125e-02 
       1.131335172818e-04       7.217697985870e-02 
       1.221587619877e-04       7.772622286793e-02 
       1.319039970550e-04       8.370196890579e-02 
       1.424266598317e-04       9.013696279934e-02 
       1.537887697396e-04       9.706645191818e-02 
       1.660572938097e-04       1.045283780997e-01 
       1.793045413791e-04       1.125635800364e-01 
       1.936085902737e-04       1.212160098408e-01 
       2.090537469909e-04       1.305329652358e-01 
       2.257310435923e-04       1.405653404455e-01 
       2.437387742372e-04       1.513678903465e-01 
       2.631830745176e-04       1.629995152027e-01 
       2.841785470091e-04       1.755235608451e-01 
       3.068489367268e-04       1.890081425019e-01 
       3.313278604643e-04       2.035264810679e-01 
       3.577595943165e-04       2.191572672364e-01 
       3.862999240274e-04       2.359850381002e-01 
       4.171170631739e-04       2.541005737253e-01 
       4.503926445983e-04       2.736013154751e-01 
       4.863227909323e-04       2.945917942573e-01 
       5.251192705226e-04       3.171840751819e-01 
       5.670107455699e-04       3.414982091367e-01 
       6.122441198393e-04       3.676626818529e-01 
       6.610859938837e-04       3.958148755387e-01 
       7.138242363583e-04       4.261014893756e-01 
       7.707696806873e-04       4.586789519441e-01 
       8.322579570814e-04       4.937137822530e-01 
       8.986514707061e-04       5.313828729373e-01 
       9.703415376577e-04       5.718736998552e-01 
       1.047750691338e-03       6.153843774056e-01 
       1.131335172818e-03       6.621235471741e-01 
       1.221587619877e-03       7.123100554854e-01 
       1.319039970550e-03       7.661722986013e-01 
       1.424266598317e-03       8.239548784528e-01 
       1.537887697396e-03       8.859013664396e-01 
       1.660572938097e-03       9.522590443055e-01 
       1.793045413791e-03       1.023280314672e+00 
       1.936085902737e-03       1.099216472947e+00 
       2.090537469909e-03       1.180313074137e+00 
       2.257310435923e-03       1.266804076333e+00 
       2.437387742372e-03       1.358904634533e+00 
       2.631830745176e-03       1.456802207184e+00 
       2.841785470091e-03       1.560646048920e+00 
       3.068489367268e-03       1.670534705477e+00 
       3.313278604643e-03       1.786501733491e+00 
       3.577595943165e-03       1.908499796136e+00 
       3.862999240274e-03       2.036383205668e+00 
       4.171170631739e-03       2.169889650321e+00 
       4.503926445983e-03       2.308622529190e+00 
       4.863227909323e-03       2.452034026989e+00 
       5.251192705226e-03       2.599412064848e+00 
       5.670107455699e-03       2.749869900345e+00 
       6.122441198393e-03       2.902347741720e+00 
       6.610859938837e-03       3.055614445335e+00 
       7.138242363583e-03       3.208281739153e+00 
       7.707696806873e-03       3.358820941108e+00 
       8.322579570814e-03       3.505585531911e+00 
       8.986514707061e-03       3.646820513154e+00 
       9.703415376577e-03       3.780668688049e+00 
       1.047750691338e-02       3.905148885198e+00 
       1.131335172818e-02       4.018132045517e+00 
       1.221587619877e-02       4.117295985517e+00 
       1.319039970550e-02       4.200116517098e+00 
       1.424266598317e-02       4.263890726751e+00 
       1.537887697392e-02       4.305842264931e+00 
       1.660572938023e-02       4.323270919675e+00 
       1.793045412706e-02       4.313739777145e+00 
       1.936085890181e-02       4.275243026203e+00 
       2.090537352463e-02       4.206379662038e+00 
       2.257309535333e-02       4.106561947583e+00 
       2.437382002918e-02       3.976294054858e+00 
       2.631799944462e-02       3.817488762855e+00 
       2.841644545389e-02       3.633748503211e+00 
       3.067933355377e-02       3.430465919252e+00 
       3.311368470740e-02       3.214953619006e+00 
       3.571840443502e-02       2.996310960773e+00 
       3.847720348444e-02       2.784814401496e+00 
       4.135335538431e-02       2.590409612780e+00 
       4.429361667738e-02       2.420389887930e+00 
       4.724366439141e-02       2.277674843439e+00 
       5.016480835311e-02       2.160711160808e+00 
       5.303989620246e-02       2.065178565370e+00 
       5.586870669566e-02       1.985587905748e+00 
       5.866042680613e-02       1.916696951910e+00 
       6.142798932958e-02       1.853884481266e+00 
       6.418496440164e-02       1.793311577571e+00 
       6.694418833788e-02       1.731940827583e+00 
       6.971731106057e-02       1.667566035510e+00 
       7.251476155766e-02       1.598815261299e+00 
       7.534587671527e-02       1.525144954990e+00 
       7.821907666265e-02       1.446817332695e+00 
       8.114203772912e-02       1.364822013622e+00 
       8.412184535029e-02       1.280749911764e+00 
       8.716512279304e-02       1.196622861712e+00 
       9.027813695930e-02       1.114665371841e+00 
       9.346688431697e-02       1.037064604771e+00 
       9.673716028276e-02       9.657238568753e-01 
       1.000946150830e-01       9.020841412698e-01 
       1.035447986537e-01       8.469293419801e-01 
       1.070931966762e-01       8.003262025420e-01 
       1.107452594425e-01       7.615862206498e-01 
       1.145064249153e-01       7.293009015289e-01 
       1.183821370918e-01       7.014495858281e-01 
       1.223778605862e-01       6.755986936086e-01 
       1.264990921987e-01       6.492167700430e-01 
       1.307513701367e-01       6.200928556793e-01 
       1.351402814784e-01       5.867966163736e-01 
       1.396714684203e-01       5.490447224060e-01 
       1.443506338194e-01       5.078238801682e-01 
       1.491835465229e-01       4.651877959358e-01 
       1.541760469708e-01       4.237420223347e-01 
       1.593340535561e-01       3.859949407662e-01 
       1.646635702297e-01       3.537126157963e-01 
       1.701706958456e-01       3.275012251357e-01 
       1.758616357459e-01       3.066900416273e-01 
       1.817427160982e-01       2.895004990711e-01 
       1.878204015065e-01       2.736980730746e-01 
       1.941013164283e-01       2.568981200097e-01 
       2.005922709503e-01       2.376365155380e-01 
       2.073002914972e-01       2.160611980679e-01 
       2.142326570816e-01       1.937567922150e-01 
       2.213969417533e-01       1.727850295976e-01 
       2.288010639706e-01       1.547060270398e-01 
       2.364533437147e-01       1.400971850064e-01 
       2.443625682930e-01       1.283677670088e-01 
       2.525380679504e-01       1.180165074294e-01 
       2.609898026346e-01       1.075279677607e-01 
       2.697284615565e-01       9.624556917014e-02 
       2.787655775689e-01       8.458602152336e-02 
       2.881136588829e-01       7.368245537966e-02 
       2.977863412677e-01       6.447353528226e-02 
       3.077985646929e-01       5.697208031143e-02 
       3.181667794071e-01       5.049826298197e-02 
       3.289091877812e-01       4.427222793142e-02 
       3.400460299658e-01       3.802999022598e-02 
       3.515999236474e-01       3.215365045916e-02 
       3.635962711085e-01       2.708727416491e-02 
       3.760637506334e-01       2.290362066918e-02 
       3.890349143879e-01       1.925418211311e-02 
       4.025469216825e-01       1.587146724764e-02 
       4.166424456376e-01       1.278416363601e-02 
       4.313708035863e-01       1.015879548061e-02 
       4.467893782977e-01       7.995009528109e-03 
       4.629654199664e-01       6.163682996529e-03 
       4.799783501994e-01       4.582993023920e-03 
       4.979227319373e-01       3.283750528568e-03 
       5.169121270864e-01       2.270173167040e-03 
       5.370841404489e-01       1.475670242756e-03 
       5.586070464571e-01       8.736096573332e-04 
       5.816885094930e-01       4.543529947893e-04 
       6.065870144995e-01       1.856629496209e-04 
       6.336266468475e-01       4.195572179054e-05 
       6.632156059511e-01       3.210883982354e-11 
       6.958678639263e-01       3.342682737392e-05 
       7.322247985589e-01       1.158420107779e-04 
       7.730680195114e-01       2.206287937233e-04 
       8.193049553677e-01       3.207060075080e-04 
       8.718988016039e-01       3.921181528054e-04 
       9.317218031082e-01       4.171227728509e-04 
       9.993660908989e-01       3.904002188125e-04 
       1.075037110174e+00       3.215386223460e-04 
       1.158653485707e+00       2.314194372595e-04 
       1.250099157308e+00       1.430282012131e-04 
       1.349432401273e+00       7.315457107062e-05 
       1.456947457397e+00       2.844421613694e-05 
       1.573135111331e+00       6.586901669548e-06 
       1.698621895592e+00       1.816321537465e-07 
       1.834127512934e+00       1.024665557107e-06 
       1.980444934528e+00       3.139377103249e-06 
       2.138435191726e+00       3.820458975167e-06 
       2.309029199186e+00       2.957129000577e-06 
       2.493232377687e+00       1.560941986451e-06 
       2.692130395285e+00       5.124669287967e-07 
       2.906895534573e+00       6.353928168940e-08 
       3.138793597714e+00       4.185774209346e-09 
       3.389191366484e+00       4.694358945225e-08 
       3.659564657905e+00       5.429123494609e-08 
       3.951507022538e+00       2.851692374507e-08 
       4.266739136701e+00       6.665329813950e-09 
       4.607118943941e+00       1.528594929997e-10 
       4.974652605557e+00       4.912715249496e-10 
       5.371506324689e+00       6.887670295382e-10 
       5.800019113685e+00       2.144476979937e-10 
       6.262716579983e+00       3.353386519945e-12 
       6.762325811764e+00       2.288688349595e-11 
       7.301791451110e+00       2.703433333490e-11 
       7.884293049406e+00       8.539350856580e-12 
       8.513263807261e+00       1.050841131745e-12 
       9.192410809424e+00       2.069457671830e-13 
       9.925736873929e+00       4.074783555731e-13 
       1.071756414427e+01       6.495341900615e-13 
       1.157255956364e+01       5.779732350814e-13 
       1.249576238137e+01       3.524071037874e-13 
       1.349261385375e+01       2.226545469572e-13 
       1.456898931416e+01       1.761238936718e-13 
       1.573123280165e+01       1.453269672589e-13 
       1.698619445202e+01       9.828795767043e-14 
       1.834127087176e+01       6.662604487367e-14 
       1.980444873285e+01       4.560926831253e-14 
       2.138435184532e+01       3.491283206981e-14 
       2.309029198506e+01       2.398654317032e-14 
       2.493232377636e+01       1.123685136567e-14 
       2.692130395282e+01       9.637003408883e-15 
       2.906895534573e+01       9.234276058279e-15 
       3.138793597714e+01       7.791277235844e-15 
       3.389191366484e+01       4.986025135440e-15 
       3.659564657905e+01       3.033476415020e-15 
       3.951507022538e+01       2.455458966795e-15 
       4.266739136701e+01       2.916825451585e-15 
       4.607118943941e+01       2.567278553108e-15 
       4.974652605557e+01       1.991009481431e-15 
       5.371506324689e+01       4.479487877581e-14 
       5.800019113685e+01       1.156768844061e-18 
       6.262716579983e+01       1.660631372323e-16 
       6.762325811764e+01       3.524494022759e-16 
       7.301791451110e+01       3.323790612877e-16 
       7.884293049406e+01       4.004465475881e-18 
       8.513263807261e+01       1.996086713039e-17 
       9.192410809424e+01       2.275447778599e-17 
       9.925736873929e+01       1.281999604298e-17 
       1.071756414427e+02       2.332870376367e-18 
       1.157255956364e+02       1.262580711105e-20 
       1.249576238137e+02       9.130513688769e-18 
       1.349261385375e+02       3.269455308947e-18 
