# Matter power spectrum P(k) at redshift z=99
# for k=1.04775e-05 to 134.926 h/Mpc,
# number of wavenumbers equal to 255
#    1:k (h/Mpc)              2:P (Mpc/h)^3        
       1.047750691338e-05       7.262564870938e-03 
       1.131335172818e-05       7.821018443786e-03 
       1.221587619877e-05       8.422414347575e-03 
       1.319039970550e-05       9.070053984885e-03 
       1.424266598317e-05       9.767494071116e-03 
       1.537887697396e-05       1.051856306253e-02 
       1.660572938097e-05       1.132738415116e-02 
       1.793045413791e-05       1.219840214717e-02 
       1.936085902737e-05       1.313639215934e-02 
       2.090537469909e-05       1.414651173563e-02 
       2.257310435923e-05       1.523429946605e-02 
       2.437387742372e-05       1.640573329125e-02 
       2.631830745176e-05       1.766724260921e-02 
       2.841785470091e-05       1.902575544262e-02 
       3.068489367268e-05       2.048872448250e-02 
       3.313278604643e-05       2.206418862924e-02 
       3.577595943165e-05       2.376079181977e-02 
       3.862999240274e-05       2.558784869370e-02 
       4.171170631739e-05       2.755539222406e-02 
       4.503926445983e-05       2.967422099318e-02 
       4.863227909323e-05       3.195596584813e-02 
       5.251192705226e-05       3.441315177725e-02 
       5.670107455699e-05       3.705926582504e-02 
       6.122441198393e-05       3.990883193567e-02 
       6.610859938837e-05       4.297748849567e-02 
       7.138242363583e-05       4.628207582108e-02 
       7.707696806873e-05       4.984072731364e-02 
       8.322579570814e-05       5.367296866338e-02 
       8.986514707061e-05       5.779982364285e-02 
       9.703415376577e-05       6.224393066790e-02 
       1.047750691338e-04       6.702966231356e-02 
       1.131335172818e-04       7.218326210629e-02 
       1.221587619877e-04       7.773298378860e-02 
       1.319039970550e-04       8.370924557346e-02 
       1.424266598317e-04       9.014479269855e-02 
       1.537887697396e-04       9.707487704676e-02 
       1.660572938097e-04       1.045374423998e-01 
       1.793045413791e-04       1.125733301004e-01 
       1.936085902737e-04       1.212264950883e-01 
       2.090537469909e-04       1.305442388807e-01 
       2.257310435923e-04       1.405774583546e-01 
       2.437387742372e-04       1.513809116929e-01 
       2.631830745176e-04       1.630135016711e-01 
       2.841785470091e-04       1.755385786501e-01 
       3.068489367268e-04       1.890242592513e-01 
       3.313278604643e-04       2.035437665258e-01 
       3.577595943165e-04       2.191757928409e-01 
       3.862999240274e-04       2.360048770454e-01 
       4.171170631739e-04       2.541217982231e-01 
       4.503926445983e-04       2.736239958215e-01 
       4.863227909323e-04       2.946159969979e-01 
       5.251192705226e-04       3.172098603469e-01 
       5.670107455699e-04       3.415256247820e-01 
       6.122441198393e-04       3.676917653244e-01 
       6.610859938837e-04       3.958456380017e-01 
       7.138242363583e-04       4.261339151933e-01 
       7.707696806873e-04       4.587129859203e-01 
       8.322579570814e-04       4.937493146634e-01 
       8.986514707061e-04       5.314197278726e-01 
       9.703415376577e-04       5.719116048044e-01 
       1.047750691338e-03       6.154229364091e-01 
       1.131335172818e-03       6.621622092072e-01 
       1.221587619877e-03       7.123480553510e-01 
       1.319039970550e-03       7.662086040744e-01 
       1.424266598317e-03       8.239881658162e-01 
       1.537887697396e-03       8.859296476019e-01 
       1.660572938097e-03       9.522796557364e-01 
       1.793045413791e-03       1.023289768310e+00 
       1.936085902737e-03       1.099210185114e+00 
       2.090537469909e-03       1.180284988586e+00 
       2.257310435923e-03       1.266746227007e+00 
       2.437387742372e-03       1.358806456177e+00 
       2.631830745176e-03       1.456649753144e+00 
       2.841785470091e-03       1.560420694282e+00 
       3.068489367268e-03       1.670211766836e+00 
       3.313278604643e-03       1.786048327311e+00 
       3.577595943165e-03       1.907871866767e+00 
       3.862999240274e-03       2.035521963563e+00 
       4.171170631739e-03       2.168716355239e+00 
       4.503926445983e-03       2.307031722796e+00 
       4.863227909323e-03       2.449884493473e+00 
       5.251192705226e-03       2.596514891854e+00 
       5.670107455699e-03       2.745972565225e+00 
       6.122441198393e-03       2.897113969226e+00 
       6.610859938837e-03       3.048598488458e+00 
       7.138242363583e-03       3.198895087271e+00 
       7.707696806873e-03       3.346290841646e+00 
       8.322579570814e-03       3.488903169137e+00 
       8.986514707061e-03       3.624679909649e+00 
       9.703415376577e-03       3.751388840231e+00 
       1.047750691338e-02       3.866586331885e+00 
       1.131335172818e-02       3.967569506303e+00 
       1.221587619877e-02       4.051317869541e+00 
       1.319039970550e-02       4.114463586943e+00 
       1.424266598317e-02       4.153303435131e+00 
       1.537887697392e-02       4.163870810747e+00 
       1.660572938023e-02       4.142112267263e+00 
       1.793045412706e-02       4.084092041863e+00 
       1.936085890181e-02       3.986220058934e+00 
       2.090537352463e-02       3.845504666758e+00 
       2.257309535333e-02       3.659917583355e+00 
       2.437382002918e-02       3.428867311536e+00 
       2.631799944462e-02       3.153813988087e+00 
       2.841644545389e-02       2.838907429614e+00 
       3.067933355377e-02       2.491561629211e+00 
       3.311368470740e-02       2.123020169152e+00 
       3.571840443502e-02       1.748623257307e+00 
       3.847720348444e-02       1.386999390734e+00 
       4.135335538431e-02       1.057360450247e+00 
       4.429361667738e-02       7.749199449953e-01 
       4.724366439141e-02       5.468922218874e-01 
       5.016480835311e-02       3.720100696730e-01 
       5.303989620246e-02       2.434425616858e-01 
       5.586870669566e-02       1.523506237277e-01 
       5.866042680613e-02       9.014110791484e-02 
       6.142798932958e-02       4.943052821251e-02 
       6.418496440164e-02       2.423038083474e-02 
       6.694418833788e-02       9.853828782348e-03 
       6.971731106057e-02       2.724662171908e-03 
       7.251476155766e-02       1.830159996423e-04 
       7.534587671527e-02       3.118005703842e-04 
       7.821907666265e-02       1.784977701140e-03 
       8.114203772912e-02       3.733974337532e-03 
       8.412184535029e-02       5.634073366719e-03 
       8.716512279304e-02       7.205374276362e-03 
       9.027813695930e-02       8.333139079178e-03 
       9.346688431697e-02       9.002244197281e-03 
       9.673716028276e-02       9.250618640852e-03 
       1.000946150830e-01       9.136159760065e-03 
       1.035447986537e-01       8.718925040844e-03 
       1.070931966762e-01       8.051576176224e-03 
       1.107452594425e-01       7.181782361725e-03 
       1.145064249153e-01       6.156263325663e-03 
       1.183821370918e-01       5.028285437294e-03 
       1.223778605862e-01       3.863505462784e-03 
       1.264990921987e-01       2.739874377500e-03 
       1.307513701367e-01       1.741079751424e-03 
       1.351402814784e-01       9.413617152432e-04 
       1.396714684203e-01       3.880356404485e-04 
       1.443506338194e-01       8.711139868050e-05 
       1.491835465229e-01       2.039931481603e-08 
       1.541760469708e-01       5.464777240451e-05 
       1.593340535561e-01       1.676058360231e-04 
       1.646635702297e-01       2.690624249791e-04 
       1.701706958456e-01       3.200196356524e-04 
       1.758616357459e-01       3.146177177179e-04 
       1.817427160982e-01       2.695604326199e-04 
       1.878204015065e-01       2.082086225677e-04 
       1.941013164283e-01       1.499730888276e-04 
       2.005922709503e-01       1.011517141605e-04 
       2.073002914972e-01       6.297248883951e-05 
       2.142326570816e-01       3.504523562040e-05 
       2.213969417533e-01       1.557375672873e-05 
       2.288010639706e-01       3.685260874788e-06 
       2.364533437147e-01       2.465989740090e-09 
       2.443625682930e-01       2.960075456379e-06 
       2.525380679504e-01       8.594284316444e-06 
       2.609898026346e-01       1.257692953434e-05 
       2.697284615565e-01       1.223831782908e-05 
       2.787655775689e-01       9.017122711819e-06 
       2.881136588829e-01       5.412760027949e-06 
       2.977863412677e-01       2.650145047581e-06 
       3.077985646929e-01       1.124332782900e-06 
       3.181667794071e-01       3.350079803589e-07 
       3.289091877812e-01       1.741636200349e-08 
       3.400460299658e-01       5.975802691757e-08 
       3.515999236474e-01       2.896014653688e-07 
       3.635962711085e-01       4.015262695129e-07 
       3.760637506334e-01       3.359914153136e-07 
       3.890349143879e-01       1.685944841978e-07 
       4.025469216825e-01       6.179793319198e-08 
       4.166424456376e-01       9.274636853032e-09 
       4.313708035863e-01       1.711953635933e-10 
       4.467893782977e-01       1.168522978917e-08 
       4.629654199664e-01       2.522142008119e-08 
       4.799783501994e-01       2.286807111455e-08 
       4.979227319373e-01       1.360062405069e-08 
       5.169121270864e-01       5.244126771711e-09 
       5.370841404489e-01       8.485024695024e-10 
       5.586070464571e-01       1.226535145176e-11 
       5.816885094930e-01       2.482012664515e-10 
       6.065870144995e-01       1.380352398931e-10 
       6.336266468475e-01       2.896273008380e-14 
       6.632156059511e-01       1.359992484478e-10 
       6.958678639263e-01       3.470915446176e-10 
       7.322247985589e-01       2.305279499911e-10 
       7.730680195114e-01       1.172154509035e-10 
       8.193049553677e-01       1.126907171360e-11 
       8.718988016039e-01       4.606315529596e-12 
       9.317218031082e-01       2.226945473743e-11 
       9.993660908989e-01       2.623675969734e-11 
       1.075037110174e+00       9.251990674715e-12 
       1.158653485707e+00       2.860061249434e-12 
       1.250099157308e+00       6.781290726802e-12 
       1.349432401273e+00       1.994809656511e-12 
       1.456947457397e+00       7.727267754824e-14 
       1.573135111331e+00       7.808206340435e-16 
       1.698621895592e+00       1.523246129215e-12 
       1.834127512934e+00       5.988081805243e-12 
       1.980444934528e+00       2.148828802175e-12 
       2.138435191726e+00       3.368845307257e-17 
       2.309029199186e+00       1.079699928584e-12 
       2.493232377687e+00       3.056375768258e-13 
       2.692130395285e+00       3.404110285102e-12 
       2.906895534573e+00       2.182607899603e-12 
       3.138793597714e+00       7.764340344299e-14 
       3.389191366484e+00       1.830897005384e-12 
       3.659564657905e+00       3.484289552807e-13 
       3.951507022538e+00       1.181216425739e-13 
       4.266739136701e+00       1.684015758690e-11 
       4.607118943941e+00       7.292408837263e-11 
       4.974652605557e+00       1.162944289342e-11 
       5.371506324689e+00       1.447105905867e-12 
       5.800019113685e+00       2.031711595788e-13 
       6.262716579983e+00       8.254097327198e-12 
       6.762325811764e+00       1.111686956550e-11 
       7.301791451110e+00       1.847527794176e-12 
       7.884293049406e+00       7.203072939577e-14 
       8.513263807261e+00       1.485477892954e-11 
       9.192410809424e+00       1.903508105866e-13 
       9.925736873929e+00       1.017873406137e-11 
       1.071756414427e+01       2.145964402097e-11 
       1.157255956364e+01       2.230502405159e-11 
       1.249576238137e+01       1.480602296346e-11 
       1.349261385375e+01       3.465687614572e-12 
       1.456898931416e+01       1.696598831760e-11 
       1.573123280165e+01       3.560286073012e-10 
       1.698619445202e+01       4.524240243004e-11 
       1.834127087176e+01       5.619579638327e-11 
       1.980444873285e+01       2.097354146614e-11 
       2.138435184532e+01       1.152155185440e-11 
       2.309029198506e+01       2.987178542373e-12 
       2.493232377636e+01       4.236171447825e-11 
       2.692130395282e+01       2.251475370067e-10 
       2.906895534573e+01       2.155700662221e-11 
       3.138793597714e+01       2.347128052694e-10 
       3.389191366484e+01       6.207659089065e-13 
       3.659564657905e+01       5.275614776447e-10 
       3.951507022538e+01       1.631714891994e-12 
       4.266739136701e+01       1.687845202521e-11 
       4.607118943941e+01       1.185168779069e-10 
       4.974652605557e+01       5.543047554020e-11 
       5.371506324689e+01       1.381979095116e-10 
       5.800019113685e+01       1.138357621253e-11 
       6.262716579983e+01       4.427321841482e-10 
       6.762325811764e+01       5.140846972702e-11 
       7.301791451110e+01       5.450310201110e-11 
       7.884293049406e+01       1.519568646044e-11 
       8.513263807261e+01       2.873114062772e-12 
       9.192410809424e+01       6.140737958329e-12 
       9.925736873929e+01       5.755687155070e-12 
       1.071756414427e+02       2.148614880372e-12 
       1.157255956364e+02       1.639151800795e-12 
       1.249576238137e+02       8.835719476033e-14 
       1.349261385375e+02       4.275947843985e-15 
