# Matter power spectrum P(k) at redshift z=99
# for k=1.04775e-05 to 134.926 h/Mpc,
# number of wavenumbers equal to 255
#    1:k (h/Mpc)              2:P (Mpc/h)^3        
       1.047750691338e-05       7.262961873748e-03 
       1.131335172818e-05       7.821446373940e-03 
       1.221587619877e-05       8.422878039916e-03 
       1.319039970550e-05       9.070552112525e-03 
       1.424266598317e-05       9.768029734238e-03 
       1.537887697396e-05       1.051914032405e-02 
       1.660572938097e-05       1.132800570777e-02 
       1.793045413791e-05       1.219906924416e-02 
       1.936085902737e-05       1.313711275173e-02 
       2.090537469909e-05       1.414728684547e-02 
       2.257310435923e-05       1.523513550808e-02 
       2.437387742372e-05       1.640663389420e-02 
       2.631830745176e-05       1.766821217078e-02 
       2.841785470091e-05       1.902679752660e-02 
       3.068489367268e-05       2.048984842865e-02 
       3.313278604643e-05       2.206539733453e-02 
       3.577595943165e-05       2.376209359339e-02 
       3.862999240274e-05       2.558925217455e-02 
       4.171170631739e-05       2.755690434146e-02 
       4.503926445983e-05       2.967584856981e-02 
       4.863227909323e-05       3.195771792875e-02 
       5.251192705226e-05       3.441503930027e-02 
       5.670107455699e-05       3.706129767394e-02 
       6.122441198393e-05       3.991101932652e-02 
       6.610859938837e-05       4.297984461873e-02 
       7.138242363583e-05       4.628461188703e-02 
       7.707696806873e-05       4.984345854713e-02 
       8.322579570814e-05       5.367590887617e-02 
       8.986514707061e-05       5.780299000008e-02 
       9.703415376577e-05       6.224733879069e-02 
       1.047750691338e-04       6.703333190469e-02 
       1.131335172818e-04       7.218721164099e-02 
       1.221587619877e-04       7.773723512275e-02 
       1.319039970550e-04       8.371382104828e-02 
       1.424266598317e-04       9.014971714653e-02 
       1.537887697396e-04       9.708017600215e-02 
       1.660572938097e-04       1.045431425011e-01 
       1.793045413791e-04       1.125794613132e-01 
       1.936085902737e-04       1.212330891349e-01 
       2.090537469909e-04       1.305513287346e-01 
       2.257310435923e-04       1.405850791232e-01 
       2.437387742372e-04       1.513891019932e-01 
       2.631830745176e-04       1.630222998527e-01 
       2.841785470091e-04       1.755480254874e-01 
       3.068489367268e-04       1.890343969533e-01 
       3.313278604643e-04       2.035546404614e-01 
       3.577595943165e-04       2.191874484257e-01 
       3.862999240274e-04       2.360173590240e-01 
       4.171170631739e-04       2.541351538569e-01 
       4.503926445983e-04       2.736382700073e-01 
       4.863227909323e-04       2.946312308217e-01 
       5.251192705226e-04       3.172260941153e-01 
       5.670107455699e-04       3.415428908295e-01 
       6.122441198393e-04       3.677100859086e-01 
       6.610859938837e-04       3.958650237362e-01 
       7.138242363583e-04       4.261543581829e-01 
       7.707696806873e-04       4.587344540539e-01 
       8.322579570814e-04       4.937717446335e-01 
       8.986514707061e-04       5.314430150713e-01 
       9.703415376577e-04       5.719355772650e-01 
       1.047750691338e-03       6.154473610510e-01 
       1.131335172818e-03       6.621867499238e-01 
       1.221587619877e-03       7.123722505759e-01 
       1.319039970550e-03       7.662318184769e-01 
       1.424266598317e-03       8.240095419239e-01 
       1.537887697396e-03       8.859480490222e-01 
       1.660572938097e-03       9.522936007487e-01 
       1.793045413791e-03       1.023297261376e+00 
       1.936085902737e-03       1.099208609968e+00 
       2.090537469909e-03       1.180270886530e+00 
       2.257310435923e-03       1.266714941077e+00 
       2.437387742372e-03       1.358752137615e+00 
       2.631830745176e-03       1.456564298989e+00 
       2.841785470091e-03       1.560293609366e+00 
       3.068489367268e-03       1.670029063157e+00 
       3.313278604643e-03       1.785791382247e+00 
       3.577595943165e-03       1.907516091113e+00 
       3.862999240274e-03       2.035034489395e+00 
       4.171170631739e-03       2.168053299064e+00 
       4.503926445983e-03       2.306134574332e+00 
       4.863227909323e-03       2.448675446093e+00 
       5.251192705226e-03       2.594890240966e+00 
       5.670107455699e-03       2.743794606624e+00 
       6.122441198393e-03       2.894200333896e+00 
       6.610859938837e-03       3.044709332325e+00 
       7.138242363583e-03       3.193713844242e+00 
       7.707696806873e-03       3.339408317767e+00 
       8.322579570814e-03       3.479786552967e+00 
       8.986514707061e-03       3.612647194708e+00 
       9.703415376577e-03       3.735570147043e+00 
       1.047750691338e-02       3.845890218453e+00 
       1.131335172818e-02       3.940627242711e+00 
       1.221587619877e-02       4.016444562734e+00 
       1.319039970550e-02       4.069596908631e+00 
       1.424266598317e-02       4.095950763096e+00 
       1.537887697392e-02       4.091066156976e+00 
       1.660572938023e-02       4.050392637411e+00 
       1.793045412706e-02       3.969493904385e+00 
       1.936085890181e-02       3.844358623787e+00 
       2.090537352463e-02       3.671725483432e+00 
       2.257309535333e-02       3.449579582045e+00 
       2.437382002918e-02       3.177730729722e+00 
       2.631799944462e-02       2.858735149947e+00 
       2.841644545389e-02       2.498604712414e+00 
       3.067933355377e-02       2.107783113073e+00 
       3.311368470740e-02       1.701680189558e+00 
       3.571840443502e-02       1.300872267012e+00 
       3.847720348444e-02       9.294467134922e-01 
       4.135335538431e-02       6.108168935945e-01 
       4.429361667738e-02       3.612737902439e-01 
       4.724366439141e-02       1.852223175309e-01 
       5.016480835311e-02       7.570648953020e-02 
       5.303989620246e-02       1.917570247058e-02 
       5.586870669566e-02       4.638032785129e-04 
       5.866042680613e-02       5.719143333385e-03 
       6.142798932958e-02       2.355429875687e-02 
       6.418496440164e-02       4.525812253740e-02 
       6.694418833788e-02       6.468097813939e-02 
       6.971731106057e-02       7.795048356719e-02 
       7.251476155766e-02       8.323688953029e-02 
       7.534587671527e-02       8.041857158139e-02 
       7.821907666265e-02       7.072950999895e-02 
       8.114203772912e-02       5.635009246748e-02 
       8.412184535029e-02       3.995534916752e-02 
       8.716512279304e-02       2.423108006618e-02 
       9.027813695930e-02       1.148908775986e-02 
       9.346688431697e-02       3.248033497633e-03 
       9.673716028276e-02       5.964209098767e-05 
       1.000946150830e-01       1.445786279958e-03 
       1.035447986537e-01       6.051974881264e-03 
       1.070931966762e-01       1.198056793137e-02 
       1.107452594425e-01       1.723910989257e-02 
       1.145064249153e-01       2.021888121104e-02 
       1.183821370918e-01       2.009328976001e-02 
       1.223778605862e-01       1.699421578696e-02 
       1.264990921987e-01       1.194090051117e-02 
       1.307513701367e-01       6.488072739476e-03 
       1.351402814784e-01       2.205673182358e-03 
       1.396714684203e-01       1.391396365062e-04 
       1.443506338194e-01       4.603584170745e-04 
       1.491835465229e-01       2.439989104765e-03 
       1.541760469708e-01       4.785930469446e-03 
       1.593340535561e-01       6.217950421502e-03 
       1.646635702297e-01       6.031772020887e-03 
       1.701706958456e-01       4.396222331258e-03 
       1.758616357459e-01       2.199230737186e-03 
       1.817427160982e-01       5.147291036638e-04 
       1.878204015065e-01       5.189028014697e-06 
       1.941013164283e-01       5.732664032905e-04 
       2.005922709503e-01       1.499224786509e-03 
       2.073002914972e-01       1.975222167725e-03 
       2.142326570816e-01       1.662070506926e-03 
       2.213969417533e-01       8.551343678871e-04 
       2.288010639706e-01       1.680218804389e-04 
       2.364533437147e-01       1.513207656794e-05 
       2.443625682930e-01       2.939763278693e-04 
       2.525380679504e-01       5.708843460629e-04 
       2.609898026346e-01       5.328005951185e-04 
       2.697284615565e-01       2.495722715443e-04 
       2.787655775689e-01       2.626931148424e-05 
       2.881136588829e-01       2.634102920601e-05 
       2.977863412677e-01       1.352143922611e-04 
       3.077985646929e-01       1.602314555217e-04 
       3.181667794071e-01       7.574842620618e-05 
       3.289091877812e-01       5.000030769051e-06 
       3.400460299658e-01       1.364678871107e-05 
       3.515999236474e-01       4.242700247505e-05 
       3.635962711085e-01       3.142660026530e-05 
       3.760637506334e-01       4.453727191971e-06 
       3.890349143879e-01       2.130579097056e-06 
       4.025469216825e-01       1.001747705431e-05 
       4.166424456376e-01       6.083735529009e-06 
       4.313708035863e-01       1.728052368301e-07 
       4.467893782977e-01       1.524783216518e-06 
       4.629654199664e-01       1.989297353542e-06 
       4.799783501994e-01       2.283353693000e-07 
       4.979227319373e-01       2.443663433291e-07 
       5.169121270864e-01       3.755771839886e-07 
       5.370841404489e-01       4.984640838490e-09 
       5.586070464571e-01       7.605061641013e-08 
       5.816885094930e-01       2.483091580681e-08 
       6.065870144995e-01       1.425445769684e-08 
       6.336266468475e-01       1.335207741496e-08 
       6.632156059511e-01       9.805443591393e-10 
       6.958678639263e-01       3.710397369211e-10 
       7.322247985589e-01       1.115266289041e-09 
       7.730680195114e-01       6.374137882067e-12 
       8.193049553677e-01       3.575421601254e-10 
       8.718988016039e-01       2.876618362882e-10 
       9.317218031082e-01       1.220202361594e-09 
       9.993660908989e-01       5.404059087747e-10 
       1.075037110174e+00       3.142760937047e-09 
       1.158653485707e+00       2.726100830270e-10 
       1.250099157308e+00       1.217198065168e-09 
       1.349432401273e+00       1.109497062319e-09 
       1.456947457397e+00       2.799645706774e-15 
       1.573135111331e+00       2.092491320108e-09 
       1.698621895592e+00       2.031500278292e-10 
       1.834127512934e+00       4.381811700074e-11 
       1.980444934528e+00       5.026679790970e-11 
       2.138435191726e+00       3.776550200054e-11 
       2.309029199186e+00       1.685127450570e-11 
       2.493232377687e+00       7.193038029565e-10 
       2.692130395285e+00       1.723010682854e-10 
       2.906895534573e+00       2.734865790695e-10 
       3.138793597714e+00       5.468185495784e-11 
       3.389191366484e+00       1.348665507637e-09 
       3.659564657905e+00       4.011354031345e-10 
       3.951507022538e+00       1.819001173899e-11 
       4.266739136701e+00       1.180205022005e-09 
       4.607118943941e+00       1.661994725116e-09 
       4.974652605557e+00       4.711645925991e-09 
       5.371506324689e+00       1.316479692406e-11 
       5.800019113685e+00       1.112529738775e-09 
       6.262716579983e+00       4.965516528044e-10 
       6.762325811764e+00       1.103961392174e-11 
       7.301791451110e+00       3.604029303803e-10 
       7.884293049406e+00       1.255113401485e-09 
       8.513263807261e+00       4.110494407722e-12 
       9.192410809424e+00       9.701641213536e-10 
       9.925736873929e+00       1.919061581371e-11 
       1.071756414427e+01       7.402220119423e-10 
       1.157255956364e+01       7.622763457991e-12 
       1.249576238137e+01       1.038333486864e-09 
       1.349261385375e+01       3.155534406332e-10 
       1.456898931416e+01       6.601209955012e-10 
       1.573123280165e+01       2.220595617769e-12 
       1.698619445202e+01       1.979798938714e-10 
       1.834127087176e+01       9.376886385751e-10 
       1.980444873285e+01       1.496175171020e-10 
       2.138435184532e+01       2.685086906497e-10 
       2.309029198506e+01       4.318195278979e-11 
       2.493232377636e+01       2.619610577701e-11 
       2.692130395282e+01       1.274318400829e-11 
       2.906895534573e+01       7.440383985653e-11 
       3.138793597714e+01       6.807212660226e-12 
       3.389191366484e+01       5.871584408083e-12 
       3.659564657905e+01       2.941160496274e-12 
       3.951507022538e+01       2.349197187979e-12 
       4.266739136701e+01       1.621874282762e-14 
       4.607118943941e+01       1.377450428971e-12 
       4.974652605557e+01       8.000399587368e-15 
       5.371506324689e+01       5.987581037071e-11 
       5.800019113685e+01       5.723067380552e-13 
       6.262716579983e+01       1.722361239863e-12 
       6.762325811764e+01       9.366997232572e-13 
       7.301791451110e+01       7.811687582936e-13 
       7.884293049406e+01       6.976353678908e-14 
       8.513263807261e+01       3.108866456346e-14 
       9.192410809424e+01       8.932530250415e-15 
       9.925736873929e+01       9.292008172446e-12 
       1.071756414427e+02       5.445060044073e-12 
       1.157255956364e+02       5.435522723816e-13 
       1.249576238137e+02       6.427287798856e-13 
       1.349261385375e+02       9.265026058895e-15 
