# Matter power spectrum P(k) at redshift z=0
# for k=1.04775e-05 to 134.926 h/Mpc,
# number of wavenumbers equal to 255
#    1:k (h/Mpc)              2:P (Mpc/h)^3        
       1.047750691338e-05       5.020963906804e+01 
       1.131335172818e-05       5.407048937148e+01 
       1.221587619877e-05       5.822820724029e+01 
       1.319039970550e-05       6.270562047249e+01 
       1.424266598317e-05       6.752731476098e+01 
       1.537887697396e-05       7.271975715395e+01 
       1.660572938097e-05       7.831147101246e+01 
       1.793045413791e-05       8.433312302135e+01 
       1.936085902737e-05       9.081780130646e+01 
       2.090537469909e-05       9.780107449481e+01 
       2.257310435923e-05       1.053212938596e+02 
       2.437387742372e-05       1.134197268469e+02 
       2.631830745176e-05       1.221408285625e+02 
       2.841785470091e-05       1.315324590474e+02 
       3.068489367268e-05       1.416461671357e+02 
       3.313278604643e-05       1.525374478902e+02 
       3.577595943165e-05       1.642660517215e+02 
       3.862999240274e-05       1.768963429375e+02 
       4.171170631739e-05       1.904975997820e+02 
       4.503926445983e-05       2.051444243234e+02 
       4.863227909323e-05       2.209171412049e+02 
       5.251192705226e-05       2.379022266147e+02 
       5.670107455699e-05       2.561927841240e+02 
       6.122441198393e-05       2.758890479663e+02 
       6.610859938837e-05       2.970989213982e+02 
       7.138242363583e-05       3.199385559930e+02 
       7.707696806873e-05       3.445329727006e+02 
       8.322579570814e-05       3.710167324010e+02 
       8.986514707061e-05       3.995346444121e+02 
       9.703415376577e-05       4.302425389349e+02 
       1.047750691338e-04       4.633080773458e+02 
       1.131335172818e-04       4.989116271607e+02 
       1.221587619877e-04       5.372471938794e+02 
       1.319039970550e-04       5.785234116880e+02 
       1.424266598317e-04       6.229645933133e+02 
       1.537887697396e-04       6.708118487510e+02 
       1.660572938097e-04       7.223242657764e+02 
       1.793045413791e-04       7.777801571267e+02 
       1.936085902737e-04       8.374783638365e+02 
       2.090537469909e-04       9.017396276728e+02 
       2.257310435923e-04       9.709080297651e+02 
       2.437387742372e-04       1.045352453376e+03 
       2.631830745176e-04       1.125468127721e+03 
       2.841785470091e-04       1.211678185928e+03 
       3.068489367268e-04       1.304435256065e+03 
       3.313278604643e-04       1.404223062921e+03 
       3.577595943165e-04       1.511558029577e+03 
       3.862999240274e-04       1.626990852555e+03 
       4.171170631739e-04       1.751108045602e+03 
       4.503926445983e-04       1.884533404755e+03 
       4.863227909323e-04       2.027929406956e+03 
       5.251192705226e-04       2.181998483913e+03 
       5.670107455699e-04       2.347484146066e+03 
       6.122441198393e-04       2.525171925196e+03 
       6.610859938837e-04       2.715890054979e+03 
       7.138242363583e-04       2.920509779320e+03 
       7.707696806873e-04       3.139945208051e+03 
       8.322579570814e-04       3.375152477018e+03 
       8.986514707061e-04       3.627128020461e+03 
       9.703415376577e-04       3.896905669504e+03 
       1.047750691338e-03       4.185552452611e+03 
       1.131335172818e-03       4.494162775567e+03 
       1.221587619877e-03       4.823851150588e+03 
       1.319039970550e-03       5.175743278701e+03 
       1.424266598317e-03       5.551020298668e+03 
       1.537887697396e-03       5.950789185414e+03 
       1.660572938097e-03       6.376124150029e+03 
       1.793045413791e-03       6.828075236557e+03 
       1.936085902737e-03       7.307627051011e+03 
       2.090537469909e-03       7.815673958996e+03 
       2.257310435923e-03       8.352992922903e+03 
       2.437387742372e-03       8.920214306240e+03 
       2.631830745176e-03       9.517787166541e+03 
       2.841785470091e-03       1.014594130649e+04 
       3.068489367268e-03       1.080465136447e+04 
       3.313278604643e-03       1.149358239464e+04 
       3.577595943165e-03       1.221204586791e+04 
       3.862999240274e-03       1.295893666399e+04 
       4.171170631739e-03       1.373267338486e+04 
       4.503926445983e-03       1.453113499851e+04 
       4.863227909323e-03       1.535157115040e+04 
       5.251192705226e-03       1.619066154880e+04 
       5.670107455699e-03       1.704433880920e+04 
       6.122441198393e-03       1.790758124597e+04 
       6.610859938837e-03       1.877461996385e+04 
       7.138242363583e-03       1.963874650190e+04 
       7.707696806873e-03       2.049217384520e+04 
       8.322579570814e-03       2.132608014788e+04 
       8.986514707061e-03       2.213056716907e+04 
       9.703415376577e-03       2.289447297862e+04 
       1.047750691338e-02       2.360549524756e+04 
       1.131335172818e-02       2.425024121159e+04 
       1.221587619877e-02       2.481424702041e+04 
       1.319039970550e-02       2.528219965819e+04 
       1.424266598317e-02       2.563815122540e+04 
       1.537887697392e-02       2.586607609931e+04 
       1.660572938023e-02       2.595027071868e+04 
       1.793045412706e-02       2.587635543229e+04 
       1.936085890181e-02       2.563219653939e+04 
       2.090537352463e-02       2.520936216230e+04 
       2.257309535333e-02       2.460445417073e+04 
       2.437382002918e-02       2.382088778754e+04 
       2.631799944462e-02       2.287044828270e+04 
       2.841644545389e-02       2.177449528830e+04 
       3.067933355377e-02       2.056556739652e+04 
       3.311368470740e-02       1.928731420575e+04 
       3.571840443502e-02       1.799401954932e+04 
       3.847720348444e-02       1.674684596132e+04 
       4.135335538431e-02       1.560459580902e+04 
       4.429361667738e-02       1.461037651058e+04 
       4.724366439141e-02       1.378055703985e+04 
       5.016480835311e-02       1.310505254981e+04 
       5.303989620246e-02       1.255717822252e+04 
       5.586870669566e-02       1.210423943012e+04 
       5.866042680613e-02       1.171465086077e+04 
       6.142798932958e-02       1.136046770587e+04 
       6.418496440164e-02       1.101854829520e+04 
       6.694418833788e-02       1.067069074291e+04 
       6.971731106057e-02       1.030356747188e+04 
       7.251476155766e-02       9.909006075809e+03 
       7.534587671527e-02       9.483726162293e+03 
       7.821907666265e-02       9.029492095833e+03 
       8.114203772912e-02       8.552304299976e+03 
       8.412184535029e-02       8.061887537536e+03 
       8.716512279304e-02       7.570753704557e+03 
       9.027813695930e-02       7.092481540639e+03 
       9.346688431697e-02       6.640513626429e+03 
       9.673716028276e-02       6.226699111137e+03 
       1.000946150830e-01       5.859924132233e+03 
       1.035447986537e-01       5.545236741143e+03 
       1.070931966762e-01       5.283133710525e+03 
       1.107452594425e-01       5.069420077743e+03 
       1.145064249153e-01       4.895244640664e+03 
       1.183821370918e-01       4.747833276695e+03 
       1.223778605862e-01       4.611714305299e+03 
       1.264990921987e-01       4.470599502149e+03 
       1.307513701367e-01       4.310244475408e+03 
       1.351402814784e-01       4.121354395392e+03 
       1.396714684203e-01       3.902044233548e+03 
       1.443506338194e-01       3.658640394347e+03 
       1.491835465229e-01       3.404479313356e+03 
       1.541760469708e-01       3.156653992971e+03 
       1.593340535561e-01       2.931938687871e+03 
       1.646635702297e-01       2.742353888332e+03 
       1.701706958456e-01       2.592232559101e+03 
       1.758616357459e-01       2.477214259787e+03 
       1.817427160982e-01       2.385159910322e+03 
       1.878204015065e-01       2.300343859112e+03 
       1.941013164283e-01       2.205735027147e+03 
       2.005922709503e-01       2.090798003028e+03 
       2.073002914972e-01       1.956442862225e+03 
       2.142326570816e-01       1.814175300506e+03 
       2.213969417533e-01       1.679261665263e+03 
       2.288010639706e-01       1.563821484700e+03 
       2.364533437147e-01       1.472661784003e+03 
       2.443625682930e-01       1.401498915194e+03 
       2.525380679504e-01       1.338391874922e+03 
       2.609898026346e-01       1.270879866998e+03 
       2.697284615565e-01       1.193362652551e+03 
       2.787655775689e-01       1.109318912872e+03 
       2.881136588829e-01       1.028747057517e+03 
       2.977863412677e-01       9.604587245342e+02 
       3.077985646929e-01       9.050011485987e+02 
       3.181667794071e-01       8.561225197814e+02 
       3.289091877812e-01       8.061657941319e+02 
       3.400460299658e-01       7.523695379356e+02 
       3.515999236474e-01       6.989008398315e+02 
       3.635962711085e-01       6.510417513615e+02 
       3.760637506334e-01       6.101006179590e+02 
       3.890349143879e-01       5.721104470756e+02 
       4.025469216825e-01       5.337617447021e+02 
       4.166424456376e-01       4.956113469731e+02 
       4.313708035863e-01       4.604482518867e+02 
       4.467893782977e-01       4.287559946862e+02 
       4.629654199664e-01       3.987526058491e+02 
       4.799783501994e-01       3.692217781283e+02 
       4.979227319373e-01       3.412211624597e+02 
       5.169121270864e-01       3.154646050376e+02 
       5.370841404489e-01       2.908175800413e+02 
       5.586070464571e-01       2.670873126177e+02 
       5.816885094930e-01       2.447915179716e+02 
       6.065870144995e-01       2.235500780221e+02 
       6.336266468475e-01       2.031928686876e+02 
       6.632156059511e-01       1.838614535963e+02 
       6.958678639263e-01       1.653381288471e+02 
       7.322247985589e-01       1.476797384743e+02 
       7.730680195114e-01       1.308182796299e+02 
       8.193049553677e-01       1.148161451343e+02 
       8.718988016039e-01       9.974823475432e+01 
       9.317218031082e-01       8.576364240687e+01 
       9.993660908989e-01       7.304128064860e+01 
       1.075037110174e+00       6.172311049540e+01 
       1.158653485707e+00       5.186669659229e+01 
       1.250099157308e+00       4.342858666779e+01 
       1.349432401273e+00       3.627832776880e+01 
       1.456947457397e+00       3.025764384653e+01 
       1.573135111331e+00       2.520447811812e+01 
       1.698621895592e+00       2.097255062319e+01 
       1.834127512934e+00       1.743350948243e+01 
       1.980444934528e+00       1.447723503114e+01 
       2.138435191726e+00       1.201100372276e+01 
       2.309029199186e+00       9.955706314425e+00 
       2.493232377687e+00       8.244781511323e+00 
       2.692130395285e+00       6.821986031010e+00 
       2.906895534573e+00       5.640027937343e+00 
       3.138793597714e+00       4.659045559578e+00 
       3.389191366484e+00       3.845602467478e+00 
       3.659564657905e+00       3.171772993896e+00 
       3.951507022538e+00       2.614039331344e+00 
       4.266739136701e+00       2.152784553866e+00 
       4.607118943941e+00       1.771676648920e+00 
       4.974652605557e+00       1.457001314074e+00 
       5.371506324689e+00       1.197397068398e+00 
       5.800019113685e+00       9.833738269920e-01 
       6.262716579983e+00       8.070711282400e-01 
       6.762325811764e+00       6.619335857245e-01 
       7.301791451110e+00       5.425491175496e-01 
       7.884293049406e+00       4.444021809751e-01 
       8.513263807261e+00       3.637731271276e-01 
       9.192410809424e+00       2.975799292485e-01 
       9.925736873929e+00       2.432695696851e-01 
       1.071756414427e+01       1.987399874236e-01 
       1.157255956364e+01       1.622511900521e-01 
       1.249576238137e+01       1.323674143863e-01 
       1.349261385375e+01       1.079093370735e-01 
       1.456898931416e+01       8.790497118759e-02 
       1.573123280165e+01       7.155268578872e-02 
       1.698619445202e+01       5.819291991442e-02 
       1.834127087176e+01       4.728567392855e-02 
       1.980444873285e+01       3.838624168857e-02 
       2.138435184532e+01       3.112955943001e-02 
       2.309029198506e+01       2.521661866984e-02 
       2.493232377636e+01       2.040139343770e-02 
       2.692130395282e+01       1.648369035858e-02 
       2.906895534573e+01       1.329839955363e-02 
       3.138793597714e+01       1.071084585474e-02 
       3.389191366484e+01       8.610487669990e-03 
       3.659564657905e+01       6.907620554391e-03 
       3.951507022538e+01       5.528427665607e-03 
       4.266739136701e+01       4.412755391834e-03 
       4.607118943941e+01       3.511585102056e-03 
       4.974652605557e+01       2.784803914326e-03 
       5.371506324689e+01       2.199735874967e-03 
       5.800019113685e+01       1.729759666744e-03 
       6.262716579983e+01       1.353181240745e-03 
       6.762325811764e+01       1.052318094861e-03 
       7.301791451110e+01       8.127442766707e-04 
       7.884293049406e+01       6.227762801170e-04 
       8.513263807261e+01       4.728467193272e-04 
       9.192410809424e+01       3.552202021511e-04 
       9.925736873929e+01       2.635342786387e-04 
       1.071756414427e+02       1.926901834265e-04 
       1.157255956364e+02       1.384776922671e-04 
       1.249576238137e+02       9.749921730812e-05 
       1.349261385375e+02       6.697046243501e-05 
