# Matter power spectrum P(k) at redshift z=99
# for k=1.04775e-05 to 134.926 h/Mpc,
# number of wavenumbers equal to 255
#    1:k (h/Mpc)              2:P (Mpc/h)^3        
       1.047750691338e-05       7.261927095415e-03 
       1.131335172818e-05       7.820332150895e-03 
       1.221587619877e-05       8.421675382480e-03 
       1.319039970550e-05       9.069257738165e-03 
       1.424266598317e-05       9.766636451300e-03 
       1.537887697396e-05       1.051763973660e-02 
       1.660572938097e-05       1.132639250772e-02 
       1.793045413791e-05       1.219733201530e-02 
       1.936085902737e-05       1.313524187227e-02 
       2.090537469909e-05       1.414527085003e-02 
       2.257310435923e-05       1.523296544520e-02 
       2.437387742372e-05       1.640429654671e-02 
       2.631830745176e-05       1.766569603319e-02 
       2.841785470091e-05       1.902408711198e-02 
       3.068489367268e-05       2.048692967483e-02 
       3.313278604643e-05       2.206225467591e-02 
       3.577595943165e-05       2.375870883897e-02 
       3.862999240274e-05       2.558560669872e-02 
       4.171170631739e-05       2.755297672563e-02 
       4.503926445983e-05       2.967161933472e-02 
       4.863227909323e-05       3.195316455719e-02 
       5.251192705226e-05       3.441013466202e-02 
       5.670107455699e-05       3.705601741777e-02 
       6.122441198393e-05       3.990533412917e-02 
       6.610859938837e-05       4.297372242618e-02 
       7.138242363583e-05       4.627802054948e-02 
       7.707696806873e-05       4.983636159988e-02 
       8.322579570814e-05       5.366826787039e-02 
       8.986514707061e-05       5.779476319848e-02 
       9.703415376577e-05       6.223848221959e-02 
       1.047750691338e-04       6.702379825154e-02 
       1.131335172818e-04       7.217695031220e-02 
       1.221587619877e-04       7.772619030515e-02 
       1.319039970550e-04       8.370193380212e-02 
       1.424266598317e-04       9.013692506846e-02 
       1.537887697396e-04       9.706641130593e-02 
       1.660572938097e-04       1.045283343132e-01 
       1.793045413791e-04       1.125635329208e-01 
       1.936085902737e-04       1.212159592334e-01 
       2.090537469909e-04       1.305329107463e-01 
       2.257310435923e-04       1.405652819390e-01 
       2.437387742372e-04       1.513678275107e-01 
       2.631830745176e-04       1.629994475168e-01 
       2.841785470091e-04       1.755234890516e-01 
       3.068489367268e-04       1.890080645340e-01 
       3.313278604643e-04       2.035263977475e-01 
       3.577595943165e-04       2.191571778092e-01 
       3.862999240274e-04       2.359849423311e-01 
       4.171170631739e-04       2.541004713057e-01 
       4.503926445983e-04       2.736012061218e-01 
       4.863227909323e-04       2.945916774707e-01 
       5.251192705226e-04       3.171839507932e-01 
       5.670107455699e-04       3.414980769181e-01 
       6.122441198393e-04       3.676625416379e-01 
       6.610859938837e-04       3.958147272948e-01 
       7.138242363583e-04       4.261013332153e-01 
       7.707696806873e-04       4.586787880943e-01 
       8.322579570814e-04       4.937136112919e-01 
       8.986514707061e-04       5.313826962179e-01 
       9.703415376577e-04       5.718735176911e-01 
       1.047750691338e-03       6.153841926360e-01 
       1.131335172818e-03       6.621233623234e-01 
       1.221587619877e-03       7.123098743765e-01 
       1.319039970550e-03       7.661721263895e-01 
       1.424266598317e-03       8.239547181406e-01 
       1.537887697396e-03       8.859012282911e-01 
       1.660572938097e-03       9.522589495827e-01 
       1.793045413791e-03       1.023280284741e+00 
       1.936085902737e-03       1.099216542127e+00 
       2.090537469909e-03       1.180313285053e+00 
       2.257310435923e-03       1.266804486818e+00 
       2.437387742372e-03       1.358905328462e+00 
       2.631830745176e-03       1.456803285933e+00 
       2.841785470091e-03       1.560647662999e+00 
       3.068489367268e-03       1.670537010507e+00 
       3.313278604643e-03       1.786505039527e+00 
       3.577595943165e-03       1.908504409947e+00 
       3.862999240274e-03       2.036389468504e+00 
       4.171170631739e-03       2.169898252435e+00 
       4.503926445983e-03       2.308634491445e+00 
       4.863227909323e-03       2.452050674035e+00 
       5.251192705226e-03       2.599434680099e+00 
       5.670107455699e-03       2.749901125029e+00 
       6.122441198393e-03       2.902390056350e+00 
       6.610859938837e-03       3.055671267120e+00 
       7.138242363583e-03       3.208360119150e+00 
       7.707696806873e-03       3.358926646350e+00 
       8.322579570814e-03       3.505726883111e+00 
       8.986514707061e-03       3.647012428774e+00 
       9.703415376577e-03       3.780926167221e+00 
       1.047750691338e-02       3.905492864559e+00 
       1.131335172818e-02       4.018589804684e+00 
       1.221587619877e-02       4.117902860631e+00 
       1.319039970550e-02       4.200917663419e+00 
       1.424266598317e-02       4.264943690648e+00 
       1.537887697392e-02       4.307219606920e+00 
       1.660572938023e-02       4.325062319573e+00 
       1.793045412706e-02       4.316060261461e+00 
       1.936085890181e-02       4.278228629620e+00 
       2.090537352463e-02       4.210204301719e+00 
       2.257309535333e-02       4.111418530611e+00 
       2.437382002918e-02       3.982420661602e+00 
       2.631799944462e-02       3.825168341345e+00 
       2.841644545389e-02       3.643281801345e+00 
       3.067933355377e-02       3.442198181679e+00 
       3.311368470740e-02       3.229241008056e+00 
       3.571840443502e-02       3.013515567044e+00 
       3.847720348444e-02       2.805283924312e+00 
       4.135335538431e-02       2.614409618243e+00 
       4.429361667738e-02       2.448130974014e+00 
       4.724366439141e-02       2.309239304877e+00 
       5.016480835311e-02       2.196113705204e+00 
       5.303989620246e-02       2.104368229458e+00 
       5.586870669566e-02       2.028460830505e+00 
       5.866042680613e-02       1.963153394024e+00 
       6.142798932958e-02       1.903777646958e+00 
       6.418496440164e-02       1.846477024062e+00 
       6.694418833788e-02       1.788195187642e+00 
       6.971731106057e-02       1.726713306715e+00 
       7.251476155766e-02       1.660651956945e+00 
       7.534587671527e-02       1.589467395817e+00 
       7.821907666265e-02       1.513434082167e+00 
       8.114203772912e-02       1.433566252201e+00 
       8.412184535029e-02       1.351489716719e+00 
       8.716512279304e-02       1.269271162780e+00 
       9.027813695930e-02       1.189190576696e+00 
       9.346688431697e-02       1.113498481301e+00 
       9.673716028276e-02       1.044171781512e+00 
       1.000946150830e-01       9.827032627598e-01 
       1.035447986537e-01       9.299334180167e-01 
       1.070931966762e-01       8.859556377140e-01 
       1.107452594425e-01       8.500681300937e-01 
       1.145064249153e-01       8.208002801713e-01 
       1.183821370918e-01       7.960210991697e-01 
       1.223778605862e-01       7.731424427570e-01 
       1.264990921987e-01       7.494486406183e-01 
       1.307513701367e-01       7.225536558477e-01 
       1.351402814784e-01       6.909049571015e-01 
       1.396714684203e-01       6.541771954757e-01 
       1.443506338194e-01       6.134227549819e-01 
       1.491835465229e-01       5.708641559943e-01 
       1.541760469708e-01       5.293604669037e-01 
       1.593340535561e-01       4.917070151434e-01 
       1.646635702297e-01       4.599161030239e-01 
       1.701706958456e-01       4.347240087746e-01 
       1.758616357459e-01       4.154038548092e-01 
       1.817427160982e-01       3.999327894965e-01 
       1.878204015065e-01       3.856788215318e-01 
       1.941013164283e-01       3.698054052720e-01 
       2.005922709503e-01       3.505424571321e-01 
       2.073002914972e-01       3.280390132552e-01 
       2.142326570816e-01       3.042096611937e-01 
       2.213969417533e-01       2.816075546167e-01 
       2.288010639706e-01       2.622527248538e-01 
       2.364533437147e-01       2.469577170137e-01 
       2.443625682930e-01       2.350091255564e-01 
       2.525380679504e-01       2.244137106880e-01 
       2.609898026346e-01       2.130896655295e-01 
       2.697284615565e-01       2.000976786331e-01 
       2.787655775689e-01       1.860159795628e-01 
       2.881136588829e-01       1.725131906137e-01 
       2.977863412677e-01       1.610620112728e-01 
       3.077985646929e-01       1.517568260041e-01 
       3.181667794071e-01       1.435555992053e-01 
       3.289091877812e-01       1.351775276677e-01 
       3.400460299658e-01       1.261602610658e-01 
       3.515999236474e-01       1.171979839651e-01 
       3.635962711085e-01       1.091730167833e-01 
       3.760637506334e-01       1.023056968942e-01 
       3.890349143879e-01       9.593384790051e-02 
       4.025469216825e-01       8.950391119709e-02 
       4.166424456376e-01       8.310798282533e-02 
       4.313708035863e-01       7.721176150659e-02 
       4.467893782977e-01       7.189687859059e-02 
       4.629654199664e-01       6.686535370681e-02 
       4.799783501994e-01       6.191385883526e-02 
       4.979227319373e-01       5.721862264177e-02 
       5.169121270864e-01       5.289931373248e-02 
       5.370841404489e-01       4.876625834340e-02 
       5.586070464571e-01       4.478726405929e-02 
       5.816885094930e-01       4.104848857513e-02 
       6.065870144995e-01       3.748655726016e-02 
       6.336266468475e-01       3.407291399478e-02 
       6.632156059511e-01       3.083129987335e-02 
       6.958678639263e-01       2.772520155566e-02 
       7.322247985589e-01       2.476405081616e-02 
       7.730680195114e-01       2.193659909055e-02 
       8.193049553677e-01       1.925322347001e-02 
       8.718988016039e-01       1.672647723924e-02 
       9.317218031082e-01       1.438143943154e-02 
       9.993660908989e-01       1.224802266126e-02 
       1.075037110174e+00       1.035005732805e-02 
       1.158653485707e+00       8.697236332239e-03 
       1.250099157308e+00       7.282246764725e-03 
       1.349432401273e+00       6.083218291466e-03 
       1.456947457397e+00       5.073608367507e-03 
       1.573135111331e+00       4.226249175773e-03 
       1.698621895592e+00       3.516590609631e-03 
       1.834127512934e+00       2.923118350796e-03 
       1.980444934528e+00       2.427384721725e-03 
       2.138435191726e+00       2.013815417745e-03 
       2.309029199186e+00       1.669161474023e-03 
       2.493232377687e+00       1.382256204122e-03 
       2.692130395285e+00       1.143669464045e-03 
       2.906895534573e+00       9.454696989725e-04 
       3.138793597714e+00       7.809669050860e-04 
       3.389191366484e+00       6.445654833325e-04 
       3.659564657905e+00       5.315782906590e-04 
       3.951507022538e+00       4.380527240979e-04 
       4.266739136701e+00       3.607106311004e-04 
       4.607118943941e+00       2.968046950866e-04 
       4.974652605557e+00       2.440427752313e-04 
       5.371506324689e+00       2.005134231941e-04 
       5.800019113685e+00       1.646316702052e-04 
       6.262716579983e+00       1.350731196486e-04 
       6.762325811764e+00       1.107426359611e-04 
       7.301791451110e+00       9.072906589115e-05 
       7.884293049406e+00       7.427809608175e-05 
       8.513263807261e+00       6.076494993345e-05 
       9.192410809424e+00       4.967212802822e-05 
       9.925736873929e+00       4.057250704255e-05 
       1.071756414427e+01       3.311280375042e-05 
       1.157255956364e+01       2.700147521667e-05 
       1.249576238137e+01       2.199802253169e-05 
       1.349261385375e+01       1.790438570263e-05 
       1.456898931416e+01       1.455754054893e-05 
       1.573123280165e+01       1.182317652291e-05 
       1.698619445202e+01       9.590498556966e-06 
       1.834127087176e+01       7.769133915815e-06 
       1.980444873285e+01       6.284415577345e-06 
       2.138435184532e+01       5.075086303087e-06 
       2.309029198506e+01       4.090963984061e-06 
       2.493232377636e+01       3.290880509368e-06 
       2.692130395282e+01       2.641194923683e-06 
       2.906895534573e+01       2.114209083801e-06 
       3.138793597714e+01       1.687325846904e-06 
       3.389191366484e+01       1.342101603201e-06 
       3.659564657905e+01       1.063380707098e-06 
       3.951507022538e+01       8.388247977595e-07 
       4.266739136701e+01       6.583333718700e-07 
       4.607118943941e+01       5.136449369543e-07 
       4.974652605557e+01       3.980564418853e-07 
       5.371506324689e+01       3.060772539926e-07 
       5.800019113685e+01       2.332166880531e-07 
       6.262716579983e+01       1.758240975365e-07 
       6.762325811764e+01       1.309153521608e-07 
       7.301791451110e+01       9.606159489008e-08 
       7.884293049406e+01       6.926979870924e-08 
       8.513263807261e+01       4.892335462433e-08 
       9.192410809424e+01       3.369405379911e-08 
       9.925736873929e+01       2.249873263811e-08 
       1.071756414427e+02       1.445200853916e-08 
       1.157255956364e+02       8.832214447403e-09 
       1.249576238137e+02       5.049934009123e-09 
       1.349261385375e+02       2.628776906371e-09 
