# Matter power spectrum P(k) at redshift z=99
# for k=1.04775e-05 to 67.6233 h/Mpc,
# number of wavenumbers equal to 246
#    1:k (h/Mpc)              2:P (Mpc/h)^3        
       1.047750691338e-05       7.262967808666e-03 
       1.131335172818e-05       7.821452719108e-03 
       1.221587619877e-05       8.422883248479e-03 
       1.319039970550e-05       9.070558084379e-03 
       1.424266598317e-05       9.768036321770e-03 
       1.537887697396e-05       1.051914684391e-02 
       1.660572938097e-05       1.132801445850e-02 
       1.793045413791e-05       1.219907893187e-02 
       1.936085902737e-05       1.313712279249e-02 
       2.090537469909e-05       1.414729761182e-02 
       2.257310435923e-05       1.523514753697e-02 
       2.437387742372e-05       1.640664756429e-02 
       2.631830745176e-05       1.766822571051e-02 
       2.841785470091e-05       1.902681221669e-02 
       3.068489367268e-05       2.048986448521e-02 
       3.313278604643e-05       2.206541456675e-02 
       3.577595943165e-05       2.376211180452e-02 
       3.862999240274e-05       2.558927195181e-02 
       4.171170631739e-05       2.755692520640e-02 
       4.503926445983e-05       2.967586980092e-02 
       4.863227909323e-05       3.195774140766e-02 
       5.251192705226e-05       3.441506425023e-02 
       5.670107455699e-05       3.706132508226e-02 
       6.122441198393e-05       3.991104983272e-02 
       6.610859938837e-05       4.297987715890e-02 
       7.138242363583e-05       4.628464620606e-02 
       7.707696806873e-05       4.984349670495e-02 
       8.322579570814e-05       5.367594907910e-02 
       8.986514707061e-05       5.780303342796e-02 
       9.703415376577e-05       6.224738519969e-02 
       1.047750691338e-04       6.703338243168e-02 
       1.131335172818e-04       7.218726653312e-02 
       1.221587619877e-04       7.773729479148e-02 
       1.319039970550e-04       8.371388322410e-02 
       1.424266598317e-04       9.014978480724e-02 
       1.537887697396e-04       9.708024804039e-02 
       1.660572938097e-04       1.045432213543e-01 
       1.793045413791e-04       1.125795450013e-01 
       1.936085902737e-04       1.212331797700e-01 
       2.090537469909e-04       1.305514270212e-01 
       2.257310435923e-04       1.405851845971e-01 
       2.437387742372e-04       1.513892147982e-01 
       2.631830745176e-04       1.630224213612e-01 
       2.841785470091e-04       1.755481560370e-01 
       3.068489367268e-04       1.890345370742e-01 
       3.313278604643e-04       2.035547906678e-01 
       3.577595943165e-04       2.191876093674e-01 
       3.862999240274e-04       2.360175314862e-01 
       4.171170631739e-04       2.541353373330e-01 
       4.503926445983e-04       2.736384658520e-01 
       4.863227909323e-04       2.946314401993e-01 
       5.251192705226e-04       3.172263157724e-01 
       5.670107455699e-04       3.415431253179e-01 
       6.122441198393e-04       3.677103329561e-01 
       6.610859938837e-04       3.958652842711e-01 
       7.138242363583e-04       4.261546313135e-01 
       7.707696806873e-04       4.587347395097e-01 
       8.322579570814e-04       4.937720401289e-01 
       8.986514707061e-04       5.314433147961e-01 
       9.703415376577e-04       5.719358861117e-01 
       1.047750691338e-03       6.154476698058e-01 
       1.131335172818e-03       6.621870536203e-01 
       1.221587619877e-03       7.123725355388e-01 
       1.319039970550e-03       7.662320800869e-01 
       1.424266598317e-03       8.240097619559e-01 
       1.537887697396e-03       8.859482141016e-01 
       1.660572938097e-03       9.522936671312e-01 
       1.793045413791e-03       1.023297215282e+00 
       1.936085902737e-03       1.099208391514e+00 
       2.090537469909e-03       1.180270449808e+00 
       2.257310435923e-03       1.266714297895e+00 
       2.437387742372e-03       1.358751017623e+00 
       2.631830745176e-03       1.456562706996e+00 
       2.841785470091e-03       1.560291374634e+00 
       3.068489367268e-03       1.670025921872e+00 
       3.313278604643e-03       1.785787102071e+00 
       3.577595943165e-03       1.907510317648e+00 
       3.862999240274e-03       2.035026677114e+00 
       4.171170631739e-03       2.168042989619e+00 
       4.503926445983e-03       2.306120976488e+00 
       4.863227909323e-03       2.448657462480e+00 
       5.251192705226e-03       2.594866502048e+00 
       5.670107455699e-03       2.743764830867e+00 
       6.122441198393e-03       2.894162775891e+00 
       6.610859938837e-03       3.044660717290e+00 
       7.138242363583e-03       3.193651517044e+00 
       7.707696806873e-03       3.339326750721e+00 
       8.322579570814e-03       3.479680807341e+00 
       8.986514707061e-03       3.612509755591e+00 
       9.703415376577e-03       3.735393419327e+00 
       1.047750691338e-02       3.845660451128e+00 
       1.131335172818e-02       3.940334103367e+00 
       1.221587619877e-02       4.016071664801e+00 
       1.319039970550e-02       4.069125672410e+00 
       1.424266598317e-02       4.095356264458e+00 
       1.537887697392e-02       4.090324832253e+00 
       1.660572938023e-02       4.049476375381e+00 
       1.793045412706e-02       3.968374383666e+00 
       1.936085890181e-02       3.843002751107e+00 
       2.090537352463e-02       3.670115692852e+00 
       2.257309535333e-02       3.447684317912e+00 
       2.437382002918e-02       3.175568883601e+00 
       2.631799944462e-02       2.856288010157e+00 
       2.841644545389e-02       2.495920153559e+00 
       3.067933355377e-02       2.104925575884e+00 
       3.311368470740e-02       1.698762287103e+00 
       3.571840443502e-02       1.298024744687e+00 
       3.847720348444e-02       9.268299746994e-01 
       4.135335538431e-02       6.085739234767e-01 
       4.429361667738e-02       3.595203379619e-01 
       4.724366439141e-02       1.839926315372e-01 
       5.016480835311e-02       7.497431393583e-02 
       5.303989620246e-02       1.885047345309e-02 
       5.586870669566e-02       4.231770576929e-04 
       5.866042680613e-02       5.824442017876e-03 
       6.142798932958e-02       2.367031079566e-02 
       6.418496440164e-02       4.526866072162e-02 
       6.694418833788e-02       6.448953136925e-02 
       6.971731106057e-02       7.750397852129e-02 
       7.251476155766e-02       8.252893017519e-02 
       7.534587671527e-02       7.948015509097e-02 
       7.821907666265e-02       6.963178562292e-02 
       8.114203772912e-02       5.519101227332e-02 
       8.412184535029e-02       3.884448764924e-02 
       8.716512279304e-02       2.329098571833e-02 
       9.027813695930e-02       1.080383700965e-02 
       9.346688431697e-02       2.880065898752e-03 
       9.673716028276e-02       1.964187335733e-05 
       1.000946150830e-01       1.692806828520e-03 
       1.035447986537e-01       6.498968968870e-03 
       1.070931966762e-01       1.250749351377e-02 
       1.107452594425e-01       1.771857988989e-02 
       1.145064249153e-01       2.054750368487e-02 
       1.183821370918e-01       2.020899562976e-02 
       1.223778605862e-01       1.689905645919e-02 
       1.264990921987e-01       1.169743457678e-02 
       1.307513701367e-01       6.201648057966e-03 
       1.351402814784e-01       1.990761884086e-03 
       1.396714684203e-01       8.273564880824e-05 
       1.443506338194e-01       5.887925461331e-04 
       1.491835465229e-01       2.710411874878e-03 
       1.541760469708e-01       5.102787478788e-03 
       1.593340535561e-01       6.473202478190e-03 
       1.646635702297e-01       6.155505144151e-03 
       1.701706958456e-01       4.384385707426e-03 
       1.758616357459e-01       2.110645409026e-03 
       1.817427160982e-01       4.429121787207e-04 
       1.878204015065e-01       1.880065919955e-05 
       1.941013164283e-01       6.785888903381e-04 
       2.005922709503e-01       1.642548643908e-03 
       2.073002914972e-01       2.082413333193e-03 
       2.142326570816e-01       1.694090963173e-03 
       2.213969417533e-01       8.292424217768e-04 
       2.288010639706e-01       1.401550657722e-04 
       2.364533437147e-01       2.890111123275e-05 
       2.443625682930e-01       3.460613227073e-04 
       2.525380679504e-01       6.217258970670e-04 
       2.609898026346e-01       5.501462280348e-04 
       2.697284615565e-01       2.395122093843e-04 
       2.787655775689e-01       1.825755829580e-05 
       2.881136588829e-01       3.785261580081e-05 
       2.977863412677e-01       1.553329984771e-04 
       3.077985646929e-01       1.690282952477e-04 
       3.181667794071e-01       7.252684714918e-05 
       3.289091877812e-01       2.700064508554e-06 
       3.400460299658e-01       1.882002016472e-05 
       3.515999236474e-01       4.774894414848e-05 
       3.635962711085e-01       3.120591999503e-05 
       3.760637506334e-01       3.280279614635e-06 
       3.890349143879e-01       3.417957430059e-06 
       4.025469216825e-01       1.152752891361e-05 
       4.166424456376e-01       5.788082209223e-06 
       4.313708035863e-01       3.943763359761e-08 
       4.467893782977e-01       1.985216597706e-06 
       4.629654199664e-01       2.024994233026e-06 
       4.799783501994e-01       1.094663854526e-07 
       4.979227319373e-01       3.470563822709e-07 
       5.169121270864e-01       3.427579534539e-07 
       5.370841404489e-01       1.911098256800e-10 
       5.586070464571e-01       9.181475754577e-08 
       5.816885094930e-01       1.426616359295e-08 
       6.065870144995e-01       1.194541426584e-08 
       6.336266468475e-01       3.716876005044e-09 
       6.632156059511e-01       2.128584744254e-09 
       6.958678639263e-01       3.930851232299e-10 
       7.322247985589e-01       1.036338719746e-10 
       7.730680195114e-01       3.721321063717e-11 
       8.193049553677e-01       3.397553935202e-13 
       8.718988016039e-01       1.292159588774e-12 
       9.317218031082e-01       6.197353652935e-12 
       9.993660908989e-01       6.737769601502e-12 
       1.075037110174e+00       7.005666778670e-15 
       1.158653485707e+00       1.440520882646e-14 
       1.250099157308e+00       2.753988194015e-12 
       1.349432401273e+00       5.183806378143e-13 
       1.456947457397e+00       1.058821494995e-13 
       1.573135111331e+00       2.763235181112e-13 
       1.698621895592e+00       5.913478311352e-15 
       1.834127512934e+00       1.043361590701e-13 
       1.980444934528e+00       1.975140512883e-14 
       2.138435191726e+00       1.827696769150e-16 
       2.309029199186e+00       1.053676459708e-13 
       2.493232377687e+00       5.195831681290e-17 
       2.692130395285e+00       6.023680161817e-16 
       2.906895534573e+00       3.367704509990e-15 
       3.138793597714e+00       2.391636271864e-15 
       3.389191366484e+00       3.497366927639e-15 
       3.659564657905e+00       9.698722271548e-16 
       3.951507022538e+00       1.159639714537e-15 
       4.266739136701e+00       1.573012911242e-17 
       4.607118943941e+00       1.570182590079e-16 
       4.974652605557e+00       3.024192213470e-16 
       5.371506324689e+00       1.532870503859e-17 
       5.800019113685e+00       1.073980726651e-17 
       6.262716579983e+00       2.155052891108e-18 
       6.762325811764e+00       8.067554571073e-17 
       7.301791451110e+00       5.364394050279e-17 
       7.884293049406e+00       2.140766182168e-17 
       8.513263807261e+00       1.142510340814e-18 
       9.192410809424e+00       1.673467939344e-17 
       9.925736873929e+00       5.220446633149e-19 
       1.071756414427e+01       2.362276932903e-19 
       1.157255956364e+01       5.124641327709e-18 
       1.249576238137e+01       3.724494957453e-18 
       1.349261385375e+01       2.510539390498e-18 
       1.456898931416e+01       1.649594160601e-18 
       1.573123280165e+01       4.397139945821e-20 
       1.698619445202e+01       2.185244452965e-20 
       1.834127087176e+01       2.277727019736e-20 
       1.980444873285e+01       3.058025663840e-20 
       2.138435184532e+01       3.368333893595e-20 
       2.309029198506e+01       1.785558176582e-19 
       2.493232377636e+01       1.318221059134e-19 
       2.692130395282e+01       2.470807955743e-20 
       2.906895534573e+01       7.283761491159e-22 
       3.138793597714e+01       3.185855091631e-23 
       3.389191366484e+01       2.495705924692e-20 
       3.659564657905e+01       1.344981908178e-22 
       3.951507022538e+01       1.965174137358e-21 
       4.266739136701e+01       9.559195582611e-21 
       4.607118943941e+01       6.349692651608e-21 
       4.974652605557e+01       9.136559480805e-23 
       5.371506324689e+01       3.520555648187e-22 
       5.800019113685e+01       1.390517753390e-21 
       6.262716579983e+01       1.502651424997e-21 
       6.762325811764e+01       4.284378540518e-23 
