# Matter power spectrum P(k) at redshift z=0
# for k=1.04775e-05 to 134.926 h/Mpc,
# number of wavenumbers equal to 255
#    1:k (h/Mpc)              2:P (Mpc/h)^3        
       1.047750691338e-05       5.020963921398e+01 
       1.131335172818e-05       5.407048701424e+01 
       1.221587619877e-05       5.822819364875e+01 
       1.319039970550e-05       6.270561848838e+01 
       1.424266598317e-05       6.752731477127e+01 
       1.537887697396e-05       7.271976790803e+01 
       1.660572938097e-05       7.831147108095e+01 
       1.793045413791e-05       8.433312564981e+01 
       1.936085902737e-05       9.081778877436e+01 
       2.090537469909e-05       9.780108026521e+01 
       2.257310435923e-05       1.053212930697e+02 
       2.437387742372e-05       1.134197268778e+02 
       2.631830745176e-05       1.221408288924e+02 
       2.841785470091e-05       1.315324609962e+02 
       3.068489367268e-05       1.416461675764e+02 
       3.313278604643e-05       1.525374477798e+02 
       3.577595943165e-05       1.642660519382e+02 
       3.862999240274e-05       1.768963433113e+02 
       4.171170631739e-05       1.904975994523e+02 
       4.503926445983e-05       2.051444245588e+02 
       4.863227909323e-05       2.209171406687e+02 
       5.251192705226e-05       2.379022244832e+02 
       5.670107455699e-05       2.561927818975e+02 
       6.122441198393e-05       2.758890478438e+02 
       6.610859938837e-05       2.970989220125e+02 
       7.138242363583e-05       3.199385571149e+02 
       7.707696806873e-05       3.445329727284e+02 
       8.322579570814e-05       3.710167324347e+02 
       8.986514707061e-05       3.995346445640e+02 
       9.703415376577e-05       4.302425390496e+02 
       1.047750691338e-04       4.633080762651e+02 
       1.131335172818e-04       4.989116273898e+02 
       1.221587619877e-04       5.372471939324e+02 
       1.319039970550e-04       5.785234108938e+02 
       1.424266598317e-04       6.229645927247e+02 
       1.537887697396e-04       6.708118491661e+02 
       1.660572938097e-04       7.223242665878e+02 
       1.793045413791e-04       7.777801575518e+02 
       1.936085902737e-04       8.374783630265e+02 
       2.090537469909e-04       9.017396291815e+02 
       2.257310435923e-04       9.709080288554e+02 
       2.437387742372e-04       1.045352453691e+03 
       2.631830745176e-04       1.125468127495e+03 
       2.841785470091e-04       1.211678184948e+03 
       3.068489367268e-04       1.304435256749e+03 
       3.313278604643e-04       1.404223061363e+03 
       3.577595943165e-04       1.511558028238e+03 
       3.862999240274e-04       1.626990852192e+03 
       4.171170631739e-04       1.751108044391e+03 
       4.503926445983e-04       1.884533402739e+03 
       4.863227909323e-04       2.027929405752e+03 
       5.251192705226e-04       2.181998481991e+03 
       5.670107455699e-04       2.347484141670e+03 
       6.122441198393e-04       2.525171921656e+03 
       6.610859938837e-04       2.715890049763e+03 
       7.138242363583e-04       2.920509769936e+03 
       7.707696806873e-04       3.139945197541e+03 
       8.322579570814e-04       3.375152461321e+03 
       8.986514707061e-04       3.627127999365e+03 
       9.703415376577e-04       3.896905638462e+03 
       1.047750691338e-03       4.185552404721e+03 
       1.131335172818e-03       4.494162710177e+03 
       1.221587619877e-03       4.823851057270e+03 
       1.319039970550e-03       5.175743145703e+03 
       1.424266598317e-03       5.551020109539e+03 
       1.537887697396e-03       5.950788905009e+03 
       1.660572938097e-03       6.376123723758e+03 
       1.793045413791e-03       6.828074620533e+03 
       1.936085902737e-03       7.307626147057e+03 
       2.090537469909e-03       7.815672670709e+03 
       2.257310435923e-03       8.352991062425e+03 
       2.437387742372e-03       8.920211617500e+03 
       2.631830745176e-03       9.517783309855e+03 
       2.841785470091e-03       1.014593654304e+04 
       3.068489367268e-03       1.080464379941e+04 
       3.313278604643e-03       1.149357159490e+04 
       3.577595943165e-03       1.221203099108e+04 
       3.862999240274e-03       1.295891661389e+04 
       4.171170631739e-03       1.373264576053e+04 
       4.503926445983e-03       1.453109595941e+04 
       4.863227909323e-03       1.535151572596e+04 
       5.251192705226e-03       1.619058621449e+04 
       5.670107455699e-03       1.704423327496e+04 
       6.122441198393e-03       1.790743863304e+04 
       6.610859938837e-03       1.877442996327e+04 
       7.138242363583e-03       1.963848088814e+04 
       7.707696806873e-03       2.049181725278e+04 
       8.322579570814e-03       2.132561008090e+04 
       8.986514707061e-03       2.212992956399e+04 
       9.703415376577e-03       2.289361876003e+04 
       1.047750691338e-02       2.360436149789e+04 
       1.131335172818e-02       2.424874051442e+04 
       1.221587619877e-02       2.481227039158e+04 
       1.319039970550e-02       2.527960680379e+04 
       1.424266598317e-02       2.563476750510e+04 
       1.537887697392e-02       2.586167486263e+04 
       1.660572938023e-02       2.594460074489e+04 
       1.793045412706e-02       2.586905590352e+04 
       1.936085890181e-02       2.562287466347e+04 
       2.090537352463e-02       2.519751187280e+04 
       2.257309535333e-02       2.458955460870e+04 
       2.437382002918e-02       2.380218860382e+04 
       2.631799944462e-02       2.284718396888e+04 
       2.841644545389e-02       2.174595097218e+04 
       3.067933355377e-02       2.053069025591e+04 
       3.311368470740e-02       1.924520958696e+04 
       3.571840443502e-02       1.794375476525e+04 
       3.847720348444e-02       1.668754610343e+04 
       4.135335538431e-02       1.553570661584e+04 
       4.429361667738e-02       1.453141879099e+04 
       4.724366439141e-02       1.369145809519e+04 
       5.016480835311e-02       1.300597993491e+04 
       5.303989620246e-02       1.244845973014e+04 
       5.586870669566e-02       1.198627335354e+04 
       5.866042680613e-02       1.158798969927e+04 
       6.142798932958e-02       1.122570034398e+04 
       6.418496440164e-02       1.087630941827e+04 
       6.694418833788e-02       1.052172414851e+04 
       6.971731106057e-02       1.014862054844e+04 
       7.251476155766e-02       9.748830290116e+03 
       7.534587671527e-02       9.319052665768e+03 
       7.821907666265e-02       8.860978671620e+03 
       8.114203772912e-02       8.380525714721e+03 
       8.412184535029e-02       7.887299564268e+03 
       8.716512279304e-02       7.393558429133e+03 
       9.027813695930e-02       6.912762493620e+03 
       9.346688431697e-02       6.458219855994e+03 
       9.673716028276e-02       6.041495771585e+03 
       1.000946150830e-01       5.671340768388e+03 
       1.035447986537e-01       5.352689721964e+03 
       1.070931966762e-01       5.085963648157e+03 
       1.107452594425e-01       4.867049116016e+03 
       1.145064249153e-01       4.687275279303e+03 
       1.183821370918e-01       4.534146974433e+03 
       1.223778605862e-01       4.392594242558e+03 
       1.264990921987e-01       4.246748497642e+03 
       1.307513701367e-01       4.082836673156e+03 
       1.351402814784e-01       3.891763510793e+03 
       1.396714684203e-01       3.671750130519e+03 
       1.443506338194e-01       3.428883244918e+03 
       1.491835465229e-01       3.176059796884e+03 
       1.541760469708e-01       2.929747125158e+03 
       1.593340535561e-01       2.706052834577e+03 
       1.646635702297e-01       2.516444015126e+03 
       1.701706958456e-01       2.365001771141e+03 
       1.758616357459e-01       2.247532075970e+03 
       1.817427160982e-01       2.152455998953e+03 
       1.878204015065e-01       2.064921764988e+03 
       1.941013164283e-01       1.968851242626e+03 
       2.005922709503e-01       1.854313140251e+03 
       2.073002914972e-01       1.722187825882e+03 
       2.142326570816e-01       1.583220777679e+03 
       2.213969417533e-01       1.451633634379e+03 
       2.288010639706e-01       1.338600519719e+03 
       2.364533437147e-01       1.248477954490e+03 
       2.443625682930e-01       1.177278386936e+03 
       2.525380679504e-01       1.114078865619e+03 
       2.609898026346e-01       1.047560511751e+03 
       2.697284615565e-01       9.726656280918e+02 
       2.787655775689e-01       8.925093465890e+02 
       2.881136588829e-01       8.160034074926e+02 
       2.977863412677e-01       7.509175094821e+02 
       3.077985646929e-01       6.976886885465e+02 
       3.181667794071e-01       6.507989489848e+02 
       3.289091877812e-01       6.035936020596e+02 
       3.400460299658e-01       5.536814620806e+02 
       3.515999236474e-01       5.046056497562e+02 
       3.635962711085e-01       4.608002576502e+02 
       3.760637506334e-01       4.233150627123e+02 
       3.890349143879e-01       3.888334162325e+02 
       4.025469216825e-01       3.546202186424e+02 
       4.166424456376e-01       3.211016579276e+02 
       4.313708035863e-01       2.904925555823e+02 
       4.467893782977e-01       2.631400517160e+02 
       4.629654199664e-01       2.376278187863e+02 
       4.799783501994e-01       2.130054190497e+02 
       4.979227319373e-01       1.900478816231e+02 
       5.169121270864e-01       1.692636247128e+02 
       5.370841404489e-01       1.498084388698e+02 
       5.586070464571e-01       1.315264481147e+02 
       5.816885094930e-01       1.147625253103e+02 
       6.065870144995e-01       9.925096599821e+01 
       6.336266468475e-01       8.486764174383e+01 
       6.632156059511e-01       7.170344835660e+01 
       6.958678639263e-01       5.962194120758e+01 
       7.322247985589e-01       4.866517722364e+01 
       7.730680195114e-01       3.880193753219e+01 
       8.193049553677e-01       3.007802757516e+01 
       8.718988016039e-01       2.253186902670e+01 
       9.317218031082e-01       1.621606912496e+01 
       9.993660908989e-01       1.115058767457e+01 
       1.075037110174e+00       7.285986594956e+00 
       1.158653485707e+00       4.494066162932e+00 
       1.250099157308e+00       2.589240858638e+00 
       1.349432401273e+00       1.365766295947e+00 
       1.456947457397e+00       6.353301366452e-01 
       1.573135111331e+00       2.407601284206e-01 
       1.698621895592e+00       5.989440958045e-02 
       1.834127512934e+00       2.916554553347e-03 
       1.980444934528e+00       7.591944502359e-03 
       2.138435191726e+00       3.406792098516e-02 
       2.309029199186e+00       5.977951884973e-02 
       2.493232377687e+00       7.454026058402e-02 
       2.692130395285e+00       7.644841739112e-02 
       2.906895534573e+00       6.803403297662e-02 
       3.138793597714e+00       5.372264363388e-02 
       3.389191366484e+00       3.788302031657e-02 
       3.659564657905e+00       2.371161735622e-02 
       3.951507022538e+00       1.293005133392e-02 
       4.266739136701e+00       5.899225757019e-03 
       4.607118943941e+00       2.057007149685e-03 
       4.974652605557e+00       4.215563676184e-04 
       5.371506324689e+00       7.179027469665e-06 
       5.800019113685e+00       7.429512396965e-05 
       6.262716579983e+00       2.033194488185e-04 
       6.762325811764e+00       2.421010712085e-04 
       7.301791451110e+00       1.940116824396e-04 
       7.884293049406e+00       1.148790585905e-04 
       8.513263807261e+00       4.969979551678e-05 
       9.192410809424e+00       1.396524967230e-05 
       9.925736873929e+00       1.546589321703e-06 
       1.071756414427e+01       8.959950517253e-08 
       1.157255956364e+01       9.838515904069e-07 
       1.249576238137e+01       1.163805377277e-06 
       1.349261385375e+01       6.915872149525e-07 
       1.456898931416e+01       2.390820877532e-07 
       1.573123280165e+01       4.031080868854e-08 
       1.698619445202e+01       7.206413769100e-10 
       1.834127087176e+01       1.503751371924e-09 
       1.980444873285e+01       1.238227288380e-09 
       2.138435184532e+01       4.172022017707e-11 
       2.309029198506e+01       4.003025034513e-10 
       2.493232377636e+01       9.675618188134e-10 
       2.692130395282e+01       9.584935790051e-10 
       2.906895534573e+01       6.456191843176e-10 
       3.138793597714e+01       3.889983073268e-10 
       3.389191366484e+01       2.725774150906e-10 
       3.659564657905e+01       2.097308719370e-10 
       3.951507022538e+01       1.676548523470e-10 
       4.266739136701e+01       1.263150171245e-10 
       4.607118943941e+01       9.505763391198e-11 
       4.974652605557e+01       6.937449231372e-11 
       5.371506324689e+01       5.029979391264e-11 
       5.800019113685e+01       3.733596016638e-11 
       6.262716579983e+01       2.696428682167e-11 
       6.762325811764e+01       1.925405104387e-11 
       7.301791451110e+01       1.394873784766e-11 
       7.884293049406e+01       1.036538810237e-11 
       8.513263807261e+01       7.538307544804e-12 
       9.192410809424e+01       5.327516688418e-12 
       9.925736873929e+01       3.772954673785e-12 
       1.071756414427e+02       2.497683321915e-12 
       1.157255956364e+02       1.836794896116e-12 
       1.249576238137e+02       1.163987492708e-12 
       1.349261385375e+02       9.815442047501e-13 
