# Matter power spectrum P(k) at redshift z=99
# for k=1.04775e-05 to 134.926 h/Mpc,
# number of wavenumbers equal to 255
#    1:k (h/Mpc)              2:P (Mpc/h)^3        
       1.047750691338e-05       7.261927224138e-03 
       1.131335172818e-05       7.820332289536e-03 
       1.221587619877e-05       8.421675531580e-03 
       1.319039970550e-05       9.069257898737e-03 
       1.424266598317e-05       9.766636624166e-03 
       1.537887697396e-05       1.051763992286e-02 
       1.660572938097e-05       1.132639270817e-02 
       1.793045413791e-05       1.219733223019e-02 
       1.936085902737e-05       1.313524210472e-02 
       2.090537469909e-05       1.414527110001e-02 
       2.257310435923e-05       1.523296571465e-02 
       2.437387742372e-05       1.640429683673e-02 
       2.631830745176e-05       1.766569634469e-02 
       2.841785470091e-05       1.902408744723e-02 
       3.068489367268e-05       2.048693003504e-02 
       3.313278604643e-05       2.206225506359e-02 
       3.577595943165e-05       2.375870924994e-02 
       3.862999240274e-05       2.558560714996e-02 
       4.171170631739e-05       2.755297721765e-02 
       4.503926445983e-05       2.967161986370e-02 
       4.863227909323e-05       3.195316512770e-02 
       5.251192705226e-05       3.441013526207e-02 
       5.670107455699e-05       3.705601808442e-02 
       6.122441198393e-05       3.990533485022e-02 
       6.610859938837e-05       4.297372325258e-02 
       7.138242363583e-05       4.627802139252e-02 
       7.707696806873e-05       4.983636249568e-02 
       8.322579570814e-05       5.366826882440e-02 
       8.986514707061e-05       5.779476422333e-02 
       9.703415376577e-05       6.223848331828e-02 
       1.047750691338e-04       6.702379943761e-02 
       1.131335172818e-04       7.217695070707e-02 
       1.221587619877e-04       7.772619164365e-02 
       1.319039970550e-04       8.370193529085e-02 
       1.424266598317e-04       9.013692665706e-02 
       1.537887697396e-04       9.706641300887e-02 
       1.660572938097e-04       1.045283361514e-01 
       1.793045413791e-04       1.125635348954e-01 
       1.936085902737e-04       1.212159612750e-01 
       2.090537469909e-04       1.305329130276e-01 
       2.257310435923e-04       1.405652843963e-01 
       2.437387742372e-04       1.513678301368e-01 
       2.631830745176e-04       1.629994503463e-01 
       2.841785470091e-04       1.755234920938e-01 
       3.068489367268e-04       1.890080677992e-01 
       3.313278604643e-04       2.035264012483e-01 
       3.577595943165e-04       2.191571815616e-01 
       3.862999240274e-04       2.359849463516e-01 
       4.171170631739e-04       2.541004756059e-01 
       4.503926445983e-04       2.736012107183e-01 
       4.863227909323e-04       2.945916823755e-01 
       5.251192705226e-04       3.171839560185e-01 
       5.670107455699e-04       3.414980824738e-01 
       6.122441198393e-04       3.676625475313e-01 
       6.610859938837e-04       3.958147335282e-01 
       7.138242363583e-04       4.261013397843e-01 
       7.707696806873e-04       4.586787949908e-01 
       8.322579570814e-04       4.937136184929e-01 
       8.986514707061e-04       5.313827036878e-01 
       9.703415376577e-04       5.718735253705e-01 
       1.047750691338e-03       6.153842004464e-01 
       1.131335172818e-03       6.621233701534e-01 
       1.221587619877e-03       7.123098820708e-01 
       1.319039970550e-03       7.661721337380e-01 
       1.424266598317e-03       8.239547249889e-01 
       1.537887697396e-03       8.859012341917e-01 
       1.660572938097e-03       9.522589538471e-01 
       1.793045413791e-03       1.023280286463e+00 
       1.936085902737e-03       1.099216540109e+00 
       2.090537469909e-03       1.180313277705e+00 
       2.257310435923e-03       1.266804472036e+00 
       2.437387742372e-03       1.358905303440e+00 
       2.631830745176e-03       1.456803246951e+00 
       2.841785470091e-03       1.560647605037e+00 
       3.068489367268e-03       1.670536926907e+00 
       3.313278604643e-03       1.786504839009e+00 
       3.577595943165e-03       1.908504260675e+00 
       3.862999240274e-03       2.036389405901e+00 
       4.171170631739e-03       2.169898195943e+00 
       4.503926445983e-03       2.308634227670e+00 
       4.863227909323e-03       2.452050132880e+00 
       5.251192705226e-03       2.599433958558e+00 
       5.670107455699e-03       2.749899911147e+00 
       6.122441198393e-03       2.902388759937e+00 
       6.610859938837e-03       3.055670001284e+00 
       7.138242363583e-03       3.208357072412e+00 
       7.707696806873e-03       3.358922974808e+00 
       8.322579570814e-03       3.505723331902e+00 
       8.986514707061e-03       3.647006367113e+00 
       9.703415376577e-03       3.780917479167e+00 
       1.047750691338e-02       3.905481530136e+00 
       1.131335172818e-02       4.018574768730e+00 
       1.221587619877e-02       4.117883112202e+00 
       1.319039970550e-02       4.200891759620e+00 
       1.424266598317e-02       4.264909840134e+00 
       1.537887697392e-02       4.307175609060e+00 
       1.660572938023e-02       4.325005452788e+00 
       1.793045412706e-02       4.315987156544e+00 
       1.936085890181e-02       4.278135469537e+00 
       2.090537352463e-02       4.210085624813e+00 
       2.257309535333e-02       4.111268737587e+00 
       2.437382002918e-02       3.982232913205e+00 
       2.631799944462e-02       3.824935223707e+00 
       2.841644545389e-02       3.642996513851e+00 
       3.067933355377e-02       3.441847747508e+00 
       3.311368470740e-02       3.228813954610e+00 
       3.571840443502e-02       3.013002619199e+00 
       3.847720348444e-02       2.804687387990e+00 
       4.135335538431e-02       2.613714436707e+00 
       4.429361667738e-02       2.447334772688e+00 
       4.724366439141e-02       2.308335295358e+00 
       5.016480835311e-02       2.195115140947e+00 
       5.303989620246e-02       2.103269801761e+00 
       5.586870669566e-02       2.027268330486e+00 
       5.866042680613e-02       1.961871813205e+00 
       6.142798932958e-02       1.902411868287e+00 
       6.418496440164e-02       1.845035059414e+00 
       6.694418833788e-02       1.786684307157e+00 
       6.971731106057e-02       1.725140177580e+00 
       7.251476155766e-02       1.659023381320e+00 
       7.534587671527e-02       1.587791760271e+00 
       7.821907666265e-02       1.511716344298e+00 
       8.114203772912e-02       1.431812486076e+00 
       8.412184535029e-02       1.349705758626e+00 
       8.716512279304e-02       1.267458548418e+00 
       9.027813695930e-02       1.187348972296e+00 
       9.346688431697e-02       1.111630412172e+00 
       9.673716028276e-02       1.042269292238e+00 
       1.000946150830e-01       9.807624563920e-01 
       1.035447986537e-01       9.279472477799e-01 
       1.070931966762e-01       8.839198629089e-01 
       1.107452594425e-01       8.479750257951e-01 
       1.145064249153e-01       8.186472595216e-01 
       1.183821370918e-01       7.938064721330e-01 
       1.223778605862e-01       7.708660340738e-01 
       1.264990921987e-01       7.471178650147e-01 
       1.307513701367e-01       7.201822410722e-01 
       1.351402814784e-01       6.885056791949e-01 
       1.396714684203e-01       6.517646366227e-01 
       1.443506338194e-01       6.110093360615e-01 
       1.491835465229e-01       5.684578501345e-01 
       1.541760469708e-01       5.269631222204e-01 
       1.593340535561e-01       4.893124808292e-01 
       1.646635702297e-01       4.575138188200e-01 
       1.701706958456e-01       4.323003540383e-01 
       1.758616357459e-01       4.129468931102e-01 
       1.817427160982e-01       3.974355357099e-01 
       1.878204015065e-01       3.831447875085e-01 
       1.941013164283e-01       3.672463342373e-01 
       2.005922709503e-01       3.479773851641e-01 
       2.073002914972e-01       3.254878589288e-01 
       2.142326570816e-01       3.016824125818e-01 
       2.213969417533e-01       2.791036378460e-01 
       2.288010639706e-01       2.597627641507e-01 
       2.364533437147e-01       2.444664228380e-01 
       2.443625682930e-01       2.325050230939e-01 
       2.525380679504e-01       2.218961020081e-01 
       2.609898026346e-01       2.105694563719e-01 
       2.697284615565e-01       1.975919344454e-01 
       2.787655775689e-01       1.835380299593e-01 
       2.881136588829e-01       1.700641919314e-01 
       2.977863412677e-01       1.586325389372e-01 
       3.077985646929e-01       1.493361151836e-01 
       3.181667794071e-01       1.411401728885e-01 
       3.289091877812e-01       1.327758330796e-01 
       3.400460299658e-01       1.237843956999e-01 
       3.515999236474e-01       1.148529654270e-01 
       3.635962711085e-01       1.068550240480e-01 
       3.760637506334e-01       1.000077032762e-01 
       3.890349143879e-01       9.365611479019e-02 
       4.025469216825e-01       8.725315435295e-02 
       4.166424456376e-01       8.088978260129e-02 
       4.313708035863e-01       7.502467788881e-02 
       4.467893782977e-01       6.973840647495e-02 
       4.629654199664e-01       6.473696316380e-02 
       4.799783501994e-01       5.982018061632e-02 
       4.979227319373e-01       5.516089663103e-02 
       5.169121270864e-01       5.087636811976e-02 
       5.370841404489e-01       4.678050471853e-02 
       5.586070464571e-01       4.284153297489e-02 
       5.816885094930e-01       3.914324193679e-02 
       6.065870144995e-01       3.562406512733e-02 
       6.336266468475e-01       3.225596099126e-02 
       6.632156059511e-01       2.906177022430e-02 
       6.958678639263e-01       2.600626183381e-02 
       7.322247985589e-01       2.309879675208e-02 
       7.730680195114e-01       2.032886261730e-02 
       8.193049553677e-01       1.770697243307e-02 
       8.718988016039e-01       1.524587176970e-02 
       9.317218031082e-01       1.297047168545e-02 
       9.993660908989e-01       1.090968292982e-02 
       1.075037110174e+00       9.086311701272e-03 
       1.158653485707e+00       7.508674960212e-03 
       1.250099157308e+00       6.168139864286e-03 
       1.349432401273e+00       5.042183636323e-03 
       1.456947457397e+00       4.103681422693e-03 
       1.573135111331e+00       3.325281691000e-03 
       1.698621895592e+00       2.682097011929e-03 
       1.834127512934e+00       2.152626174575e-03 
       1.980444934528e+00       1.718257924701e-03 
       2.138435191726e+00       1.363351425586e-03 
       2.309029199186e+00       1.074627345843e-03 
       2.493232377687e+00       8.408788596284e-04 
       2.692130395285e+00       6.526237882674e-04 
       2.906895534573e+00       5.019249735939e-04 
       3.138793597714e+00       3.820925680154e-04 
       3.389191366484e+00       2.875363306388e-04 
       3.659564657905e+00       2.135605276890e-04 
       3.951507022538e+00       1.562757884819e-04 
       4.266739136701e+00       1.124067842629e-04 
       4.607118943941e+00       7.926034045382e-05 
       4.974652605557e+00       5.459939910222e-05 
       5.371506324689e+00       3.658326842988e-05 
       5.800019113685e+00       2.370576677170e-05 
       6.262716579983e+00       1.473875353726e-05 
       6.762325811764e+00       8.694311198631e-06 
       7.301791451110e+00       4.783412237782e-06 
       7.884293049406e+00       2.385550885880e-06 
       8.513263807261e+00       1.022947856839e-06 
       9.192410809424e+00       3.341163581442e-07 
       9.925736873929e+00       5.523822239972e-08 
       1.071756414427e+01       7.358479109063e-10 
       1.157255956364e+01       4.743677398636e-08 
       1.249576238137e+01       1.199406110079e-07 
       1.349261385375e+01       1.782241137602e-07 
       1.456898931416e+01       2.064408054015e-07 
       1.573123280165e+01       2.041092480571e-07 
       1.698619445202e+01       1.789411638316e-07 
       1.834127087176e+01       1.412149374012e-07 
       1.980444873285e+01       1.008008519286e-07 
       2.138435184532e+01       6.472109379525e-08 
       2.309029198506e+01       3.679884610440e-08 
       2.493232377636e+01       1.793595318940e-08 
       2.692130395282e+01       7.023442049006e-09 
       2.906895534573e+01       1.863018429720e-09 
       3.138793597714e+01       1.617364438162e-10 
       3.389191366484e+01       6.126132456984e-11 
       3.659564657905e+01       3.841259182127e-10 
       3.951507022538e+01       5.850438874133e-10 
       4.266739136701e+01       5.560849714286e-10 
       4.607118943941e+01       3.893714172368e-10 
       4.974652605557e+01       2.071233818803e-10 
       5.371506324689e+01       8.027764412978e-11 
       5.800019113685e+01       1.897025658632e-11 
       6.262716579983e+01       1.155178382145e-12 
       6.762325811764e+01       7.316426312525e-13 
       7.301791451110e+01       2.650826305708e-12 
       7.884293049406e+01       2.595126091176e-12 
       8.513263807261e+01       1.422087646647e-12 
       9.192410809424e+01       4.684802358816e-13 
       9.925736873929e+01       7.622305573482e-14 
       1.071756414427e+02       1.265268696086e-15 
       1.157255956364e+02       2.620997343541e-15 
       1.249576238137e+02       1.767032123223e-15 
       1.349261385375e+02       2.744981755829e-18 
