# Matter power spectrum P(k) at redshift z=0
# for k=1.04775e-05 to 134.926 h/Mpc,
# number of wavenumbers equal to 255
#    1:k (h/Mpc)              2:P (Mpc/h)^3        
       1.047750691338e-05       5.020963906804e+01 
       1.131335172818e-05       5.407048937151e+01 
       1.221587619877e-05       5.822820724030e+01 
       1.319039970550e-05       6.270562047267e+01 
       1.424266598317e-05       6.752731476098e+01 
       1.537887697396e-05       7.271975715396e+01 
       1.660572938097e-05       7.831147101244e+01 
       1.793045413791e-05       8.433312302134e+01 
       1.936085902737e-05       9.081780130647e+01 
       2.090537469909e-05       9.780107451722e+01 
       2.257310435923e-05       1.053212938596e+02 
       2.437387742372e-05       1.134197268469e+02 
       2.631830745176e-05       1.221408285635e+02 
       2.841785470091e-05       1.315324590474e+02 
       3.068489367268e-05       1.416461671322e+02 
       3.313278604643e-05       1.525374479138e+02 
       3.577595943165e-05       1.642660516991e+02 
       3.862999240274e-05       1.768963429349e+02 
       4.171170631739e-05       1.904975997816e+02 
       4.503926445983e-05       2.051444243234e+02 
       4.863227909323e-05       2.209171412047e+02 
       5.251192705226e-05       2.379022266156e+02 
       5.670107455699e-05       2.561927841253e+02 
       6.122441198393e-05       2.758890480310e+02 
       6.610859938837e-05       2.970989214004e+02 
       7.138242363583e-05       3.199385559930e+02 
       7.707696806873e-05       3.445329727006e+02 
       8.322579570814e-05       3.710167324004e+02 
       8.986514707061e-05       3.995346444125e+02 
       9.703415376577e-05       4.302425389349e+02 
       1.047750691338e-04       4.633080773457e+02 
       1.131335172818e-04       4.989116273567e+02 
       1.221587619877e-04       5.372471938792e+02 
       1.319039970550e-04       5.785234116849e+02 
       1.424266598317e-04       6.229645933152e+02 
       1.537887697396e-04       6.708118487502e+02 
       1.660572938097e-04       7.223242657756e+02 
       1.793045413791e-04       7.777801571231e+02 
       1.936085902737e-04       8.374783638364e+02 
       2.090537469909e-04       9.017396276554e+02 
       2.257310435923e-04       9.709080297651e+02 
       2.437387742372e-04       1.045352453375e+03 
       2.631830745176e-04       1.125468127721e+03 
       2.841785470091e-04       1.211678185928e+03 
       3.068489367268e-04       1.304435256065e+03 
       3.313278604643e-04       1.404223062922e+03 
       3.577595943165e-04       1.511558029577e+03 
       3.862999240274e-04       1.626990852555e+03 
       4.171170631739e-04       1.751108045602e+03 
       4.503926445983e-04       1.884533404754e+03 
       4.863227909323e-04       2.027929406956e+03 
       5.251192705226e-04       2.181998483912e+03 
       5.670107455699e-04       2.347484146066e+03 
       6.122441198393e-04       2.525171925195e+03 
       6.610859938837e-04       2.715890054977e+03 
       7.138242363583e-04       2.920509779318e+03 
       7.707696806873e-04       3.139945208048e+03 
       8.322579570814e-04       3.375152477013e+03 
       8.986514707061e-04       3.627128020454e+03 
       9.703415376577e-04       3.896905669498e+03 
       1.047750691338e-03       4.185552452598e+03 
       1.131335172818e-03       4.494162775548e+03 
       1.221587619877e-03       4.823851150559e+03 
       1.319039970550e-03       5.175743278661e+03 
       1.424266598317e-03       5.551020298610e+03 
       1.537887697396e-03       5.950789185327e+03 
       1.660572938097e-03       6.376124149902e+03 
       1.793045413791e-03       6.828075236372e+03 
       1.936085902737e-03       7.307627050743e+03 
       2.090537469909e-03       7.815673958611e+03 
       2.257310435923e-03       8.352992922349e+03 
       2.437387742372e-03       8.920214305436e+03 
       2.631830745176e-03       9.517787165418e+03 
       2.841785470091e-03       1.014594130490e+04 
       3.068489367268e-03       1.080465136223e+04 
       3.313278604643e-03       1.149358239148e+04 
       3.577595943165e-03       1.221204586349e+04 
       3.862999240274e-03       1.295893665782e+04 
       4.171170631739e-03       1.373267337630e+04 
       4.503926445983e-03       1.453113498664e+04 
       4.863227909323e-03       1.535157113180e+04 
       5.251192705226e-03       1.619066151292e+04 
       5.670107455699e-03       1.704433877774e+04 
       6.122441198393e-03       1.790758121176e+04 
       6.610859938837e-03       1.877461991049e+04 
       7.138242363583e-03       1.963874644972e+04 
       7.707696806873e-03       2.049217308906e+04 
       8.322579570814e-03       2.132608721106e+04 
       8.986514707061e-03       2.213056654580e+04 
       9.703415376577e-03       2.289447086005e+04 
       1.047750691338e-02       2.360549494030e+04 
       1.131335172818e-02       2.425023990973e+04 
       1.221587619877e-02       2.481424646673e+04 
       1.319039970550e-02       2.528219938089e+04 
       1.424266598317e-02       2.563814985851e+04 
       1.537887697392e-02       2.586607492347e+04 
       1.660572938023e-02       2.595026894607e+04 
       1.793045412706e-02       2.587635308278e+04 
       1.936085890181e-02       2.563219401865e+04 
       2.090537352463e-02       2.520936251308e+04 
       2.257309535333e-02       2.460444970553e+04 
       2.437382002918e-02       2.382088006702e+04 
       2.631799944462e-02       2.287044140170e+04 
       2.841644545389e-02       2.177448901448e+04 
       3.067933355377e-02       2.056555660117e+04 
       3.311368470740e-02       1.928730186277e+04 
       3.571840443502e-02       1.799400398804e+04 
       3.847720348444e-02       1.674682784547e+04 
       4.135335538431e-02       1.560457497261e+04 
       4.429361667738e-02       1.461035252288e+04 
       4.724366439141e-02       1.378053025497e+04 
       5.016480835311e-02       1.310502221022e+04 
       5.303989620246e-02       1.255714498035e+04 
       5.586870669566e-02       1.210419464667e+04 
       5.866042680613e-02       1.171461267413e+04 
       6.142798932958e-02       1.136042248233e+04 
       6.418496440164e-02       1.101850444699e+04 
       6.694418833788e-02       1.067063312578e+04 
       6.971731106057e-02       1.030350917672e+04 
       7.251476155766e-02       9.908956479825e+03 
       7.534587671527e-02       9.483675186544e+03 
       7.821907666265e-02       9.029443115536e+03 
       8.114203772912e-02       8.552249637869e+03 
       8.412184535029e-02       8.061843860793e+03 
       8.716512279304e-02       7.570680469679e+03 
       9.027813695930e-02       7.092407267499e+03 
       9.346688431697e-02       6.640454410619e+03 
       9.673716028276e-02       6.226639593766e+03 
       1.000946150830e-01       5.859862969121e+03 
       1.035447986537e-01       5.545172626146e+03 
       1.070931966762e-01       5.283066362977e+03 
       1.107452594425e-01       5.069355108094e+03 
       1.145064249153e-01       4.895174253582e+03 
       1.183821370918e-01       4.747762932427e+03 
       1.223778605862e-01       4.611637326349e+03 
       1.264990921987e-01       4.470536108025e+03 
       1.307513701367e-01       4.310159565034e+03 
       1.351402814784e-01       4.121270876626e+03 
       1.396714684203e-01       3.901967022987e+03 
       1.443506338194e-01       3.658563058271e+03 
       1.491835465229e-01       3.404402602427e+03 
       1.541760469708e-01       3.156584189359e+03 
       1.593340535561e-01       2.931861399371e+03 
       1.646635702297e-01       2.742276414184e+03 
       1.701706958456e-01       2.592153254848e+03 
       1.758616357459e-01       2.477134340734e+03 
       1.817427160982e-01       2.385078919826e+03 
       1.878204015065e-01       2.300260791733e+03 
       1.941013164283e-01       2.205651067715e+03 
       2.005922709503e-01       2.090712082063e+03 
       2.073002914972e-01       1.956358310111e+03 
       2.142326570816e-01       1.814085937577e+03 
       2.213969417533e-01       1.679178319299e+03 
       2.288010639706e-01       1.563736795914e+03 
       2.364533437147e-01       1.472577822637e+03 
       2.443625682930e-01       1.401414313126e+03 
       2.525380679504e-01       1.338306074288e+03 
       2.609898026346e-01       1.270794942778e+03 
       2.697284615565e-01       1.193275402801e+03 
       2.787655775689e-01       1.109234994358e+03 
       2.881136588829e-01       1.028661731434e+03 
       2.977863412677e-01       9.603738497364e+02 
       3.077985646929e-01       9.049149181375e+02 
       3.181667794071e-01       8.560377596048e+02 
       3.289091877812e-01       8.060808636346e+02 
       3.400460299658e-01       7.522855336787e+02 
       3.515999236474e-01       6.988166420604e+02 
       3.635962711085e-01       6.509582549390e+02 
       3.760637506334e-01       6.100174001220e+02 
       3.890349143879e-01       5.720272867030e+02 
       4.025469216825e-01       5.336790544421e+02 
       4.166424456376e-01       4.955300569654e+02 
       4.313708035863e-01       4.603672452455e+02 
       4.467893782977e-01       4.286757085373e+02 
       4.629654199664e-01       3.986719606185e+02 
       4.799783501994e-01       3.691419930643e+02 
       4.979227319373e-01       3.411412311892e+02 
       5.169121270864e-01       3.153861350718e+02 
       5.370841404489e-01       2.907393300995e+02 
       5.586070464571e-01       2.670105128705e+02 
       5.816885094930e-01       2.447156465077e+02 
       6.065870144995e-01       2.234748889932e+02 
       6.336266468475e-01       2.031186080697e+02 
       6.632156059511e-01       1.837882461882e+02 
       6.958678639263e-01       1.652660378934e+02 
       7.322247985589e-01       1.476087289002e+02 
       7.730680195114e-01       1.307487534668e+02 
       8.193049553677e-01       1.147478387694e+02 
       8.718988016039e-01       9.968138534400e+01 
       9.317218031082e-01       8.569851466769e+01 
       9.993660908989e-01       7.297779780337e+01 
       1.075037110174e+00       6.166146171031e+01 
       1.158653485707e+00       5.180696825417e+01 
       1.250099157308e+00       4.337062800139e+01 
       1.349432401273e+00       3.622237303081e+01 
       1.456947457397e+00       3.020335691408e+01 
       1.573135111331e+00       2.515238922279e+01 
       1.698621895592e+00       2.092216439927e+01 
       1.834127512934e+00       1.738484257769e+01 
       1.980444934528e+00       1.443031047082e+01 
       2.138435191726e+00       1.196581294979e+01 
       2.309029199186e+00       9.912236591336e+00 
       2.493232377687e+00       8.202919969502e+00 
       2.692130395285e+00       6.781763660008e+00 
       2.906895534573e+00       5.601386095776e+00 
       3.138793597714e+00       4.621948527361e+00 
       3.389191366484e+00       3.810043022487e+00 
       3.659564657905e+00       3.137660788250e+00 
       3.951507022538e+00       2.581359005961e+00 
       4.266739136701e+00       2.121522175667e+00 
       4.607118943941e+00       1.741751217860e+00 
       4.974652605557e+00       1.428397955839e+00 
       5.371506324689e+00       1.170084293275e+00 
       5.800019113685e+00       9.573228612990e-01 
       6.262716579983e+00       7.822440414767e-01 
       6.762325811764e+00       6.382977570103e-01 
       7.301791451110e+00       5.200752560114e-01 
       7.884293049406e+00       4.230563939336e-01 
       8.513263807261e+00       3.435284005920e-01 
       9.192410809424e+00       2.784008532572e-01 
       9.925736873929e+00       2.251331019929e-01 
       1.071756414427e+01       1.816133376341e-01 
       1.157255956364e+01       1.461077122590e-01 
       1.249576238137e+01       1.171832700600e-01 
       1.349261385375e+01       9.365889709563e-02 
       1.456898931416e+01       7.456263144245e-02 
       1.573123280165e+01       5.909390371496e-02 
       1.698619445202e+01       4.659448882633e-02 
       1.834127087176e+01       3.652327993411e-02 
       1.980444873285e+01       2.843552247916e-02 
       2.138435184532e+01       2.196631273823e-02 
       2.309029198506e+01       1.681623419943e-02 
       2.493232377636e+01       1.273858692874e-02 
       2.692130395282e+01       9.531979619329e-03 
       2.906895534573e+01       7.030085011004e-03 
       3.138793597714e+01       5.096944585211e-03 
       3.389191366484e+01       3.620716843139e-03 
       3.659564657905e+01       2.509375117174e-03 
       3.951507022538e+01       1.687377074540e-03 
       4.266739136701e+01       1.092610293538e-03 
       4.607118943941e+01       6.740532638760e-04 
       4.974652605557e+01       3.898453399455e-04 
       5.371506324689e+01       2.059731554728e-04 
       5.800019113685e+01       9.480331546366e-05 
       6.262716579983e+01       3.428053141305e-05 
       6.762325811764e+01       7.091839919703e-06 
       7.301791451110e+01       1.363149683449e-08 
       7.884293049406e+01       3.348630761703e-06 
       8.513263807261e+01       1.042263132594e-05 
       9.192410809424e+01       1.706993441045e-05 
       9.925736873929e+01       2.115244395337e-05 
       1.071756414427e+02       2.204582595329e-05 
       1.157255956364e+02       2.013587031743e-05 
       1.249576238137e+02       1.638368133449e-05 
       1.349261385375e+02       1.189344021364e-05 
