# Matter power spectrum P(k) at redshift z=99
# for k=1.04775e-05 to 134.926 h/Mpc,
# number of wavenumbers equal to 255
#    1:k (h/Mpc)              2:P (Mpc/h)^3        
       1.047750691338e-05       7.261927258338e-03 
       1.131335172818e-05       7.820332326363e-03 
       1.221587619877e-05       8.421675571254e-03 
       1.319039970550e-05       9.069257941439e-03 
       1.424266598317e-05       9.766636670170e-03 
       1.537887697396e-05       1.051763997240e-02 
       1.660572938097e-05       1.132639276165e-02 
       1.793045413791e-05       1.219733228548e-02 
       1.936085902737e-05       1.313524216689e-02 
       2.090537469909e-05       1.414527116651e-02 
       2.257310435923e-05       1.523296578671e-02 
       2.437387742372e-05       1.640429691404e-02 
       2.631830745176e-05       1.766569642785e-02 
       2.841785470091e-05       1.902408753687e-02 
       3.068489367268e-05       2.048693013134e-02 
       3.313278604643e-05       2.206225516737e-02 
       3.577595943165e-05       2.375870936118e-02 
       3.862999240274e-05       2.558560726925e-02 
       4.171170631739e-05       2.755297734651e-02 
       4.503926445983e-05       2.967162000183e-02 
       4.863227909323e-05       3.195316527771e-02 
       5.251192705226e-05       3.441013542455e-02 
       5.670107455699e-05       3.705601825876e-02 
       6.122441198393e-05       3.990533503770e-02 
       6.610859938837e-05       4.297372345418e-02 
       7.138242363583e-05       4.627802190937e-02 
       7.707696806873e-05       4.983636272900e-02 
       8.322579570814e-05       5.366826907680e-02 
       8.986514707061e-05       5.779476449497e-02 
       9.703415376577e-05       6.223848361073e-02 
       1.047750691338e-04       6.702379975310e-02 
       1.131335172818e-04       7.217695148438e-02 
       1.221587619877e-04       7.772619201077e-02 
       1.319039970550e-04       8.370193562302e-02 
       1.424266598317e-04       9.013692709195e-02 
       1.537887697396e-04       9.706641345082e-02 
       1.660572938097e-04       1.045283366414e-01 
       1.793045413791e-04       1.125635354198e-01 
       1.936085902737e-04       1.212159618340e-01 
       2.090537469909e-04       1.305329136307e-01 
       2.257310435923e-04       1.405652850519e-01 
       2.437387742372e-04       1.513678308363e-01 
       2.631830745176e-04       1.629994510966e-01 
       2.841785470091e-04       1.755234929027e-01 
       3.068489367268e-04       1.890080686669e-01 
       3.313278604643e-04       2.035264021768e-01 
       3.577595943165e-04       2.191571825538e-01 
       3.862999240274e-04       2.359849474186e-01 
       4.171170631739e-04       2.541004767468e-01 
       4.503926445983e-04       2.736012119367e-01 
       4.863227909323e-04       2.945916836746e-01 
       5.251192705226e-04       3.171839574012e-01 
       5.670107455699e-04       3.414980839421e-01 
       6.122441198393e-04       3.676625490867e-01 
       6.610859938837e-04       3.958147351704e-01 
       7.138242363583e-04       4.261013415115e-01 
       7.707696806873e-04       4.586787967990e-01 
       8.322579570814e-04       4.937136203746e-01 
       8.986514707061e-04       5.313827056312e-01 
       9.703415376577e-04       5.718735273581e-01 
       1.047750691338e-03       6.153842024533e-01 
       1.131335172818e-03       6.621233721456e-01 
       1.221587619877e-03       7.123098840009e-01 
       1.319039970550e-03       7.661721355425e-01 
       1.424266598317e-03       8.239547266506e-01 
       1.537887697396e-03       8.859012355524e-01 
       1.660572938097e-03       9.522589546279e-01 
       1.793045413791e-03       1.023280286282e+00 
       1.936085902737e-03       1.099216538440e+00 
       2.090537469909e-03       1.180313273825e+00 
       2.257310435923e-03       1.266804464964e+00 
       2.437387742372e-03       1.358905291826e+00 
       2.631830745176e-03       1.456803228976e+00 
       2.841785470091e-03       1.560647583287e+00 
       3.068489367268e-03       1.670536895935e+00 
       3.313278604643e-03       1.786504849574e+00 
       3.577595943165e-03       1.908504183206e+00 
       3.862999240274e-03       2.036389266745e+00 
       4.171170631739e-03       2.169898011538e+00 
       4.503926445983e-03       2.308634033771e+00 
       4.863227909323e-03       2.452049808594e+00 
       5.251192705226e-03       2.599433627415e+00 
       5.670107455699e-03       2.749899319519e+00 
       6.122441198393e-03       2.902387805839e+00 
       6.610859938837e-03       3.055668876411e+00 
       7.138242363583e-03       3.208355562851e+00 
       7.707696806873e-03       3.358920863459e+00 
       8.322579570814e-03       3.505720458454e+00 
       8.986514707061e-03       3.647002379504e+00 
       9.703415376577e-03       3.780912121622e+00 
       1.047750691338e-02       3.905474257432e+00 
       1.131335172818e-02       4.018565041583e+00 
       1.221587619877e-02       4.117869944959e+00 
       1.319039970550e-02       4.200874161754e+00 
       1.424266598317e-02       4.264886376926e+00 
       1.537887697392e-02       4.307144506738e+00 
       1.660572938023e-02       4.324964342881e+00 
       1.793045412706e-02       4.315933184194e+00 
       1.936085890181e-02       4.278063656676e+00 
       2.090537352463e-02       4.209994142972e+00 
       2.257309535333e-02       4.111150850168e+00 
       2.437382002918e-02       3.982082017367e+00 
       2.631799944462e-02       3.824743734987e+00 
       2.841644545389e-02       3.642750742877e+00 
       3.067933355377e-02       3.441547443834e+00 
       3.311368470740e-02       3.228444626452e+00 
       3.571840443502e-02       3.012560170167e+00 
       3.847720348444e-02       2.804141211732e+00 
       4.135335538431e-02       2.613063924738e+00 
       4.429361667738e-02       2.446583013459e+00 
       4.724366439141e-02       2.307465233394e+00 
       5.016480835311e-02       2.194124944802e+00 
       5.303989620246e-02       2.102159767987e+00 
       5.586870669566e-02       2.026037938750e+00 
       5.866042680613e-02       1.960521061880e+00 
       6.142798932958e-02       1.900941031839e+00 
       6.418496440164e-02       1.843444621944e+00 
       6.694418833788e-02       1.784975915464e+00 
       6.971731106057e-02       1.723314109303e+00 
       7.251476155766e-02       1.657083521849e+00 
       7.534587671527e-02       1.585739123261e+00 
       7.821907666265e-02       1.509554365207e+00 
       8.114203772912e-02       1.429540065414e+00 
       8.412184535029e-02       1.347328494985e+00 
       8.716512279304e-02       1.264970622241e+00 
       9.027813695930e-02       1.184754007431e+00 
       9.346688431697e-02       1.108922528575e+00 
       9.673716028276e-02       1.039447611835e+00 
       1.000946150830e-01       9.778228863996e-01 
       1.035447986537e-01       9.248815834767e-01 
       1.070931966762e-01       8.807144265030e-01 
       1.107452594425e-01       8.446202172750e-01 
       1.145064249153e-01       8.151349136413e-01 
       1.183821370918e-01       7.901309913810e-01 
       1.223778605862e-01       7.670275819758e-01 
       1.264990921987e-01       7.431217305064e-01 
       1.307513701367e-01       7.160377684108e-01 
       1.351402814784e-01       6.842284053320e-01 
       1.396714684203e-01       6.473721910182e-01 
       1.443506338194e-01       6.065179064621e-01 
       1.491835465229e-01       5.638783660654e-01 
       1.541760469708e-01       5.222983058550e-01 
       1.593340535561e-01       4.845551885903e-01 
       1.646635702297e-01       4.526452794946e-01 
       1.701706958456e-01       4.272980791519e-01 
       1.758616357459e-01       4.077868074001e-01 
       1.817427160982e-01       3.921043271418e-01 
       1.878204015065e-01       3.776435635617e-01 
       1.941013164283e-01       3.615959980119e-01 
       2.005922709503e-01       3.422112444446e-01 
       2.073002914972e-01       3.196420592475e-01 
       2.142326570816e-01       2.957785385362e-01 
       2.213969417533e-01       2.731442101552e-01 
       2.288010639706e-01       2.537278298480e-01 
       2.364533437147e-01       2.383256811939e-01 
       2.443625682930e-01       2.262312891626e-01 
       2.525380679504e-01       2.154867935166e-01 
       2.609898026346e-01       2.040492133390e-01 
       2.697284615565e-01       1.910003094590e-01 
       2.787655775689e-01       1.769083935268e-01 
       2.881136588829e-01       1.634031753023e-01 
       2.977863412677e-01       1.519172844833e-01 
       3.077985646929e-01       1.425420954407e-01 
       3.181667794071e-01       1.342595751364e-01 
       3.289091877812e-01       1.258312162544e-01 
       3.400460299658e-01       1.168104547208e-01 
       3.515999236474e-01       1.078672511673e-01 
       3.635962711085e-01       9.984907530804e-02 
       3.760637506334e-01       9.296397755080e-02 
       3.890349143879e-01       8.657806606153e-02 
       4.025469216825e-01       8.016362655535e-02 
       4.166424456376e-01       7.380853619485e-02 
       4.313708035863e-01       6.795159991529e-02 
       4.467893782977e-01       6.266843073420e-02 
       4.629654199664e-01       5.767822642513e-02 
       4.799783501994e-01       5.279154119504e-02 
       4.979227319373e-01       4.817107022657e-02 
       5.169121270864e-01       4.392599746205e-02 
       5.370841404489e-01       3.988206789515e-02 
       5.586070464571e-01       3.600971666871e-02 
       5.816885094930e-01       3.238613308614e-02 
       6.065870144995e-01       2.895500099183e-02 
       6.336266468475e-01       2.569123816651e-02 
       6.632156059511e-01       2.261639956274e-02 
       6.958678639263e-01       1.970018027410e-02 
       7.322247985589e-01       1.695365631198e-02 
       7.730680195114e-01       1.437054520205e-02 
       8.193049553677e-01       1.196463458733e-02 
       8.718988016039e-01       9.752402725286e-03 
       9.317218031082e-01       7.760260528115e-03 
       9.993660908989e-01       6.016191035528e-03 
       1.075037110174e+00       4.538600981892e-03 
       1.158653485707e+00       3.328669517762e-03 
       1.250099157308e+00       2.369467825696e-03 
       1.349432401273e+00       1.630717270695e-03 
       1.456947457397e+00       1.078094285178e-03 
       1.573135111331e+00       6.777746214215e-04 
       1.698621895592e+00       3.988167999989e-04 
       1.834127512934e+00       2.140561530221e-04 
       1.980444934528e+00       9.996714418008e-05 
       2.138435191726e+00       3.667748428395e-05 
       2.309029199186e+00       7.742226105007e-06 
       2.493232377687e+00       2.271583477189e-08 
       2.692130395285e+00       3.503627325787e-06 
       2.906895534573e+00       1.106229046300e-05 
       3.138793597714e+00       1.814730792237e-05 
       3.389191366484e+00       2.239436402509e-05 
       3.659564657905e+00       2.310937998710e-05 
       3.951507022538e+00       2.078371965684e-05 
       4.266739136701e+00       1.652054809505e-05 
       4.607118943941e+00       1.159434208555e-05 
       4.974652605557e+00       7.070190505214e-06 
       5.371506324689e+00       3.609686706301e-06 
       5.800019113685e+00       1.420581126290e-06 
       6.262716579983e+00       3.413079662044e-07 
       6.762325811764e+00       1.218572072837e-08 
       7.301791451110e+00       4.609878517893e-08 
       7.884293049406e+00       1.561426563082e-07 
       8.513263807261e+00       2.026853459186e-07 
       9.192410809424e+00       1.690206588681e-07 
       9.925736873929e+00       9.899682755791e-08 
       1.071756414427e+01       3.874829811736e-08 
       1.157255956364e+01       7.674434699746e-09 
       1.249576238137e+01       4.000681090147e-11 
       1.349261385375e+01       1.575169693419e-09 
       1.456898931416e+01       2.848359526771e-09 
       1.573123280165e+01       2.014999798403e-09 
       1.698619445202e+01       7.091115065279e-10 
       1.834127087176e+01       8.080080098137e-11 
       1.980444873285e+01       4.845233466556e-12 
       2.138435184532e+01       3.580904783877e-11 
       2.309029198506e+01       2.236793912978e-11 
       2.493232377636e+01       3.172112175672e-12 
       2.692130395282e+01       1.993364578221e-13 
       2.906895534573e+01       1.437984228092e-12 
       3.138793597714e+01       8.442735227291e-13 
       3.389191366484e+01       1.711914098642e-13 
       3.659564657905e+01       1.958740505401e-14 
       3.951507022538e+01       1.158939943178e-14 
       4.266739136701e+01       2.231989393625e-14 
       4.607118943941e+01       2.426187863691e-14 
       4.974652605557e+01       1.728527647735e-14 
       5.371506324689e+01       8.802691840089e-15 
       5.800019113685e+01       6.186752945448e-15 
       6.262716579983e+01       3.908274739210e-15 
       6.762325811764e+01       2.477015345014e-15 
       7.301791451110e+01       1.171320517257e-15 
       7.884293049406e+01       7.769686753020e-16 
       8.513263807261e+01       4.940132839970e-16 
       9.192410809424e+01       1.901464972665e-16 
       9.925736873929e+01       8.476993024136e-17 
       1.071756414427e+02       3.677218202024e-17 
       1.157255956364e+02       1.181676277971e-17 
       1.249576238137e+02       2.372645059724e-18 
       1.349261385375e+02       7.193835685147e-19 
