# Matter power spectrum P(k) at redshift z=99
# for k=1.04775e-05 to 67.6233 h/Mpc,
# number of wavenumbers equal to 246
#    1:k (h/Mpc)              2:P (Mpc/h)^3        
       1.047750691338e-05       7.262777113681e-03 
       1.131335172818e-05       7.821247455511e-03 
       1.221587619877e-05       8.422662888185e-03 
       1.319039970550e-05       9.070322205848e-03 
       1.424266598317e-05       9.767781962920e-03 
       1.537887697396e-05       1.051887368890e-02 
       1.660572938097e-05       1.132771967522e-02 
       1.793045413791e-05       1.219876120388e-02 
       1.936085902737e-05       1.313677923960e-02 
       2.090537469909e-05       1.414692795713e-02 
       2.257310435923e-05       1.523474748428e-02 
       2.437387742372e-05       1.640621592902e-02 
       2.631830745176e-05       1.766776269542e-02 
       2.841785470091e-05       1.902631427012e-02 
       3.068489367268e-05       2.048932743041e-02 
       3.313278604643e-05       2.206483802795e-02 
       3.577595943165e-05       2.376149113206e-02 
       3.862999240274e-05       2.558860263664e-02 
       4.171170631739e-05       2.755620354064e-02 
       4.503926445983e-05       2.967509340823e-02 
       4.863227909323e-05       3.195690406922e-02 
       5.251192705226e-05       3.441416372664e-02 
       5.670107455699e-05       3.706035465356e-02 
       6.122441198393e-05       3.991000307040e-02 
       6.610859938837e-05       4.297875043706e-02 
       7.138242363583e-05       4.628343447981e-02 
       7.707696806873e-05       4.984219181048e-02 
       8.322579570814e-05       5.367454553331e-02 
       8.986514707061e-05       5.780152074593e-02 
       9.703415376577e-05       6.224575733381e-02 
       1.047750691338e-04       6.703162973634e-02 
       1.131335172818e-04       7.218537884936e-02 
       1.221587619877e-04       7.773526334963e-02 
       1.319039970550e-04       8.371169800534e-02 
       1.424266598317e-04       9.014743321515e-02 
       1.537887697396e-04       9.707771773707e-02 
       1.660572938097e-04       1.045404967702e-01 
       1.793045413791e-04       1.125766167876e-01 
       1.936085902737e-04       1.212300301490e-01 
       2.090537469909e-04       1.305480399329e-01 
       2.257310435923e-04       1.405815443087e-01 
       2.437387742372e-04       1.513853030904e-01 
       2.631830745176e-04       1.630182179221e-01 
       2.841785470091e-04       1.755436433336e-01 
       3.068489367268e-04       1.890296949499e-01 
       3.313278604643e-04       2.035495975367e-01 
       3.577595943165e-04       2.191820428534e-01 
       3.862999240274e-04       2.360115706633e-01 
       4.171170631739e-04       2.541289604663e-01 
       4.503926445983e-04       2.736316512370e-01 
       4.863227909323e-04       2.946241686905e-01 
       5.251192705226e-04       3.172185681322e-01 
       5.670107455699e-04       3.415348872111e-01 
       6.122441198393e-04       3.677015943804e-01 
       6.610859938837e-04       3.958560400336e-01 
       7.138242363583e-04       4.261448868339e-01 
       7.707696806873e-04       4.587245109496e-01 
       8.322579570814e-04       4.937613596699e-01 
       8.986514707061e-04       5.314322354556e-01 
       9.703415376577e-04       5.719244897921e-01 
       1.047750691338e-03       6.154360727681e-01 
       1.131335172818e-03       6.621754215558e-01 
       1.221587619877e-03       7.123610972711e-01 
       1.319039970550e-03       7.662211446526e-01 
       1.424266598317e-03       8.239997479919e-01 
       1.537887697396e-03       8.859396733760e-01 
       1.660572938097e-03       9.522873418139e-01 
       1.793045413791e-03       1.023294065031e+00 
       1.936085902737e-03       1.099209713702e+00 
       2.090537469909e-03       1.180277928673e+00 
       2.257310435923e-03       1.266730182253e+00 
       2.437387742372e-03       1.358778271821e+00 
       2.631830745176e-03       1.456605219786e+00 
       2.841785470091e-03       1.560354337375e+00 
       3.068489367268e-03       1.670116239867e+00 
       3.313278604643e-03       1.785913937364e+00 
       3.577595943165e-03       1.907685817619e+00 
       3.862999240274e-03       2.035267099323e+00 
       4.171170631739e-03       2.168369984535e+00 
       4.503926445983e-03       2.306563464371e+00 
       4.863227909323e-03       2.449254044932e+00 
       5.251192705226e-03       2.595668699272e+00 
       5.670107455699e-03       2.744840820698e+00 
       6.122441198393e-03       2.895603332608e+00 
       6.610859938837e-03       3.046585495105e+00 
       7.138242363583e-03       3.196218042856e+00 
       7.707696806873e-03       3.342739761469e+00 
       8.322579570814e-03       3.484206251771e+00 
       8.986514707061e-03       3.618489301443e+00 
       9.703415376577e-03       3.743262354989e+00 
       1.047750691338e-02       3.855969129236e+00 
       1.131335172818e-02       3.953769285376e+00 
       1.221587619877e-02       4.033483540508e+00 
       1.319039970550e-02       4.091557358366e+00 
       1.424266598317e-02       4.124069002784e+00 
       1.537887697392e-02       4.126825182423e+00 
       1.660572938023e-02       4.095525793073e+00 
       1.793045412706e-02       4.025995650739e+00 
       1.936085890181e-02       3.914431689676e+00 
       2.090537352463e-02       3.757723919419e+00 
       2.257309535333e-02       3.553847141468e+00 
       2.437382002918e-02       3.302417011346e+00 
       2.631799944462e-02       3.005396400894e+00 
       2.841644545389e-02       2.667825768324e+00 
       3.067933355377e-02       2.298518834006e+00 
       3.311368470740e-02       1.910669379519e+00 
       3.571840443502e-02       1.521995722126e+00 
       3.847720348444e-02       1.153608189101e+00 
       4.135335538431e-02       8.266466461524e-01 
       4.429361667738e-02       5.568547482454e-01 
       4.724366439141e-02       3.502391882336e-01 
       5.016480835311e-02       2.031105643141e-01 
       5.303989620246e-02       1.057772611949e-01 
       5.586870669566e-02       4.672488646501e-02 
       5.866042680613e-02       1.517670199437e-02 
       6.142798932958e-02       2.081259970244e-03 
       6.418496440164e-02       3.049254526689e-04 
       6.694418833788e-02       4.492281560195e-03 
       6.971731106057e-02       1.083349980031e-02 
       7.251476155766e-02       1.682532901698e-02 
       7.534587671527e-02       2.103588433440e-02 
       7.821907666265e-02       2.288067416767e-02 
       8.114203772912e-02       2.239921058491e-02 
       8.412184535029e-02       2.004543121257e-02 
       8.716512279304e-02       1.648788792746e-02 
       9.027813695930e-02       1.244217178275e-02 
       9.346688431697e-02       8.535207540446e-03 
       9.673716028276e-02       5.221309230609e-03 
       1.000946150830e-01       2.743411891857e-03 
       1.035447986537e-01       1.142183205843e-03 
       1.070931966762e-01       3.014436666968e-04 
       1.107452594425e-01       1.357109858661e-05 
       1.145064249153e-01       4.753481140870e-05 
       1.183821370918e-01       2.043570825022e-04 
       1.223778605862e-01       3.493522443042e-04 
       1.264990921987e-01       4.187416858900e-04 
       1.307513701367e-01       4.058791540724e-04 
       1.351402814784e-01       3.368304576895e-04 
       1.396714684203e-01       2.464092135740e-04 
       1.443506338194e-01       1.619307614032e-04 
       1.491835465229e-01       9.719919557138e-05 
       1.541760469708e-01       5.420219552893e-05 
       1.593340535561e-01       2.851305633590e-05 
       1.646635702297e-01       1.413733923458e-05 
       1.701706958456e-01       6.276634830992e-06 
       1.758616357459e-01       2.061938639514e-06 
       1.817427160982e-01       1.960811252741e-07 
       1.878204015065e-01       2.817602250374e-07 
       1.941013164283e-01       1.930129768425e-06 
       2.005922709503e-01       4.420831556034e-06 
       2.073002914972e-01       6.686500675733e-06 
       2.142326570816e-01       7.264608526838e-06 
       2.213969417533e-01       5.902100283698e-06 
       2.288010639706e-01       3.751198729259e-06 
       2.364533437147e-01       1.736279951579e-06 
       2.443625682930e-01       4.358117856823e-07 
       2.525380679504e-01       1.997763383560e-08 
       2.609898026346e-01       2.973850099891e-08 
       2.697284615565e-01       1.312451960307e-07 
       2.787655775689e-01       1.825637492798e-07 
       2.881136588829e-01       1.609068432968e-07 
       2.977863412677e-01       1.338872870933e-07 
       3.077985646929e-01       7.339858723308e-08 
       3.181667794071e-01       2.439754716413e-08 
       3.289091877812e-01       2.226046266375e-09 
       3.400460299658e-01       3.984357948543e-09 
       3.515999236474e-01       1.125071682161e-08 
       3.635962711085e-01       1.671591251014e-08 
       3.760637506334e-01       1.081533640323e-08 
       3.890349143879e-01       8.079438629197e-09 
       4.025469216825e-01       3.544186079344e-09 
       4.166424456376e-01       2.360872222121e-09 
       4.313708035863e-01       5.645682578656e-10 
       4.467893782977e-01       1.805273338754e-10 
       4.629654199664e-01       5.423853023171e-11 
       4.799783501994e-01       3.100795112033e-11 
       4.979227319373e-01       1.813543897941e-10 
       5.169121270864e-01       2.639858818301e-10 
       5.370841404489e-01       1.734213205043e-10 
       5.586070464571e-01       8.705614834338e-11 
       5.816885094930e-01       4.160571339945e-11 
       6.065870144995e-01       2.295709986834e-11 
       6.336266468475e-01       2.252223173353e-11 
       6.632156059511e-01       4.302829639284e-11 
       6.958678639263e-01       9.438490084288e-11 
       7.322247985589e-01       6.348548363825e-11 
       7.730680195114e-01       4.210041506188e-11 
       8.193049553677e-01       5.128583377975e-12 
       8.718988016039e-01       1.845284802967e-12 
       9.317218031082e-01       1.298487764458e-11 
       9.993660908989e-01       1.709273297706e-11 
       1.075037110174e+00       1.620179383581e-12 
       1.158653485707e+00       6.088891627817e-13 
       1.250099157308e+00       2.565698214400e-12 
       1.349432401273e+00       5.427503951003e-14 
       1.456947457397e+00       3.047190505189e-13 
       1.573135111331e+00       1.015223635745e-12 
       1.698621895592e+00       1.778983774952e-13 
       1.834127512934e+00       7.901336418639e-14 
       1.980444934528e+00       6.866233719600e-14 
       2.138435191726e+00       1.163879398343e-13 
       2.309029199186e+00       9.291978340127e-14 
       2.493232377687e+00       5.163644575589e-15 
       2.692130395285e+00       5.779944425143e-14 
       2.906895534573e+00       1.120642956332e-14 
       3.138793597714e+00       7.136034936821e-17 
       3.389191366484e+00       2.908556084954e-14 
       3.659564657905e+00       3.826378845992e-16 
       3.951507022538e+00       1.852459096134e-14 
       4.266739136701e+00       1.398848434077e-15 
       4.607118943941e+00       6.854167033164e-15 
       4.974652605557e+00       9.329275553294e-16 
       5.371506324689e+00       5.177935571145e-16 
       5.800019113685e+00       1.977528112588e-15 
       6.262716579983e+00       1.986230493495e-15 
       6.762325811764e+00       4.656323116303e-16 
       7.301791451110e+00       1.794930720479e-17 
       7.884293049406e+00       1.051209954048e-18 
       8.513263807261e+00       3.019850939256e-17 
       9.192410809424e+00       3.675674283880e-16 
       9.925736873929e+00       1.013669632405e-16 
       1.071756414427e+01       1.714322366119e-17 
       1.157255956364e+01       9.241856037479e-17 
       1.249576238137e+01       7.164420125216e-19 
       1.349261385375e+01       1.164519431175e-17 
       1.456898931416e+01       1.424994991662e-17 
       1.573123280165e+01       3.643201781953e-18 
       1.698619445202e+01       1.369853076551e-18 
       1.834127087176e+01       6.993632520980e-19 
       1.980444873285e+01       8.075797806036e-19 
       2.138435184532e+01       5.834484650255e-19 
       2.309029198506e+01       7.687611513890e-19 
       2.493232377636e+01       5.225866772169e-19 
       2.692130395282e+01       2.323420892172e-19 
       2.906895534573e+01       1.233174184429e-19 
       3.138793597714e+01       1.160497947348e-19 
       3.389191366484e+01       1.089163380222e-19 
       3.659564657905e+01       5.368611397784e-20 
       3.951507022538e+01       5.019811365813e-20 
       4.266739136701e+01       4.167157855356e-20 
       4.607118943941e+01       2.454859026912e-20 
       4.974652605557e+01       8.655933440049e-21 
       5.371506324689e+01       2.822855232545e-21 
       5.800019113685e+01       4.062766281339e-21 
       6.262716579983e+01       4.320578715640e-21 
       6.762325811764e+01       1.305449201827e-21 
