# Matter power spectrum P(k) at redshift z=0
# for k=1.04775e-05 to 213.844 h/Mpc,
# number of wavenumbers equal to 261
#    1:k (h/Mpc)              2:P (Mpc/h)^3        
       1.047750691338e-05       5.020963906804e+01 
       1.131335172818e-05       5.407048937153e+01 
       1.221587619877e-05       5.822820724030e+01 
       1.319039970550e-05       6.270562047283e+01 
       1.424266598317e-05       6.752731476099e+01 
       1.537887697396e-05       7.271975715397e+01 
       1.660572938097e-05       7.831147101242e+01 
       1.793045413791e-05       8.433312302132e+01 
       1.936085902737e-05       9.081780130647e+01 
       2.090537469909e-05       9.780107454496e+01 
       2.257310435923e-05       1.053212938596e+02 
       2.437387742372e-05       1.134197268469e+02 
       2.631830745176e-05       1.221408285644e+02 
       2.841785470091e-05       1.315324590474e+02 
       3.068489367268e-05       1.416461671243e+02 
       3.313278604643e-05       1.525374479438e+02 
       3.577595943165e-05       1.642660516706e+02 
       3.862999240274e-05       1.768963429323e+02 
       4.171170631739e-05       1.904975997811e+02 
       4.503926445983e-05       2.051444243234e+02 
       4.863227909323e-05       2.209171412045e+02 
       5.251192705226e-05       2.379022266165e+02 
       5.670107455699e-05       2.561927841263e+02 
       6.122441198393e-05       2.758890480801e+02 
       6.610859938837e-05       2.970989214027e+02 
       7.138242363583e-05       3.199385559930e+02 
       7.707696806873e-05       3.445329727006e+02 
       8.322579570814e-05       3.710167323996e+02 
       8.986514707061e-05       3.995346444128e+02 
       9.703415376577e-05       4.302425389349e+02 
       1.047750691338e-04       4.633080773457e+02 
       1.131335172818e-04       4.989116273929e+02 
       1.221587619877e-04       5.372471938790e+02 
       1.319039970550e-04       5.785234116801e+02 
       1.424266598317e-04       6.229645933180e+02 
       1.537887697396e-04       6.708118487490e+02 
       1.660572938097e-04       7.223242657752e+02 
       1.793045413791e-04       7.777801571189e+02 
       1.936085902737e-04       8.374783638364e+02 
       2.090537469909e-04       9.017396276844e+02 
       2.257310435923e-04       9.709080297650e+02 
       2.437387742372e-04       1.045352453374e+03 
       2.631830745176e-04       1.125468127720e+03 
       2.841785470091e-04       1.211678185928e+03 
       3.068489367268e-04       1.304435256065e+03 
       3.313278604643e-04       1.404223062922e+03 
       3.577595943165e-04       1.511558029577e+03 
       3.862999240274e-04       1.626990852555e+03 
       4.171170631739e-04       1.751108045601e+03 
       4.503926445983e-04       1.884533404753e+03 
       4.863227909323e-04       2.027929406955e+03 
       5.251192705226e-04       2.181998483911e+03 
       5.670107455699e-04       2.347484146065e+03 
       6.122441198393e-04       2.525171925193e+03 
       6.610859938837e-04       2.715890054974e+03 
       7.138242363583e-04       2.920509779315e+03 
       7.707696806873e-04       3.139945208043e+03 
       8.322579570814e-04       3.375152477006e+03 
       8.986514707061e-04       3.627128020445e+03 
       9.703415376577e-04       3.896905669487e+03 
       1.047750691338e-03       4.185552452580e+03 
       1.131335172818e-03       4.494162775522e+03 
       1.221587619877e-03       4.823851150524e+03 
       1.319039970550e-03       5.175743278611e+03 
       1.424266598317e-03       5.551020298538e+03 
       1.537887697396e-03       5.950789185222e+03 
       1.660572938097e-03       6.376124149750e+03 
       1.793045413791e-03       6.828075236152e+03 
       1.936085902737e-03       7.307627050425e+03 
       2.090537469909e-03       7.815673958155e+03 
       2.257310435923e-03       8.352992921698e+03 
       2.437387742372e-03       8.920214304491e+03 
       2.631830745176e-03       9.517787164100e+03 
       2.841785470091e-03       1.014594130304e+04 
       3.068489367268e-03       1.080465135960e+04 
       3.313278604643e-03       1.149358238779e+04 
       3.577595943165e-03       1.221204585831e+04 
       3.862999240274e-03       1.295893665060e+04 
       4.171170631739e-03       1.373267336626e+04 
       4.503926445983e-03       1.453113497272e+04 
       4.863227909323e-03       1.535157109915e+04 
       5.251192705226e-03       1.619066140548e+04 
       5.670107455699e-03       1.704433873768e+04 
       6.122441198393e-03       1.790758148880e+04 
       6.610859938837e-03       1.877462068592e+04 
       7.138242363583e-03       1.963873932428e+04 
       7.707696806873e-03       2.049217394250e+04 
       8.322579570814e-03       2.132612875936e+04 
       8.986514707061e-03       2.213056886883e+04 
       9.703415376577e-03       2.289447156743e+04 
       1.047750691338e-02       2.360549451335e+04 
       1.131335172818e-02       2.425023931005e+04 
       1.221587619877e-02       2.481424587699e+04 
       1.319039970550e-02       2.528220028750e+04 
       1.424266598317e-02       2.563814982738e+04 
       1.537887697392e-02       2.586607548483e+04 
       1.660572938023e-02       2.595026709165e+04 
       1.793045412706e-02       2.587635052676e+04 
       1.936085890181e-02       2.563218991369e+04 
       2.090537352463e-02       2.520936278499e+04 
       2.257309535333e-02       2.460444452058e+04 
       2.437382002918e-02       2.382087333661e+04 
       2.631799944462e-02       2.287043287598e+04 
       2.841644545389e-02       2.177447770574e+04 
       3.067933355377e-02       2.056553819432e+04 
       3.311368470740e-02       1.928726024705e+04 
       3.571840443502e-02       1.799398269506e+04 
       3.847720348444e-02       1.674680373658e+04 
       4.135335538431e-02       1.560454847492e+04 
       4.429361667738e-02       1.461032079557e+04 
       4.724366439141e-02       1.378049540593e+04 
       5.016480835311e-02       1.310498140666e+04 
       5.303989620246e-02       1.255710040305e+04 
       5.586870669566e-02       1.210415952775e+04 
       5.866042680613e-02       1.171456677156e+04 
       6.142798932958e-02       1.136035405872e+04 
       6.418496440164e-02       1.101848074054e+04 
       6.694418833788e-02       1.067058129583e+04 
       6.971731106057e-02       1.030342866893e+04 
       7.251476155766e-02       9.908866411976e+03 
       7.534587671527e-02       9.483609558486e+03 
       7.821907666265e-02       9.029336031406e+03 
       8.114203772912e-02       8.552153714210e+03 
       8.412184535029e-02       8.061760967959e+03 
       8.716512279304e-02       7.570593224704e+03 
       9.027813695930e-02       7.092324328519e+03 
       9.346688431697e-02       6.640386316791e+03 
       9.673716028276e-02       6.226557932096e+03 
       1.000946150830e-01       5.859767993528e+03 
       1.035447986537e-01       5.545093045786e+03 
       1.070931966762e-01       5.282967118837e+03 
       1.107452594425e-01       5.069245383755e+03 
       1.145064249153e-01       4.895063370871e+03 
       1.183821370918e-01       4.747650511064e+03 
       1.223778605862e-01       4.611527016954e+03 
       1.264990921987e-01       4.470412042351e+03 
       1.307513701367e-01       4.310039833353e+03 
       1.351402814784e-01       4.121152984522e+03 
       1.396714684203e-01       3.901845534173e+03 
       1.443506338194e-01       3.658399458897e+03 
       1.491835465229e-01       3.404250554941e+03 
       1.541760469708e-01       3.156448110824e+03 
       1.593340535561e-01       2.931727952162e+03 
       1.646635702297e-01       2.742143209496e+03 
       1.701706958456e-01       2.592015214731e+03 
       1.758616357459e-01       2.476995593182e+03 
       1.817427160982e-01       2.384932061389e+03 
       1.878204015065e-01       2.300105563074e+03 
       1.941013164283e-01       2.205499746450e+03 
       2.005922709503e-01       2.090556864239e+03 
       2.073002914972e-01       1.956200984223e+03 
       2.142326570816e-01       1.813926813282e+03 
       2.213969417533e-01       1.679021512434e+03 
       2.288010639706e-01       1.563577400560e+03 
       2.364533437147e-01       1.472417127961e+03 
       2.443625682930e-01       1.401241194774e+03 
       2.525380679504e-01       1.338137953745e+03 
       2.609898026346e-01       1.270621336978e+03 
       2.697284615565e-01       1.193104159649e+03 
       2.787655775689e-01       1.109059125284e+03 
       2.881136588829e-01       1.028489032143e+03 
       2.977863412677e-01       9.602000878859e+02 
       3.077985646929e-01       9.047391418136e+02 
       3.181667794071e-01       8.558583526663e+02 
       3.289091877812e-01       8.059011639316e+02 
       3.400460299658e-01       7.521046550268e+02 
       3.515999236474e-01       6.986365520148e+02 
       3.635962711085e-01       6.507771338849e+02 
       3.760637506334e-01       6.098340539422e+02 
       3.890349143879e-01       5.718436780008e+02 
       4.025469216825e-01       5.334938269539e+02 
       4.166424456376e-01       4.953443018424e+02 
       4.313708035863e-01       4.601804235108e+02 
       4.467893782977e-01       4.284890851873e+02 
       4.629654199664e-01       3.984845331215e+02 
       4.799783501994e-01       3.689552395608e+02 
       4.979227319373e-01       3.409532837647e+02 
       5.169121270864e-01       3.151987927275e+02 
       5.370841404489e-01       2.905504027571e+02 
       5.586070464571e-01       2.668217328952e+02 
       5.816885094930e-01       2.445275083133e+02 
       6.065870144995e-01       2.232868118032e+02 
       6.336266468475e-01       2.029313685837e+02 
       6.632156059511e-01       1.836017112148e+02 
       6.958678639263e-01       1.650795864030e+02 
       7.322247985589e-01       1.474230266945e+02 
       7.730680195114e-01       1.305639033616e+02 
       8.193049553677e-01       1.145642782776e+02 
       8.718988016039e-01       9.949942123804e+01 
       9.317218031082e-01       8.551925515866e+01 
       9.993660908989e-01       7.280064742366e+01 
       1.075037110174e+00       6.148654840955e+01 
       1.158653485707e+00       5.163525643189e+01 
       1.250099157308e+00       4.320206207611e+01 
       1.349432401273e+00       3.605698157473e+01 
       1.456947457397e+00       3.004160713804e+01 
       1.573135111331e+00       2.499426284911e+01 
       1.698621895592e+00       2.076793554411e+01 
       1.834127512934e+00       1.723465326230e+01 
       1.980444934528e+00       1.428430416176e+01 
       2.138435191726e+00       1.182397566602e+01 
       2.309029199186e+00       9.774671248065e+00 
       2.493232377687e+00       8.069809253677e+00 
       2.692130395285e+00       6.653083017774e+00 
       2.906895534573e+00       5.477236027259e+00 
       3.138793597714e+00       4.502315499193e+00 
       3.389191366484e+00       3.694966434025e+00 
       3.659564657905e+00       3.027195400244e+00 
       3.951507022538e+00       2.475470530265e+00 
       4.266739136701e+00       2.020252640935e+00 
       4.607118943941e+00       1.645086183480e+00 
       4.974652605557e+00       1.336327179981e+00 
       5.371506324689e+00       1.082582229231e+00 
       5.800019113685e+00       8.743762679860e-01 
       6.262716579983e+00       7.038229384912e-01 
       6.762325811764e+00       5.643791762947e-01 
       7.301791451110e+00       4.506065278797e-01 
       7.884293049406e+00       3.580094526981e-01 
       8.513263807261e+00       2.828456559845e-01 
       9.192410809424e+00       2.220362845954e-01 
       9.925736873929e+00       1.730165480103e-01 
       1.071756414427e+01       1.336753603333e-01 
       1.157255956364e+01       1.022654137029e-01 
       1.249576238137e+01       7.734341799575e-02 
       1.349261385375e+01       5.771238373365e-02 
       1.456898931416e+01       4.238743801566e-02 
       1.573123280165e+01       3.055201661082e-02 
       1.698619445202e+01       2.152972289891e-02 
       1.834127087176e+01       1.476165486530e-02 
       1.980444873285e+01       9.783023010366e-03 
       2.138435184532e+01       6.211591996512e-03 
       2.309029198506e+01       3.729314968137e-03 
       2.493232377636e+01       2.074550548722e-03 
       2.692130395282e+01       1.032654565366e-03 
       2.906895534573e+01       4.294191682597e-04 
       3.138793597714e+01       1.255618166221e-04 
       3.389191366484e+01       1.206568185893e-05 
       3.659564657905e+01       6.675682492916e-06 
       3.951507022538e+01       5.027990873297e-05 
       4.266739136701e+01       1.036441511948e-04 
       4.607118943941e+01       1.440560659372e-04 
       4.974652605557e+01       1.618158646122e-04 
       5.371506324689e+01       1.566107812120e-04 
       5.800019113685e+01       1.339735406335e-04 
       6.262716579983e+01       1.020050034539e-04 
       6.762325811764e+01       6.875144782383e-05 
       7.301791451110e+01       4.021701445918e-05 
       7.884293049406e+01       1.958933098525e-05 
       8.513263807261e+01       7.247533721864e-06 
       9.192410809424e+01       1.564264729168e-06 
       9.925736873929e+01       2.839339136200e-08 
       1.071756414427e+02       2.868446573245e-07 
       1.157255956364e+02       7.880317370220e-07 
       1.249576238137e+02       9.060027126141e-07 
       1.349261385375e+02       6.669203972169e-07 
       1.456898931416e+02       3.341187721782e-07 
       1.573123280165e+02       1.043339721444e-07 
       1.698619445202e+02       1.307332609380e-08 
       1.834127087176e+02       2.790896784136e-10 
       1.980444873285e+02       4.866501975317e-09 
       2.138435184532e+02       4.472266838222e-09 
