# Matter power spectrum P(k) at redshift z=99
# for k=1.04775e-05 to 134.926 h/Mpc,
# number of wavenumbers equal to 255
#    1:k (h/Mpc)              2:P (Mpc/h)^3        
       1.047750691338e-05       7.261927095364e-03 
       1.131335172818e-05       7.820332150840e-03 
       1.221587619877e-05       8.421675382421e-03 
       1.319039970550e-05       9.069257738101e-03 
       1.424266598317e-05       9.766636451231e-03 
       1.537887697396e-05       1.051763973652e-02 
       1.660572938097e-05       1.132639250764e-02 
       1.793045413791e-05       1.219733201522e-02 
       1.936085902737e-05       1.313524187217e-02 
       2.090537469909e-05       1.414527084993e-02 
       2.257310435923e-05       1.523296544510e-02 
       2.437387742372e-05       1.640429654660e-02 
       2.631830745176e-05       1.766569603307e-02 
       2.841785470091e-05       1.902408711185e-02 
       3.068489367268e-05       2.048692967469e-02 
       3.313278604643e-05       2.206225467576e-02 
       3.577595943165e-05       2.375870883881e-02 
       3.862999240274e-05       2.558560669854e-02 
       4.171170631739e-05       2.755297672543e-02 
       4.503926445983e-05       2.967161933451e-02 
       4.863227909323e-05       3.195316455697e-02 
       5.251192705226e-05       3.441013466178e-02 
       5.670107455699e-05       3.705601741750e-02 
       6.122441198393e-05       3.990533412888e-02 
       6.610859938837e-05       4.297372242587e-02 
       7.138242363583e-05       4.627802054914e-02 
       7.707696806873e-05       4.983636159952e-02 
       8.322579570814e-05       5.366826787001e-02 
       8.986514707061e-05       5.779476319807e-02 
       9.703415376577e-05       6.223848221915e-02 
       1.047750691338e-04       6.702379825107e-02 
       1.131335172818e-04       7.217695031169e-02 
       1.221587619877e-04       7.772619030461e-02 
       1.319039970550e-04       8.370193380152e-02 
       1.424266598317e-04       9.013692506783e-02 
       1.537887697396e-04       9.706641130525e-02 
       1.660572938097e-04       1.045283343125e-01 
       1.793045413791e-04       1.125635329200e-01 
       1.936085902737e-04       1.212159592326e-01 
       2.090537469909e-04       1.305329107453e-01 
       2.257310435923e-04       1.405652819380e-01 
       2.437387742372e-04       1.513678275097e-01 
       2.631830745176e-04       1.629994475156e-01 
       2.841785470091e-04       1.755234890503e-01 
       3.068489367268e-04       1.890080645327e-01 
       3.313278604643e-04       2.035263977461e-01 
       3.577595943165e-04       2.191571778077e-01 
       3.862999240274e-04       2.359849423295e-01 
       4.171170631739e-04       2.541004713040e-01 
       4.503926445983e-04       2.736012061200e-01 
       4.863227909323e-04       2.945916774687e-01 
       5.251192705226e-04       3.171839507911e-01 
       5.670107455699e-04       3.414980769159e-01 
       6.122441198393e-04       3.676625416355e-01 
       6.610859938837e-04       3.958147272922e-01 
       7.138242363583e-04       4.261013332126e-01 
       7.707696806873e-04       4.586787880914e-01 
       8.322579570814e-04       4.937136112889e-01 
       8.986514707061e-04       5.313826962148e-01 
       9.703415376577e-04       5.718735176878e-01 
       1.047750691338e-03       6.153841926326e-01 
       1.131335172818e-03       6.621233623200e-01 
       1.221587619877e-03       7.123098743730e-01 
       1.319039970550e-03       7.661721263861e-01 
       1.424266598317e-03       8.239547181373e-01 
       1.537887697396e-03       8.859012282879e-01 
       1.660572938097e-03       9.522589495798e-01 
       1.793045413791e-03       1.023280284739e+00 
       1.936085902737e-03       1.099216542126e+00 
       2.090537469909e-03       1.180313285053e+00 
       2.257310435923e-03       1.266804486820e+00 
       2.437387742372e-03       1.358905328468e+00 
       2.631830745176e-03       1.456803285944e+00 
       2.841785470091e-03       1.560647663016e+00 
       3.068489367268e-03       1.670537010533e+00 
       3.313278604643e-03       1.786505039564e+00 
       3.577595943165e-03       1.908504410001e+00 
       3.862999240274e-03       2.036389468581e+00 
       4.171170631739e-03       2.169898252543e+00 
       4.503926445983e-03       2.308634491595e+00 
       4.863227909323e-03       2.452050674244e+00 
       5.251192705226e-03       2.599434680387e+00 
       5.670107455699e-03       2.749901125426e+00 
       6.122441198393e-03       2.902390056895e+00 
       6.610859938837e-03       3.055671267867e+00 
       7.138242363583e-03       3.208360120169e+00 
       7.707696806873e-03       3.358926647735e+00 
       8.322579570814e-03       3.505726884990e+00 
       8.986514707061e-03       3.647012431308e+00 
       9.703415376577e-03       3.780926170626e+00 
       1.047750691338e-02       3.905492869109e+00 
       1.131335172818e-02       4.018589810733e+00 
       1.221587619877e-02       4.117902868636e+00 
       1.319039970550e-02       4.200917673951e+00 
       1.424266598317e-02       4.264943719025e+00 
       1.537887697392e-02       4.307219624844e+00 
       1.660572938023e-02       4.325062331625e+00 
       1.793045412706e-02       4.316060281570e+00 
       1.936085890181e-02       4.278228718026e+00 
       2.090537352463e-02       4.210204349975e+00 
       2.257309535333e-02       4.111418591344e+00 
       2.437382002918e-02       3.982420737498e+00 
       2.631799944462e-02       3.825168435250e+00 
       2.841644545389e-02       3.643281923138e+00 
       3.067933355377e-02       3.442198321625e+00 
       3.311368470740e-02       3.229241160913e+00 
       3.571840443502e-02       3.013515765726e+00 
       3.847720348444e-02       2.805283281393e+00 
       4.135335538431e-02       2.614409890750e+00 
       4.429361667738e-02       2.448131299676e+00 
       4.724366439141e-02       2.309239649667e+00 
       5.016480835311e-02       2.196114085395e+00 
       5.303989620246e-02       2.104368642930e+00 
       5.586870669566e-02       2.028461275886e+00 
       5.866042680613e-02       1.963153899390e+00 
       6.142798932958e-02       1.903778209301e+00 
       6.418496440164e-02       1.846477628374e+00 
       6.694418833788e-02       1.788195819136e+00 
       6.971731106057e-02       1.726713943816e+00 
       7.251476155766e-02       1.660652591643e+00 
       7.534587671527e-02       1.589468002824e+00 
       7.821907666265e-02       1.513434676455e+00 
       8.114203772912e-02       1.433566824009e+00 
       8.412184535029e-02       1.351490277195e+00 
       8.716512279304e-02       1.269271709172e+00 
       9.027813695930e-02       1.189191116057e+00 
       9.346688431697e-02       1.113499014633e+00 
       9.673716028276e-02       1.044172309722e+00 
       1.000946150830e-01       9.827037874397e-01 
       1.035447986537e-01       9.299359218373e-01 
       1.070931966762e-01       8.859561607261e-01 
       1.107452594425e-01       8.500686556778e-01 
       1.145064249153e-01       8.208008065650e-01 
       1.183821370918e-01       7.960216253874e-01 
       1.223778605862e-01       7.731427778112e-01 
       1.264990921987e-01       7.494490021625e-01 
       1.307513701367e-01       7.225540047047e-01 
       1.351402814784e-01       6.909053145552e-01 
       1.396714684203e-01       6.541775697301e-01 
       1.443506338194e-01       6.134231394668e-01 
       1.491835465229e-01       5.708643737761e-01 
       1.541760469708e-01       5.293608649901e-01 
       1.593340535561e-01       4.917073875420e-01 
       1.646635702297e-01       4.599164525608e-01 
       1.701706958456e-01       4.347243374739e-01 
       1.758616357459e-01       4.154041649260e-01 
       1.817427160982e-01       3.999337307444e-01 
       1.878204015065e-01       3.856787748646e-01 
       1.941013164283e-01       3.698056366334e-01 
       2.005922709503e-01       3.505425149064e-01 
       2.073002914972e-01       3.280391292948e-01 
       2.142326570816e-01       3.042097132802e-01 
       2.213969417533e-01       2.816076536768e-01 
       2.288010639706e-01       2.622527915238e-01 
       2.364533437147e-01       2.469577330473e-01 
       2.443625682930e-01       2.350090726886e-01 
       2.525380679504e-01       2.244136376868e-01 
       2.609898026346e-01       2.130895646653e-01 
       2.697284615565e-01       2.000976216349e-01 
       2.787655775689e-01       1.860158525615e-01 
       2.881136588829e-01       1.725129903172e-01 
       2.977863412677e-01       1.610617687041e-01 
       3.077985646929e-01       1.517565478385e-01 
       3.181667794071e-01       1.435551223516e-01 
       3.289091877812e-01       1.351772472266e-01 
       3.400460299658e-01       1.261599258916e-01 
       3.515999236474e-01       1.171975834096e-01 
       3.635962711085e-01       1.091725660103e-01 
       3.760637506334e-01       1.023052118094e-01 
       3.890349143879e-01       9.593337655776e-02 
       4.025469216825e-01       8.950339657040e-02 
       4.166424456376e-01       8.310728243877e-02 
       4.313708035863e-01       7.721110290149e-02 
       4.467893782977e-01       7.189629215557e-02 
       4.629654199664e-01       6.686468696545e-02 
       4.799783501994e-01       6.191318432381e-02 
       4.979227319373e-01       5.721787189546e-02 
       5.169121270864e-01       5.289854768025e-02 
       5.370841404489e-01       4.876546145278e-02 
       5.586070464571e-01       4.478641189466e-02 
       5.816885094930e-01       4.104760282100e-02 
       6.065870144995e-01       3.748563391653e-02 
       6.336266468475e-01       3.407195810867e-02 
       6.632156059511e-01       3.083030845430e-02 
       6.958678639263e-01       2.772416876280e-02 
       7.322247985589e-01       2.476298844208e-02 
       7.730680195114e-01       2.193549098177e-02 
       8.193049553677e-01       1.925208126830e-02 
       8.718988016039e-01       1.672529960212e-02 
       9.317218031082e-01       1.438022342975e-02 
       9.993660908989e-01       1.224677236366e-02 
       1.075037110174e+00       1.034877752524e-02 
       1.158653485707e+00       8.695929937409e-03 
       1.250099157308e+00       7.280918397574e-03 
       1.349432401273e+00       6.081871208882e-03 
       1.456947457397e+00       5.072246714295e-03 
       1.573135111331e+00       4.224890243281e-03 
       1.698621895592e+00       3.515217683272e-03 
       1.834127512934e+00       2.921745488652e-03 
       1.980444934528e+00       2.426013591650e-03 
       2.138435191726e+00       2.012446964643e-03 
       2.309029199186e+00       1.667806415351e-03 
       2.493232377687e+00       1.380921992349e-03 
       2.692130395285e+00       1.142344956598e-03 
       2.906895534573e+00       9.441612284125e-04 
       3.138793597714e+00       7.796840860954e-04 
       3.389191366484e+00       6.433058547458e-04 
       3.659564657905e+00       5.303401700115e-04 
       3.951507022538e+00       4.368401855407e-04 
       4.266739136701e+00       3.595272603414e-04 
       4.607118943941e+00       2.956530402550e-04 
       4.974652605557e+00       2.429216570526e-04 
       5.371506324689e+00       1.994243791948e-04 
       5.800019113685e+00       1.635735446910e-04 
       6.262716579983e+00       1.340487972851e-04 
       6.762325811764e+00       1.097513004299e-04 
       7.301791451110e+00       8.977178212237e-05 
       7.884293049406e+00       7.335463878365e-05 
       8.513263807261e+00       5.987587314315e-05 
       9.192410809424e+00       4.881751213147e-05 
       9.925736873929e+00       3.975220428912e-05 
       1.071756414427e+01       3.232668543547e-05 
       1.157255956364e+01       2.624940673397e-05 
       1.249576238137e+01       2.128004738836e-05 
       1.349261385375e+01       1.721984149554e-05 
       1.456898931416e+01       1.390646015222e-05 
       1.573123280165e+01       1.120507063109e-05 
       1.698619445202e+01       9.005168061487e-06 
       1.834127087176e+01       7.216177464370e-06 
       1.980444873285e+01       5.763334172040e-06 
       2.138435184532e+01       4.585639308713e-06 
       2.309029198506e+01       3.632746212847e-06 
       2.493232377636e+01       2.863440490538e-06 
       2.692130395282e+01       2.244065099828e-06 
       2.906895534573e+01       1.746936515723e-06 
       3.138793597714e+01       1.349432642699e-06 
       3.389191366484e+01       1.033008424711e-06 
       3.659564657905e+01       7.824645570541e-07 
       3.951507022538e+01       5.853813781522e-07 
       4.266739136701e+01       4.315819851469e-07 
       4.607118943941e+01       3.127186488691e-07 
       4.974652605557e+01       2.219444522010e-07 
       5.371506324689e+01       1.536249270176e-07 
       5.800019113685e+01       1.031309991963e-07 
       6.262716579983e+01       6.665011441263e-08 
       6.762325811764e+01       4.104706036384e-08 
       7.301791451110e+01       2.373003096842e-08 
       7.884293049406e+01       1.258327292130e-08 
       8.513263807261e+01       5.875200306988e-09 
       9.192410809424e+01       2.227598890431e-09 
       9.925736873929e+01       5.519318342336e-10 
       1.071756414427e+02       2.701784664682e-11 
       1.157255956364e+02       6.528514482116e-11 
       1.249576238137e+02       2.818330555059e-10 
       1.349261385375e+02       4.612481057997e-10 
