# Matter power spectrum P(k) at redshift z=0
# for k=1.04775e-05 to 134.926 h/Mpc,
# number of wavenumbers equal to 255
#    1:k (h/Mpc)              2:P (Mpc/h)^3        
       1.047750691338e-05       5.020964854957e+01 
       1.131335172818e-05       5.407049836297e+01 
       1.221587619877e-05       5.822819649345e+01 
       1.319039970550e-05       6.270561579941e+01 
       1.424266598317e-05       6.752728822738e+01 
       1.537887697396e-05       7.271976755354e+01 
       1.660572938097e-05       7.831147015784e+01 
       1.793045413791e-05       8.433314017006e+01 
       1.936085902737e-05       9.081780131843e+01 
       2.090537469909e-05       9.780107924514e+01 
       2.257310435923e-05       1.053212784678e+02 
       2.437387742372e-05       1.134197281151e+02 
       2.631830745176e-05       1.221408238940e+02 
       2.841785470091e-05       1.315324586751e+02 
       3.068489367268e-05       1.416461653600e+02 
       3.313278604643e-05       1.525374409820e+02 
       3.577595943165e-05       1.642660554992e+02 
       3.862999240274e-05       1.768963431247e+02 
       4.171170631739e-05       1.904976004627e+02 
       4.503926445983e-05       2.051444249691e+02 
       4.863227909323e-05       2.209171409831e+02 
       5.251192705226e-05       2.379022259183e+02 
       5.670107455699e-05       2.561927817903e+02 
       6.122441198393e-05       2.758890478360e+02 
       6.610859938837e-05       2.970989212007e+02 
       7.138242363583e-05       3.199385560572e+02 
       7.707696806873e-05       3.445329724577e+02 
       8.322579570814e-05       3.710167314243e+02 
       8.986514707061e-05       3.995346446943e+02 
       9.703415376577e-05       4.302425392735e+02 
       1.047750691338e-04       4.633080765103e+02 
       1.131335172818e-04       4.989116273287e+02 
       1.221587619877e-04       5.372471944566e+02 
       1.319039970550e-04       5.785234118650e+02 
       1.424266598317e-04       6.229645927447e+02 
       1.537887697396e-04       6.708118486534e+02 
       1.660572938097e-04       7.223242663473e+02 
       1.793045413791e-04       7.777801576643e+02 
       1.936085902737e-04       8.374783631868e+02 
       2.090537469909e-04       9.017396285160e+02 
       2.257310435923e-04       9.709080284414e+02 
       2.437387742372e-04       1.045352452121e+03 
       2.631830745176e-04       1.125468124371e+03 
       2.841785470091e-04       1.211678182873e+03 
       3.068489367268e-04       1.304435250134e+03 
       3.313278604643e-04       1.404223057308e+03 
       3.577595943165e-04       1.511558020861e+03 
       3.862999240274e-04       1.626990842216e+03 
       4.171170631739e-04       1.751108028843e+03 
       4.503926445983e-04       1.884533381231e+03 
       4.863227909323e-04       2.027929374866e+03 
       5.251192705226e-04       2.181998432930e+03 
       5.670107455699e-04       2.347484077418e+03 
       6.122441198393e-04       2.525171828054e+03 
       6.610859938837e-04       2.715889908397e+03 
       7.138242363583e-04       2.920509572452e+03 
       7.707696806873e-04       3.139944912311e+03 
       8.322579570814e-04       3.375152050046e+03 
       8.986514707061e-04       3.627127400260e+03 
       9.703415376577e-04       3.896904786871e+03 
       1.047750691338e-03       4.185551188530e+03 
       1.131335172818e-03       4.494160972986e+03 
       1.221587619877e-03       4.823848572776e+03 
       1.319039970550e-03       5.175739608113e+03 
       1.424266598317e-03       5.551014870311e+03 
       1.537887697396e-03       5.950781106839e+03 
       1.660572938097e-03       6.376112193795e+03 
       1.793045413791e-03       6.828057716257e+03 
       1.936085902737e-03       7.307601559560e+03 
       2.090537469909e-03       7.815637103622e+03 
       2.257310435923e-03       8.352940008090e+03 
       2.437387742372e-03       8.920138646522e+03 
       2.631830745176e-03       9.517679559880e+03 
       2.841785470091e-03       1.014578973094e+04 
       3.068489367268e-03       1.080443694347e+04 
       3.313278604643e-03       1.149328144281e+04 
       3.577595943165e-03       1.221162535784e+04 
       3.862999240274e-03       1.295835182397e+04 
       4.171170631739e-03       1.373186285205e+04 
       4.503926445983e-03       1.453001350072e+04 
       4.863227909323e-03       1.535002414299e+04 
       5.251192705226e-03       1.618853825400e+04 
       5.670107455699e-03       1.704143100728e+04 
       6.122441198393e-03       1.790361747928e+04 
       6.610859938837e-03       1.876923745105e+04 
       7.138242363583e-03       1.963144885241e+04 
       7.707696806873e-03       2.048233098133e+04 
       8.322579570814e-03       2.131285558010e+04 
       8.986514707061e-03       2.211284441177e+04 
       9.703415376577e-03       2.287081404528e+04 
       1.047750691338e-02       2.357405905583e+04 
       1.131335172818e-02       2.420861707950e+04 
       1.221587619877e-02       2.475938837795e+04 
       1.319039970550e-02       2.521017068167e+04 
       1.424266598317e-02       2.554401265768e+04 
       1.537887697392e-02       2.574364965269e+04 
       1.660572938023e-02       2.579185035004e+04 
       1.793045412706e-02       2.567246660914e+04 
       1.936085890181e-02       2.537136238836e+04 
       2.090537352463e-02       2.487777179093e+04 
       2.257309535333e-02       2.418581417607e+04 
       2.437382002918e-02       2.329636023813e+04 
       2.631799944462e-02       2.221863523327e+04 
       2.841644545389e-02       2.097178749365e+04 
       3.067933355377e-02       1.958665441028e+04 
       3.311368470740e-02       1.810646501639e+04 
       3.571840443502e-02       1.658670598073e+04 
       3.847720348444e-02       1.509202668236e+04 
       4.135335538431e-02       1.368794916411e+04 
       4.429361667738e-02       1.242590754850e+04 
       4.724366439141e-02       1.133075263253e+04 
       5.016480835311e-02       1.039923111663e+04 
       5.303989620246e-02       9.608995828952e+03 
       5.586870669566e-02       8.930507736986e+03 
       5.866042680613e-02       8.334296937077e+03 
       6.142798932958e-02       7.794458609475e+03 
       6.418496440164e-02       7.289797594313e+03 
       6.694418833788e-02       6.803732440375e+03 
       6.971731106057e-02       6.324300083701e+03 
       7.251476155766e-02       5.843887119855e+03 
       7.534587671527e-02       5.359082409631e+03 
       7.821907666265e-02       4.870362780820e+03 
       8.114203772912e-02       4.381570448674e+03 
       8.412184535029e-02       3.899285946006e+03 
       8.716512279304e-02       3.431854739542e+03 
       9.027813695930e-02       2.988311111453e+03 
       9.346688431697e-02       2.577055440301e+03 
       9.673716028276e-02       2.205042603802e+03 
       1.000946150830e-01       1.876667993260e+03 
       1.035447986537e-01       1.593570693007e+03 
       1.070931966762e-01       1.354359480033e+03 
       1.107452594425e-01       1.155198795404e+03 
       1.145064249153e-01       9.903483972307e+02 
       1.183821370918e-01       8.528974305275e+02 
       1.223778605862e-01       7.355105802588e+02 
       1.264990921987e-01       6.313429578471e+02 
       1.307513701367e-01       5.348257027850e+02 
       1.351402814784e-01       4.424838181721e+02 
       1.396714684203e-01       3.534611989087e+02 
       1.443506338194e-01       2.694242995894e+02 
       1.491835465229e-01       1.937885616710e+02 
       1.541760469708e-01       1.302178593300e+02 
       1.593340535561e-01       8.113711388091e+01 
       1.646635702297e-01       4.668894549269e+01 
       1.701706958456e-01       2.481018143801e+01 
       1.758616357459e-01       1.217052397260e+01 
       1.817427160982e-01       5.386926970906e+00 
       1.878204015065e-01       1.930535026123e+00 
       1.941013164283e-01       3.122624460721e-01 
       2.005922709503e-01       8.844986725318e-02 
       2.073002914972e-01       1.531001390125e+00 
       2.142326570816e-01       4.949190854865e+00 
       2.213969417533e-01       1.000987199227e+01 
       2.288010639706e-01       1.550234961539e+01 
       2.364533437147e-01       1.981916487221e+01 
       2.443625682930e-01       2.195480464756e+01 
       2.525380679504e-01       2.220550017474e+01 
       2.609898026346e-01       2.166155189049e+01 
       2.697284615565e-01       2.125627930510e+01 
       2.787655775689e-01       2.127575202847e+01 
       2.881136588829e-01       2.118643119876e+01 
       2.977863412677e-01       2.010061691890e+01 
       3.077985646929e-01       1.773290338436e+01 
       3.181667794071e-01       1.458856060545e+01 
       3.289091877812e-01       1.154338199284e+01 
       3.400460299658e-01       9.110246870440e+00 
       3.515999236474e-01       7.162788066146e+00 
       3.635962711085e-01       5.393417593320e+00 
       3.760637506334e-01       3.680678263325e+00 
       3.890349143879e-01       2.241940284074e+00 
       4.025469216825e-01       1.238017378358e+00 
       4.166424456376e-01       6.191790782033e-01 
       4.313708035863e-01       2.432536377157e-01 
       4.467893782977e-01       4.640783989023e-02 
       4.629654199664e-01       9.723899264829e-04 
       4.799783501994e-01       4.849625734134e-02 
       4.979227319373e-01       1.269023821878e-01 
       5.169121270864e-01       2.103392600865e-01 
       5.370841404489e-01       2.692365502068e-01 
       5.586070464571e-01       2.818581402742e-01 
       5.816885094930e-01       2.585206743944e-01 
       6.065870144995e-01       2.080642542791e-01 
       6.336266468475e-01       1.419292297582e-01 
       6.632156059511e-01       8.014351106999e-02 
       6.958678639263e-01       3.332066385941e-02 
       7.322247985589e-01       7.607708341608e-03 
       7.730680195114e-01       4.726603126144e-05 
       8.193049553677e-01       2.367589818983e-03 
       8.718988016039e-01       5.543926347270e-03 
       9.317218031082e-01       5.124840210092e-03 
       9.993660908989e-01       2.392458887922e-03 
       1.075037110174e+00       4.301118576777e-04 
       1.158653485707e+00       8.809680497886e-08 
       1.250099157308e+00       8.439988853634e-05 
       1.349432401273e+00       6.496010377377e-05 
       1.456947457397e+00       8.982300259824e-06 
       1.573135111331e+00       1.040300835968e-06 
       1.698621895592e+00       4.885831388112e-06 
       1.834127512934e+00       2.241833657138e-06 
       1.980444934528e+00       2.703889456428e-07 
       2.138435191726e+00       7.869635855679e-09 
       2.309029199186e+00       1.478027730213e-08 
       2.493232377687e+00       5.328615550160e-08 
       2.692130395285e+00       5.652701106240e-08 
       2.906895534573e+00       2.954728219837e-08 
       3.138793597714e+00       1.828141903695e-08 
       3.389191366484e+00       1.271472582314e-08 
       3.659564657905e+00       8.233298448459e-09 
       3.951507022538e+00       6.583186692640e-09 
       4.266739136701e+00       5.571970296817e-09 
       4.607118943941e+00       4.559528094553e-09 
       4.974652605557e+00       1.878898991289e-09 
       5.371506324689e+00       2.213757881865e-09 
       5.800019113685e+00       9.253152463811e-10 
       6.262716579983e+00       1.052293714059e-09 
       6.762325811764e+00       2.765350460159e-09 
       7.301791451110e+00       1.029154385549e-09 
       7.884293049406e+00       5.485986909489e-10 
       8.513263807261e+00       7.671758926436e-11 
       9.192410809424e+00       4.286068057129e-10 
       9.925736873929e+00       5.425406274699e-10 
       1.071756414427e+01       9.609047337826e-12 
       1.157255956364e+01       1.193022699328e-12 
       1.249576238137e+01       2.680677102940e-09 
       1.349261385375e+01       4.244872989598e-10 
       1.456898931416e+01       5.599410228216e-09 
       1.573123280165e+01       2.846560316268e-09 
       1.698619445202e+01       1.393200225530e-10 
       1.834127087176e+01       7.725584776830e-10 
       1.980444873285e+01       3.463063725596e-10 
       2.138435184532e+01       3.364402345566e-10 
       2.309029198506e+01       2.543147264395e-11 
       2.493232377636e+01       5.007374122661e-10 
       2.692130395282e+01       1.563226793947e-11 
       2.906895534573e+01       3.277296396176e-16 
       3.138793597714e+01       6.584163288199e-11 
       3.389191366484e+01       6.098078303832e-10 
       3.659564657905e+01       8.582603943332e-10 
       3.951507022538e+01       2.292704160790e-11 
       4.266739136701e+01       3.948819374427e-10 
       4.607118943941e+01       3.108989528314e-14 
       4.974652605557e+01       2.129910821782e-10 
       5.371506324689e+01       8.747041045321e-10 
       5.800019113685e+01       2.516928941284e-11 
       6.262716579983e+01       3.100011823270e-10 
       6.762325811764e+01       3.928323927546e-11 
       7.301791451110e+01       2.259953568005e-10 
       7.884293049406e+01       1.173006375565e-10 
       8.513263807261e+01       2.098347027067e-11 
       9.192410809424e+01       2.890247761924e-13 
       9.925736873929e+01       3.605280282342e-17 
       1.071756414427e+02       1.190529013925e-11 
       1.157255956364e+02       6.575954298906e-13 
       1.249576238137e+02       8.447910684655e-12 
       1.349261385375e+02       5.442606914527e-13 
