# Matter power spectrum P(k) at redshift z=99
# for k=1.04775e-05 to 134.926 h/Mpc,
# number of wavenumbers equal to 255
#    1:k (h/Mpc)              2:P (Mpc/h)^3        
       1.047750691338e-05       7.262985175670e-03 
       1.131335172818e-05       7.821470728823e-03 
       1.221587619877e-05       8.422901848991e-03 
       1.319039970550e-05       9.070579148874e-03 
       1.424266598317e-05       9.768060434273e-03 
       1.537887697396e-05       1.051917199726e-02 
       1.660572938097e-05       1.132804269759e-02 
       1.793045413791e-05       1.219910772455e-02 
       1.936085902737e-05       1.313715359995e-02 
       2.090537469909e-05       1.414732992802e-02 
       2.257310435923e-05       1.523518288288e-02 
       2.437387742372e-05       1.640668425579e-02 
       2.631830745176e-05       1.766826672977e-02 
       2.841785470091e-05       1.902685690885e-02 
       3.068489367268e-05       2.048991227097e-02 
       3.313278604643e-05       2.206546563461e-02 
       3.577595943165e-05       2.376216812526e-02 
       3.862999240274e-05       2.558933031444e-02 
       4.171170631739e-05       2.755698785359e-02 
       4.503926445983e-05       2.967593786684e-02 
       4.863227909323e-05       3.195781575266e-02 
       5.251192705226e-05       3.441514278565e-02 
       5.670107455699e-05       3.706140955205e-02 
       6.122441198393e-05       3.991114035689e-02 
       6.610859938837e-05       4.297997559718e-02 
       7.138242363583e-05       4.628475229314e-02 
       7.707696806873e-05       4.984361068645e-02 
       8.322579570814e-05       5.367607295656e-02 
       8.986514707061e-05       5.780316525102e-02 
       9.703415376577e-05       6.224752808609e-02 
       1.047750691338e-04       6.703353512662e-02 
       1.131335172818e-04       7.218743174442e-02 
       1.221587619877e-04       7.773747163155e-02 
       1.319039970550e-04       8.371407583129e-02 
       1.424266598317e-04       9.014999085298e-02 
       1.537887697396e-04       9.708047062651e-02 
       1.660572938097e-04       1.045434590924e-01 
       1.793045413791e-04       1.125798021585e-01 
       1.936085902737e-04       1.212334556160e-01 
       2.090537469909e-04       1.305517231557e-01 
       2.257310435923e-04       1.405855038836e-01 
       2.437387742372e-04       1.513895571854e-01 
       2.631830745176e-04       1.630227896692e-01 
       2.841785470091e-04       1.755485517110e-01 
       3.068489367268e-04       1.890349611524e-01 
       3.313278604643e-04       2.035552464169e-01 
       3.577595943165e-04       2.191880975277e-01 
       3.862999240274e-04       2.360180544866e-01 
       4.171170631739e-04       2.541358970015e-01 
       4.503926445983e-04       2.736390640617e-01 
       4.863227909323e-04       2.946320790883e-01 
       5.251192705226e-04       3.172269962589e-01 
       5.670107455699e-04       3.415438489250e-01 
       6.122441198393e-04       3.677111016887e-01 
       6.610859938837e-04       3.958660973685e-01 
       7.138242363583e-04       4.261554887551e-01 
       7.707696806873e-04       4.587356404915e-01 
       8.322579570814e-04       4.937729810868e-01 
       8.986514707061e-04       5.314442957155e-01 
       9.703415376577e-04       5.719368929811e-01 
       1.047750691338e-03       6.154486968428e-01 
       1.131335172818e-03       6.621880882982e-01 
       1.221587619877e-03       7.123735482308e-01 
       1.319039970550e-03       7.662330551217e-01 
       1.424266598317e-03       8.240106617452e-01 
       1.537887697396e-03       8.859489809054e-01 
       1.660572938097e-03       9.522942300650e-01 
       1.793045413791e-03       1.023297484837e+00 
       1.936085902737e-03       1.099208282319e+00 
       2.090537469909e-03       1.180269820172e+00 
       2.257310435923e-03       1.266712878013e+00 
       2.437387742372e-03       1.358748600974e+00 
       2.631830745176e-03       1.456558891068e+00 
       2.841785470091e-03       1.560285725912e+00 
       3.068489367268e-03       1.670017838383e+00 
       3.313278604643e-03       1.785775770348e+00 
       3.577595943165e-03       1.907494815898e+00 
       3.862999240274e-03       2.035005301618e+00 
       4.171170631739e-03       2.168013395149e+00 
       4.503926445983e-03       2.306081335234e+00 
       4.863227909323e-03       2.448603975559e+00 
       5.251192705226e-03       2.594794660527e+00 
       5.670107455699e-03       2.743666304039e+00 
       6.122441198393e-03       2.894030315347e+00 
       6.610859938837e-03       3.044480632139e+00 
       7.138242363583e-03       3.193410325474e+00 
       7.707696806873e-03       3.339005416188e+00 
       8.322579570814e-03       3.479254322635e+00 
       8.986514707061e-03       3.611945199457e+00 
       9.703415376577e-03       3.734648927113e+00 
       1.047750691338e-02       3.844687536239e+00 
       1.131335172818e-02       3.939064728276e+00 
       1.221587619877e-02       4.014422141799e+00 
       1.319039970550e-02       4.067000011697e+00 
       1.424266598317e-02       4.092633333623e+00 
       1.537887697392e-02       4.086860926764e+00 
       1.660572938023e-02       4.045094030789e+00 
       1.793045412706e-02       3.962880738570e+00 
       1.936085890181e-02       3.836188475457e+00 
       2.090537352463e-02       3.661737176665e+00 
       2.257309535333e-02       3.437518237401e+00 
       2.437382002918e-02       3.163392693419e+00 
       2.631799944462e-02       2.841945672753e+00 
       2.841644545389e-02       2.479374492161e+00 
       3.067933355377e-02       2.086306505109e+00 
       3.311368470740e-02       1.678437544238e+00 
       3.571840443502e-02       1.276674111332e+00 
       3.847720348444e-02       9.054521641006e-01 
       4.135335538431e-02       5.884266287504e-01 
       4.429361667738e-02       3.419164937527e-01 
       4.724366439141e-02       1.700354559949e-01 
       5.016480835311e-02       6.539926454192e-02 
       5.303989620246e-02       1.393145608381e-02 
       5.586870669566e-02       2.216060328998e-07 
       5.866042680613e-02       9.365032595092e-03 
       6.142798932958e-02       3.036353565396e-02 
       6.418496440164e-02       5.412590722647e-02 
       6.694418833788e-02       7.442741179249e-02 
       6.971731106057e-02       8.745156924722e-02 
       7.251476155766e-02       9.157565545842e-02 
       7.534587671527e-02       8.689833407741e-02 
       7.821907666265e-02       7.498900905939e-02 
       8.114203772912e-02       5.836092423953e-02 
       8.412184535029e-02       4.005819634774e-02 
       8.716512279304e-02       2.307022481802e-02 
       9.027813695930e-02       9.881097214878e-03 
       9.346688431697e-02       2.060467024182e-03 
       9.673716028276e-02       5.293025900214e-05 
       1.000946150830e-01       3.112802312343e-03 
       1.035447986537e-01       9.513118662689e-03 
       1.070931966762e-01       1.693839567870e-02 
       1.107452594425e-01       2.303611816294e-02 
       1.145064249153e-01       2.598652191808e-02 
       1.183821370918e-01       2.496589183174e-02 
       1.223778605862e-01       2.035102772746e-02 
       1.264990921987e-01       1.359514731814e-02 
       1.307513701367e-01       6.758884727627e-03 
       1.351402814784e-01       1.822782783308e-03 
       1.396714684203e-01       3.487635051353e-06 
       1.443506338194e-01       1.310093757804e-03 
       1.491835465229e-01       4.558095222046e-03 
       1.541760469708e-01       7.871245291981e-03 
       1.593340535561e-01       9.526687485402e-03 
       1.646635702297e-01       8.697679760900e-03 
       1.701706958456e-01       5.881700259876e-03 
       1.758616357459e-01       2.564457712008e-03 
       1.817427160982e-01       3.703627229611e-04 
       1.878204015065e-01       1.531284569998e-04 
       1.941013164283e-01       1.510567587126e-03 
       2.005922709503e-01       3.112797887382e-03 
       2.073002914972e-01       3.645283880947e-03 
       2.142326570816e-01       2.747674148778e-03 
       2.213969417533e-01       1.172815670313e-03 
       2.288010639706e-01       1.086116617230e-04 
       2.364533437147e-01       1.714002126420e-04 
       2.443625682930e-01       9.237060900971e-04 
       2.525380679504e-01       1.404807306629e-03 
       2.609898026346e-01       1.091769562869e-03 
       2.697284615565e-01       3.769193603394e-04 
       2.787655775689e-01       2.847604142036e-06 
       2.881136588829e-01       1.941687987219e-04 
       2.977863412677e-01       4.935480498273e-04 
       3.077985646929e-01       4.340897543295e-04 
       3.181667794071e-01       1.320369930286e-04 
       3.289091877812e-01       1.085906364951e-06 
       3.400460299658e-01       1.170094542392e-04 
       3.515999236474e-01       1.846211361628e-04 
       3.635962711085e-01       8.156561715796e-05 
       3.760637506334e-01       4.263822232894e-07 
       3.890349143879e-01       3.906617333578e-05 
       4.025469216825e-01       6.108683506336e-05 
       4.166424456376e-01       1.469432570045e-05 
       4.313708035863e-01       2.825446940614e-06 
       4.467893782977e-01       2.086467358397e-05 
       4.629654199664e-01       8.736512026304e-06 
       4.799783501994e-01       5.219304512440e-07 
       4.979227319373e-01       6.484997393006e-06 
       5.169121270864e-01       1.587511110764e-06 
       5.370841404489e-01       8.755193567492e-07 
       5.586070464571e-01       1.379429896214e-06 
       5.816885094930e-01       4.407644332251e-08 
       6.065870144995e-01       4.924541016281e-07 
       6.336266468475e-01       1.155124560755e-08 
       6.632156059511e-01       6.231347528503e-08 
       6.958678639263e-01       2.552880071937e-08 
       7.322247985589e-01       1.160522076427e-10 
       7.730680195114e-01       2.678465894813e-09 
       8.193049553677e-01       1.804713104063e-09 
       8.718988016039e-01       7.054845932795e-10 
       9.317218031082e-01       9.297823620886e-11 
       9.993660908989e-01       3.789437074074e-11 
       1.075037110174e+00       1.506500535495e-09 
       1.158653485707e+00       2.817233836051e-10 
       1.250099157308e+00       1.508591188384e-10 
       1.349432401273e+00       3.500697482101e-10 
       1.456947457397e+00       4.759845036257e-10 
       1.573135111331e+00       1.297268317297e-10 
       1.698621895592e+00       1.093548236078e-10 
       1.834127512934e+00       1.228500472271e-10 
       1.980444934528e+00       3.802572164814e-10 
       2.138435191726e+00       1.924776449923e-10 
       2.309029199186e+00       2.253825007853e-10 
       2.493232377687e+00       1.262658877208e-10 
       2.692130395285e+00       4.248083738662e-12 
       2.906895534573e+00       4.055878090066e-10 
       3.138793597714e+00       1.365714793789e-10 
       3.389191366484e+00       1.095465537123e-10 
       3.659564657905e+00       6.054881431789e-14 
       3.951507022538e+00       4.000742969663e-11 
       4.266739136701e+00       3.442078281124e-11 
       4.607118943941e+00       2.741869387977e-11 
       4.974652605557e+00       5.701256074870e-11 
       5.371506324689e+00       4.937867084133e-11 
       5.800019113685e+00       5.412408458977e-11 
       6.262716579983e+00       2.044495102243e-13 
       6.762325811764e+00       4.539105085876e-13 
       7.301791451110e+00       1.416506223039e-12 
       7.884293049406e+00       7.023404531532e-14 
       8.513263807261e+00       3.850602034100e-13 
       9.192410809424e+00       2.808749591549e-11 
       9.925736873929e+00       2.273336434208e-13 
       1.071756414427e+01       5.265789740713e-12 
       1.157255956364e+01       1.922380566580e-12 
       1.249576238137e+01       1.796934359083e-11 
       1.349261385375e+01       7.890842510671e-13 
       1.456898931416e+01       7.556128121942e-13 
       1.573123280165e+01       1.606734402083e-16 
       1.698619445202e+01       6.710975561655e-13 
       1.834127087176e+01       1.504477015592e-11 
       1.980444873285e+01       6.184183897974e-13 
       2.138435184532e+01       5.905111697328e-13 
       2.309029198506e+01       2.836958701331e-13 
       2.493232377636e+01       3.574596923807e-16 
       2.692130395282e+01       9.096346948885e-13 
       2.906895534573e+01       1.221932484334e-14 
       3.138793597714e+01       1.271815913702e-15 
       3.389191366484e+01       9.643630995471e-15 
       3.659564657905e+01       8.261095764840e-13 
       3.951507022538e+01       1.213988189237e-13 
       4.266739136701e+01       4.793288751884e-17 
       4.607118943941e+01       3.244255488845e-17 
       4.974652605557e+01       2.245788251552e-14 
       5.371506324689e+01       2.674736753677e-15 
       5.800019113685e+01       5.150170192769e-15 
       6.262716579983e+01       2.681646792066e-15 
       6.762325811764e+01       7.181006778557e-21 
       7.301791451110e+01       4.592283678544e-14 
       7.884293049406e+01       8.007788823044e-16 
       8.513263807261e+01       3.046219645751e-15 
       9.192410809424e+01       9.918860179934e-17 
       9.925736873929e+01       8.688901593997e-14 
       1.071756414427e+02       5.453586830190e-15 
       1.157255956364e+02       4.510715554631e-15 
       1.249576238137e+02       5.390971519129e-15 
       1.349261385375e+02       7.095275656394e-16 
