# Matter power spectrum P(k) at redshift z=0
# for k=1.04775e-05 to 134.926 h/Mpc,
# number of wavenumbers equal to 255
#    1:k (h/Mpc)              2:P (Mpc/h)^3        
       1.047750691338e-05       5.020963908379e+01 
       1.131335172818e-05       5.407048938334e+01 
       1.221587619877e-05       5.822819360687e+01 
       1.319039970550e-05       6.270561849644e+01 
       1.424266598317e-05       6.752731476086e+01 
       1.537887697396e-05       7.271976787667e+01 
       1.660572938097e-05       7.831147226449e+01 
       1.793045413791e-05       8.433312563927e+01 
       1.936085902737e-05       9.081779357257e+01 
       2.090537469909e-05       9.780107200667e+01 
       2.257310435923e-05       1.053212938642e+02 
       2.437387742372e-05       1.134197268525e+02 
       2.631830745176e-05       1.221408281692e+02 
       2.841785470091e-05       1.315324605939e+02 
       3.068489367268e-05       1.416461647363e+02 
       3.313278604643e-05       1.525374490044e+02 
       3.577595943165e-05       1.642660519748e+02 
       3.862999240274e-05       1.768963425960e+02 
       4.171170631739e-05       1.904975995443e+02 
       4.503926445983e-05       2.051444243168e+02 
       4.863227909323e-05       2.209171410648e+02 
       5.251192705226e-05       2.379022265558e+02 
       5.670107455699e-05       2.561927841801e+02 
       6.122441198393e-05       2.758890472592e+02 
       6.610859938837e-05       2.970989216672e+02 
       7.138242363583e-05       3.199385559441e+02 
       7.707696806873e-05       3.445329735573e+02 
       8.322579570814e-05       3.710167324898e+02 
       8.986514707061e-05       3.995346445620e+02 
       9.703415376577e-05       4.302425394755e+02 
       1.047750691338e-04       4.633080773490e+02 
       1.131335172818e-04       4.989116272714e+02 
       1.221587619877e-04       5.372471937670e+02 
       1.319039970550e-04       5.785234112104e+02 
       1.424266598317e-04       6.229645932811e+02 
       1.537887697396e-04       6.708118487478e+02 
       1.660572938097e-04       7.223242664542e+02 
       1.793045413791e-04       7.777801578896e+02 
       1.936085902737e-04       8.374783637079e+02 
       2.090537469909e-04       9.017396287167e+02 
       2.257310435923e-04       9.709080298012e+02 
       2.437387742372e-04       1.045352452354e+03 
       2.631830745176e-04       1.125468127242e+03 
       2.841785470091e-04       1.211678185224e+03 
       3.068489367268e-04       1.304435254097e+03 
       3.313278604643e-04       1.404223061842e+03 
       3.577595943165e-04       1.511558029319e+03 
       3.862999240274e-04       1.626990852495e+03 
       4.171170631739e-04       1.751108045899e+03 
       4.503926445983e-04       1.884533406576e+03 
       4.863227909323e-04       2.027929407064e+03 
       5.251192705226e-04       2.181998483429e+03 
       5.670107455699e-04       2.347484144609e+03 
       6.122441198393e-04       2.525171924276e+03 
       6.610859938837e-04       2.715890053634e+03 
       7.138242363583e-04       2.920509773643e+03 
       7.707696806873e-04       3.139945205341e+03 
       8.322579570814e-04       3.375152472922e+03 
       8.986514707061e-04       3.627128014957e+03 
       9.703415376577e-04       3.896905656746e+03 
       1.047750691338e-03       4.185552441299e+03 
       1.131335172818e-03       4.494162759004e+03 
       1.221587619877e-03       4.823851126952e+03 
       1.319039970550e-03       5.175743245047e+03 
       1.424266598317e-03       5.551020248710e+03 
       1.537887697396e-03       5.950789110450e+03 
       1.660572938097e-03       6.376124038326e+03 
       1.793045413791e-03       6.828075071328e+03 
       1.936085902737e-03       7.307626808400e+03 
       2.090537469909e-03       7.815673614544e+03 
       2.257310435923e-03       8.352992433996e+03 
       2.437387742372e-03       8.920213549856e+03 
       2.631830745176e-03       9.517786076749e+03 
       2.841785470091e-03       1.014594045018e+04 
       3.068489367268e-03       1.080464924035e+04 
       3.313278604643e-03       1.149357921231e+04 
       3.577595943165e-03       1.221204162414e+04 
       3.862999240274e-03       1.295893139131e+04 
       4.171170631739e-03       1.373266622185e+04 
       4.503926445983e-03       1.453112426915e+04 
       4.863227909323e-03       1.535155450481e+04 
       5.251192705226e-03       1.619063909903e+04 
       5.670107455699e-03       1.704430592670e+04 
       6.122441198393e-03       1.790753743289e+04 
       6.610859938837e-03       1.877456395130e+04 
       7.138242363583e-03       1.963866195185e+04 
       7.707696806873e-03       2.049206119361e+04 
       8.322579570814e-03       2.132597737935e+04 
       8.986514707061e-03       2.213036400103e+04 
       9.703415376577e-03       2.289419683034e+04 
       1.047750691338e-02       2.360513140431e+04 
       1.131335172818e-02       2.424974895059e+04 
       1.221587619877e-02       2.481359317343e+04 
       1.319039970550e-02       2.528133499709e+04 
       1.424266598317e-02       2.563701237768e+04 
       1.537887697392e-02       2.586458313794e+04 
       1.660572938023e-02       2.594833090647e+04 
       1.793045412706e-02       2.587382912734e+04 
       1.936085890181e-02       2.562891821953e+04 
       2.090537352463e-02       2.520518493289e+04 
       2.257309535333e-02       2.459913330646e+04 
       2.437382002918e-02       2.381415696131e+04 
       2.631799944462e-02       2.286200845621e+04 
       2.841644545389e-02       2.176400108610e+04 
       3.067933355377e-02       2.055261130207e+04 
       3.311368470740e-02       1.927151087048e+04 
       3.571840443502e-02       1.797502379327e+04 
       3.847720348444e-02       1.672410268499e+04 
       4.135335538431e-02       1.557791216329e+04 
       4.429361667738e-02       1.457950008698e+04 
       4.724366439141e-02       1.374533702372e+04 
       5.016480835311e-02       1.306550958272e+04 
       5.303989620246e-02       1.251324263101e+04 
       5.586870669566e-02       1.205608014255e+04 
       5.866042680613e-02       1.166234867903e+04 
       6.142798932958e-02       1.130409164520e+04 
       6.418496440164e-02       1.095830542914e+04 
       6.694418833788e-02       1.060673233889e+04 
       6.971731106057e-02       1.023606211937e+04 
       7.251476155766e-02       9.838141462963e+03 
       7.534587671527e-02       9.409739108319e+03 
       7.821907666265e-02       8.952503741616e+03 
       8.114203772912e-02       8.472426110013e+03 
       8.412184535029e-02       7.979394865771e+03 
       8.716512279304e-02       7.485569357286e+03 
       9.027813695930e-02       7.004610306132e+03 
       9.346688431697e-02       6.549936185265e+03 
       9.673716028276e-02       6.133276112117e+03 
       1.000946150830e-01       5.763448874026e+03 
       1.035447986537e-01       5.445406774003e+03 
       1.070931966762e-01       5.179647737371e+03 
       1.107452594425e-01       4.961940794285e+03 
       1.145064249153e-01       4.783548230185e+03 
       1.183821370918e-01       4.631808178790e+03 
       1.223778605862e-01       4.491403177524e+03 
       1.264990921987e-01       4.346264363115e+03 
       1.307513701367e-01       4.182343518520e+03 
       1.351402814784e-01       3.990494347005e+03 
       1.396714684203e-01       3.768879802060e+03 
       1.443506338194e-01       3.523756123677e+03 
       1.491835465229e-01       3.268261729996e+03 
       1.541760469708e-01       3.019237101244e+03 
       1.593340535561e-01       2.793073020107e+03 
       1.646635702297e-01       2.601452027597e+03 
       1.701706958456e-01       2.448605734934e+03 
       1.758616357459e-01       2.330181439397e+03 
       1.817427160982e-01       2.234366231776e+03 
       1.878204015065e-01       2.145909055530e+03 
       1.941013164283e-01       2.048359693136e+03 
       2.005922709503e-01       1.931556368459e+03 
       2.073002914972e-01       1.796439561609e+03 
       2.142326570816e-01       1.654080284864e+03 
       2.213969417533e-01       1.519152059291e+03 
       2.288010639706e-01       1.403134154290e+03 
       2.364533437147e-01       1.310548649732e+03 
       2.443625682930e-01       1.237256627658e+03 
       2.525380679504e-01       1.172001922660e+03 
       2.609898026346e-01       1.103079315490e+03 
       2.697284615565e-01       1.025293239458e+03 
       2.787655775689e-01       9.419116268082e+02 
       2.881136588829e-01       8.621994361419e+02 
       2.977863412677e-01       7.942081094426e+02 
       3.077985646929e-01       7.383903213663e+02 
       3.181667794071e-01       6.890135416690e+02 
       3.289091877812e-01       6.391851660454e+02 
       3.400460299658e-01       5.864553916728e+02 
       3.515999236474e-01       5.345244700089e+02 
       3.635962711085e-01       4.880185180666e+02 
       3.760637506334e-01       4.480338647934e+02 
       3.890349143879e-01       4.111156088354e+02 
       4.025469216825e-01       3.744405860073e+02 
       4.166424456376e-01       3.384788134263e+02 
       4.313708035863e-01       3.055345356313e+02 
       4.467893782977e-01       2.759757458680e+02 
       4.629654199664e-01       2.483416642506e+02 
       4.799783501994e-01       2.216596726440e+02 
       4.979227319373e-01       1.967428389514e+02 
       5.169121270864e-01       1.741290209703e+02 
       5.370841404489e-01       1.529411949388e+02 
       5.586070464571e-01       1.330450617482e+02 
       5.816885094930e-01       1.148008255940e+02 
       6.065870144995e-01       9.794616922882e+01 
       6.336266468475e-01       8.236608260870e+01 
       6.632156059511e-01       6.816787278191e+01 
       6.958678639263e-01       5.523217086405e+01 
       7.322247985589e-01       4.361866933180e+01 
       7.730680195114e-01       3.332082209677e+01 
       8.193049553677e-01       2.440543037389e+01 
       8.718988016039e-01       1.693078986853e+01 
       9.317218031082e-01       1.095260681306e+01 
       9.993660908989e-01       6.468336455834e+00 
       1.075037110174e+00       3.373773138336e+00 
       1.158653485707e+00       1.459128664860e+00 
       1.250099157308e+00       4.462230757073e-01 
       1.349432401273e+00       4.919842913133e-02 
       1.456947457397e+00       1.720624066547e-02 
       1.573135111331e+00       1.557724546622e-01 
       1.698621895592e+00       3.303986375267e-01 
       1.834127512934e+00       4.613403379041e-01 
       1.980444934528e+00       5.148226904300e-01 
       2.138435191726e+00       4.905378483254e-01 
       2.309029199186e+00       4.093513371304e-01 
       2.493232377687e+00       3.006376741906e-01 
       2.692130395285e+00       1.923178992094e-01 
       2.906895534573e+00       1.040614781141e-01 
       3.138793597714e+00       4.458819814012e-02 
       3.389191366484e+00       1.277790379835e-02 
       3.659564657905e+00       1.178923463805e-03 
       3.951507022538e+00       4.714121963687e-04 
       4.266739136701e+00       3.011523207746e-03 
       4.607118943941e+00       4.573144500993e-03 
       4.974652605557e+00       4.152248368664e-03 
       5.371506324689e+00       2.604111282371e-03 
       5.800019113685e+00       1.102257640997e-03 
       6.262716579983e+00       2.526354339839e-04 
       6.762325811764e+00       6.293031107409e-06 
       7.301791451110e+00       2.966956061395e-05 
       7.884293049406e+00       6.748259010065e-05 
       8.513263807261e+00       5.258986323459e-05 
       9.192410809424e+00       2.024727703058e-05 
       9.925736873929e+00       2.783363737446e-06 
       1.071756414427e+01       4.817848479544e-08 
       1.157255956364e+01       8.570594462285e-07 
       1.249576238137e+01       6.127899831959e-07 
       1.349261385375e+01       1.027646127322e-07 
       1.456898931416e+01       2.859655484180e-09 
       1.573123280165e+01       3.640781333725e-08 
       1.698619445202e+01       2.357364377735e-08 
       1.834127087176e+01       5.148921826870e-09 
       1.980444873285e+01       5.509283044588e-10 
       2.138435184532e+01       2.789182871848e-10 
       2.309029198506e+01       6.131487534900e-10 
       2.493232377636e+01       7.324374572115e-10 
       2.692130395282e+01       4.954268551007e-10 
       2.906895534573e+01       3.014882133783e-10 
       3.138793597714e+01       2.049453921547e-10 
       3.389191366484e+01       1.533816397389e-10 
       3.659564657905e+01       1.020798213061e-10 
       3.951507022538e+01       5.863465307207e-11 
       4.266739136701e+01       4.062005148592e-11 
       4.607118943941e+01       2.696127919682e-11 
       4.974652605557e+01       2.461279332303e-11 
       5.371506324689e+01       1.638654563514e-11 
       5.800019113685e+01       8.875309559763e-12 
       6.262716579983e+01       4.169525526618e-12 
       6.762325811764e+01       2.151961142135e-12 
       7.301791451110e+01       1.316601949713e-12 
       7.884293049406e+01       1.262340536907e-13 
       8.513263807261e+01       1.233511817185e-13 
       9.192410809424e+01       8.394773122154e-15 
       9.925736873929e+01       7.317812325181e-14 
       1.071756414427e+02       3.510353657717e-14 
       1.157255956364e+02       2.986804417430e-15 
       1.249576238137e+02       1.162715617827e-15 
       1.349261385375e+02       2.666038003074e-16 
