# Matter power spectrum P(k) at redshift z=0
# for k=1.04775e-05 to 134.926 h/Mpc,
# number of wavenumbers equal to 255
#    1:k (h/Mpc)              2:P (Mpc/h)^3        
       1.047750691338e-05       5.020964583442e+01 
       1.131335172818e-05       5.407049533003e+01 
       1.221587619877e-05       5.822821094405e+01 
       1.319039970550e-05       6.270561966319e+01 
       1.424266598317e-05       6.752732241722e+01 
       1.537887697396e-05       7.271976757283e+01 
       1.660572938097e-05       7.831147158606e+01 
       1.793045413791e-05       8.433313142878e+01 
       1.936085902737e-05       9.081779249895e+01 
       2.090537469909e-05       9.780108146480e+01 
       2.257310435923e-05       1.053212919530e+02 
       2.437387742372e-05       1.134197250451e+02 
       2.631830745176e-05       1.221408243005e+02 
       2.841785470091e-05       1.315324604137e+02 
       3.068489367268e-05       1.416461644929e+02 
       3.313278604643e-05       1.525374421935e+02 
       3.577595943165e-05       1.642660549502e+02 
       3.862999240274e-05       1.768963422995e+02 
       4.171170631739e-05       1.904975997565e+02 
       4.503926445983e-05       2.051444258291e+02 
       4.863227909323e-05       2.209171404569e+02 
       5.251192705226e-05       2.379022245537e+02 
       5.670107455699e-05       2.561927816836e+02 
       6.122441198393e-05       2.758890473639e+02 
       6.610859938837e-05       2.970989229768e+02 
       7.138242363583e-05       3.199385560401e+02 
       7.707696806873e-05       3.445329729775e+02 
       8.322579570814e-05       3.710167332416e+02 
       8.986514707061e-05       3.995346452477e+02 
       9.703415376577e-05       4.302425393362e+02 
       1.047750691338e-04       4.633080764700e+02 
       1.131335172818e-04       4.989116267232e+02 
       1.221587619877e-04       5.372471947354e+02 
       1.319039970550e-04       5.785234118447e+02 
       1.424266598317e-04       6.229645933329e+02 
       1.537887697396e-04       6.708118485985e+02 
       1.660572938097e-04       7.223242670034e+02 
       1.793045413791e-04       7.777801567781e+02 
       1.936085902737e-04       8.374783627722e+02 
       2.090537469909e-04       9.017396282183e+02 
       2.257310435923e-04       9.709080283427e+02 
       2.437387742372e-04       1.045352453078e+03 
       2.631830745176e-04       1.125468125914e+03 
       2.841785470091e-04       1.211678184562e+03 
       3.068489367268e-04       1.304435251867e+03 
       3.313278604643e-04       1.404223058055e+03 
       3.577595943165e-04       1.511558022878e+03 
       3.862999240274e-04       1.626990844386e+03 
       4.171170631739e-04       1.751108032808e+03 
       4.503926445983e-04       1.884533385201e+03 
       4.863227909323e-04       2.027929382196e+03 
       5.251192705226e-04       2.181998449064e+03 
       5.670107455699e-04       2.347484094092e+03 
       6.122441198393e-04       2.525171854147e+03 
       6.610859938837e-04       2.715889947785e+03 
       7.138242363583e-04       2.920509629026e+03 
       7.707696806873e-04       3.139944991966e+03 
       8.322579570814e-04       3.375152169298e+03 
       8.986514707061e-04       3.627127576324e+03 
       9.703415376577e-04       3.896905031045e+03 
       1.047750691338e-03       4.185551542956e+03 
       1.131335172818e-03       4.494161476892e+03 
       1.221587619877e-03       4.823849290662e+03 
       1.319039970550e-03       5.175740628596e+03 
       1.424266598317e-03       5.551016371998e+03 
       1.537887697396e-03       5.950783328349e+03 
       1.660572938097e-03       6.376115447270e+03 
       1.793045413791e-03       6.828062434513e+03 
       1.936085902737e-03       7.307608381110e+03 
       2.090537469909e-03       7.815646893130e+03 
       2.257310435923e-03       8.352953938205e+03 
       2.437387742372e-03       8.920158392524e+03 
       2.631830745176e-03       9.517707383158e+03 
       2.841785470091e-03       1.014582888802e+04 
       3.068489367268e-03       1.080449180248e+04 
       3.313278604643e-03       1.149335783776e+04 
       3.577595943165e-03       1.221173167393e+04 
       3.862999240274e-03       1.295849916266e+04 
       4.171170631739e-03       1.373206631698e+04 
       4.503926445983e-03       1.453029349541e+04 
       4.863227909323e-03       1.535040896053e+04 
       5.251192705226e-03       1.618906495377e+04 
       5.670107455699e-03       1.704214963729e+04 
       6.122441198393e-03       1.790459466149e+04 
       6.610859938837e-03       1.877056188830e+04 
       7.138242363583e-03       1.963323829211e+04 
       7.707696806873e-03       2.048473727118e+04 
       8.322579570814e-03       2.131608003868e+04 
       8.986514707061e-03       2.211715328934e+04 
       9.703415376577e-03       2.287655151836e+04 
       1.047750691338e-02       2.358165249679e+04 
       1.131335172818e-02       2.421864149094e+04 
       1.221587619877e-02       2.477253016417e+04 
       1.319039970550e-02       2.522739588741e+04 
       1.424266598317e-02       2.556643021770e+04 
       1.537887697392e-02       2.577268102634e+04 
       1.660572938023e-02       2.582926501189e+04 
       1.793045412706e-02       2.572038887900e+04 
       1.936085890181e-02       2.543236435097e+04 
       2.090537352463e-02       2.495492757464e+04 
       2.257309535333e-02       2.428270815953e+04 
       2.437382002918e-02       2.341702648837e+04 
       2.631799944462e-02       2.236754436967e+04 
       2.841644545389e-02       2.115392530638e+04 
       3.067933355377e-02       1.980717714585e+04 
       3.311368470740e-02       1.837017300565e+04 
       3.571840443502e-02       1.689809287585e+04 
       3.847720348444e-02       1.545447891217e+04 
       4.135335538431e-02       1.410298895727e+04 
       4.429361667738e-02       1.289313848819e+04 
       4.724366439141e-02       1.184793429185e+04 
       5.016480835311e-02       1.096264536071e+04 
       5.303989620246e-02       1.021418889185e+04 
       5.586870669566e-02       9.572495717622e+03 
       5.866042680613e-02       9.007725248917e+03 
       6.142798932958e-02       8.493626719998e+03 
       6.418496440164e-02       8.008665832223e+03 
       6.694418833788e-02       7.535988087192e+03 
       6.971731106057e-02       7.063408002932e+03 
       7.251476155766e-02       6.583290593125e+03 
       7.534587671527e-02       6.092340250908e+03 
       7.821907666265e-02       5.591428142006e+03 
       8.114203772912e-02       5.084974613137e+03 
       8.412184535029e-02       4.580376924897e+03 
       8.716512279304e-02       4.086892543272e+03 
       9.027813695930e-02       3.614708791901e+03 
       9.346688431697e-02       3.173317773845e+03 
       9.673716028276e-02       2.770682621305e+03 
       1.000946150830e-01       2.412194595190e+03 
       1.035447986537e-01       2.100139416256e+03 
       1.070931966762e-01       1.833645214409e+03 
       1.107452594425e-01       1.608989684566e+03 
       1.145064249153e-01       1.420072865969e+03 
       1.183821370918e-01       1.259297227898e+03 
       1.223778605862e-01       1.118329916437e+03 
       1.264990921987e-01       9.891335986618e+02 
       1.307513701367e-01       8.651000907214e+02 
       1.351402814784e-01       7.421381205883e+02 
       1.396714684203e-01       6.194334299938e+02 
       1.443506338194e-01       4.995207211239e+02 
       1.491835465229e-01       3.872813042123e+02 
       1.541760469708e-01       2.882625380069e+02 
       1.593340535561e-01       2.066682286772e+02 
       1.646635702297e-01       1.440563153720e+02 
       1.701706958456e-01       9.900712961578e+01 
       1.758616357459e-01       6.808879688470e+01 
       1.817427160982e-01       4.708570669707e+01 
       1.878204015065e-01       3.228770638693e+01 
       1.941013164283e-01       2.088134914978e+01 
       2.005922709503e-01       1.152918923617e+01 
       2.073002914972e-01       4.450441555633e+00 
       2.142326570816e-01       5.766193090009e-01 
       2.213969417533e-01       2.935100148210e-01 
       2.288010639706e-01       2.770818546591e+00 
       2.364533437147e-01       6.309167313307e+00 
       2.443625682930e-01       9.388479846156e+00 
       2.525380679504e-01       1.159425911576e+01 
       2.609898026346e-01       1.342590486578e+01 
       2.697284615565e-01       1.552681684601e+01 
       2.787655775689e-01       1.810957038045e+01 
       2.881136588829e-01       2.058497498850e+01 
       2.977863412677e-01       2.186190231895e+01 
       3.077985646929e-01       2.140105019080e+01 
       3.181667794071e-01       1.961625716062e+01 
       3.289091877812e-01       1.747267990364e+01 
       3.400460299658e-01       1.561814509326e+01 
       3.515999236474e-01       1.392650856353e+01 
       3.635962711085e-01       1.198735641441e+01 
       3.760637506334e-01       9.638294985249e+00 
       3.890349143879e-01       7.279976050328e+00 
       4.025469216825e-01       5.303909822306e+00 
       4.166424456376e-01       3.764850607655e+00 
       4.313708035863e-01       2.501056315194e+00 
       4.467893782977e-01       1.469895975720e+00 
       4.629654199664e-01       7.315452288794e-01 
       4.799783501994e-01       2.942558842806e-01 
       4.979227319373e-01       7.345528366031e-02 
       5.169121270864e-01       6.497089163841e-04 
       5.370841404489e-01       3.167605535573e-02 
       5.586070464571e-01       1.074254504561e-01 
       5.816885094930e-01       1.877453394425e-01 
       6.065870144995e-01       2.427189403791e-01 
       6.336266468475e-01       2.529752775019e-01 
       6.632156059511e-01       2.238008185124e-01 
       6.958678639263e-01       1.649726835105e-01 
       7.322247985589e-01       9.810470847976e-02 
       7.730680195114e-01       4.218244758765e-02 
       8.193049553677e-01       9.674268568505e-03 
       8.718988016039e-01       6.531358266703e-05 
       9.317218031082e-01       2.644583507598e-03 
       9.993660908989e-01       5.414678998120e-03 
       1.075037110174e+00       4.134023486935e-03 
       1.158653485707e+00       1.458436825627e-03 
       1.250099157308e+00       1.310081571435e-04 
       1.349432401273e+00       2.466421405943e-05 
       1.456947457397e+00       8.797101023909e-05 
       1.573135111331e+00       3.728376782889e-05 
       1.698621895592e+00       1.201150041770e-06 
       1.834127512934e+00       3.260680587892e-06 
       1.980444934528e+00       4.349285609343e-06 
       2.138435191726e+00       1.172145678362e-06 
       2.309029199186e+00       7.833454437444e-08 
       2.493232377687e+00       2.388340780691e-09 
       2.692130395285e+00       2.458915526637e-08 
       2.906895534573e+00       5.765775703903e-08 
       3.138793597714e+00       3.884851869764e-08 
       3.389191366484e+00       1.790699069047e-08 
       3.659564657905e+00       1.458987544736e-08 
       3.951507022538e+00       9.607999314720e-09 
       4.266739136701e+00       8.741906606049e-09 
       4.607118943941e+00       3.291066579593e-09 
       4.974652605557e+00       7.503290367780e-09 
       5.371506324689e+00       2.031837488521e-08 
       5.800019113685e+00       2.316050132529e-08 
       6.262716579983e+00       4.375901718720e-11 
       6.762325811764e+00       2.806141354004e-08 
       7.301791451110e+00       5.024680274168e-10 
       7.884293049406e+00       3.476791715147e-10 
       8.513263807261e+00       7.589458359682e-09 
       9.192410809424e+00       7.983444372889e-10 
       9.925736873929e+00       4.264936850722e-09 
       1.071756414427e+01       3.015353087967e-09 
       1.157255956364e+01       2.237638932254e-12 
       1.249576238137e+01       1.935120742776e-10 
       1.349261385375e+01       4.855701750374e-10 
       1.456898931416e+01       7.421723696767e-09 
       1.573123280165e+01       3.427626732124e-09 
       1.698619445202e+01       1.530831046397e-10 
       1.834127087176e+01       2.875969409880e-11 
       1.980444873285e+01       1.872312377034e-10 
       2.138435184532e+01       4.069158872970e-10 
       2.309029198506e+01       2.709927793694e-10 
       2.493232377636e+01       9.333926970235e-11 
       2.692130395282e+01       9.090143577493e-11 
       2.906895534573e+01       3.628190957499e-14 
       3.138793597714e+01       2.382474834789e-11 
       3.389191366484e+01       3.193802730270e-11 
       3.659564657905e+01       1.721848397974e-13 
       3.951507022538e+01       2.758111250265e-11 
       4.266739136701e+01       1.238520904228e-11 
       4.607118943941e+01       8.821029497802e-11 
       4.974652605557e+01       1.176360536092e-09 
       5.371506324689e+01       4.367183402712e-11 
       5.800019113685e+01       1.208893381976e-09 
       6.262716579983e+01       2.545971803078e-12 
       6.762325811764e+01       1.396060061496e-12 
       7.301791451110e+01       4.822337901006e-11 
       7.884293049406e+01       4.337215688208e-12 
       8.513263807261e+01       1.579674653565e-11 
       9.192410809424e+01       1.362902055701e-11 
       9.925736873929e+01       3.498862414475e-11 
       1.071756414427e+02       4.962125919593e-11 
       1.157255956364e+02       1.975806030891e-10 
       1.249576238137e+02       1.442258621362e-11 
       1.349261385375e+02       5.454120295315e-12 
