# Matter power spectrum P(k) at redshift z=99
# for k=1.04775e-05 to 134.926 h/Mpc,
# number of wavenumbers equal to 255
#    1:k (h/Mpc)              2:P (Mpc/h)^3        
       1.047750691338e-05       7.261927126693e-03 
       1.131335172818e-05       7.820332184583e-03 
       1.221587619877e-05       8.421675418709e-03 
       1.319039970550e-05       9.069257777181e-03 
       1.424266598317e-05       9.766636493304e-03 
       1.537887697396e-05       1.051763978186e-02 
       1.660572938097e-05       1.132639255643e-02 
       1.793045413791e-05       1.219733206751e-02 
       1.936085902737e-05       1.313524192874e-02 
       2.090537469909e-05       1.414527091078e-02 
       2.257310435923e-05       1.523296551068e-02 
       2.437387742372e-05       1.640429661718e-02 
       2.631830745176e-05       1.766569610887e-02 
       2.841785470091e-05       1.902408719341e-02 
       3.068489367268e-05       2.048692976235e-02 
       3.313278604643e-05       2.206225477005e-02 
       3.577595943165e-05       2.375870893895e-02 
       3.862999240274e-05       2.558560680847e-02 
       4.171170631739e-05       2.755297684554e-02 
       4.503926445983e-05       2.967161946329e-02 
       4.863227909323e-05       3.195316469544e-02 
       5.251192705226e-05       3.441013480832e-02 
       5.670107455699e-05       3.705601757911e-02 
       6.122441198393e-05       3.990533430528e-02 
       6.610859938837e-05       4.297372261351e-02 
       7.138242363583e-05       4.627802075826e-02 
       7.707696806873e-05       4.983636181817e-02 
       8.322579570814e-05       5.366826810101e-02 
       8.986514707061e-05       5.779476344757e-02 
       9.703415376577e-05       6.223848248655e-02 
       1.047750691338e-04       6.702379853899e-02 
       1.131335172818e-04       7.217694964321e-02 
       1.221587619877e-04       7.772619063681e-02 
       1.319039970550e-04       8.370193416881e-02 
       1.424266598317e-04       9.013692545206e-02 
       1.537887697396e-04       9.706641172005e-02 
       1.660572938097e-04       1.045283347599e-01 
       1.793045413791e-04       1.125635334006e-01 
       1.936085902737e-04       1.212159596705e-01 
       2.090537469909e-04       1.305329113007e-01 
       2.257310435923e-04       1.405652825361e-01 
       2.437387742372e-04       1.513678281480e-01 
       2.631830745176e-04       1.629994481955e-01 
       2.841785470091e-04       1.755234897908e-01 
       3.068489367268e-04       1.890080653274e-01 
       3.313278604643e-04       2.035263985981e-01 
       3.577595943165e-04       2.191571787211e-01 
       3.862999240274e-04       2.359849433081e-01 
       4.171170631739e-04       2.541004723506e-01 
       4.503926445983e-04       2.736012072387e-01 
       4.863227909323e-04       2.945916786625e-01 
       5.251192705226e-04       3.171839520629e-01 
       5.670107455699e-04       3.414980782681e-01 
       6.122441198393e-04       3.676625430699e-01 
       6.610859938837e-04       3.958147288094e-01 
       7.138242363583e-04       4.261013348114e-01 
       7.707696806873e-04       4.586787897700e-01 
       8.322579570814e-04       4.937136130416e-01 
       8.986514707061e-04       5.313826980330e-01 
       9.703415376577e-04       5.718735195571e-01 
       1.047750691338e-03       6.153841945338e-01 
       1.131335172818e-03       6.621233642260e-01 
       1.221587619877e-03       7.123098762461e-01 
       1.319039970550e-03       7.661721281751e-01 
       1.424266598317e-03       8.239547198047e-01 
       1.537887697396e-03       8.859012297249e-01 
       1.660572938097e-03       9.522589506190e-01 
       1.793045413791e-03       1.023280285160e+00 
       1.936085902737e-03       1.099216541637e+00 
       2.090537469909e-03       1.180313283268e+00 
       2.257310435923e-03       1.266804483226e+00 
       2.437387742372e-03       1.358905322383e+00 
       2.631830745176e-03       1.456803276462e+00 
       2.841785470091e-03       1.560647648916e+00 
       3.068489367268e-03       1.670536990195e+00 
       3.313278604643e-03       1.786505010792e+00 
       3.577595943165e-03       1.908504369869e+00 
       3.862999240274e-03       2.036389481383e+00 
       4.171170631739e-03       2.169898427010e+00 
       4.503926445983e-03       2.308634466227e+00 
       4.863227909323e-03       2.452050573581e+00 
       5.251192705226e-03       2.599434541459e+00 
       5.670107455699e-03       2.749900718450e+00 
       6.122441198393e-03       2.902389745392e+00 
       6.610859938837e-03       3.055670938824e+00 
       7.138242363583e-03       3.208359047294e+00 
       7.707696806873e-03       3.358925723979e+00 
       8.322579570814e-03       3.505726943162e+00 
       8.986514707061e-03       3.647010895541e+00 
       9.703415376577e-03       3.780923921124e+00 
       1.047750691338e-02       3.905490100238e+00 
       1.131335172818e-02       4.018586189107e+00 
       1.221587619877e-02       4.117898059757e+00 
       1.319039970550e-02       4.200911370271e+00 
       1.424266598317e-02       4.264935451937e+00 
       1.537887697392e-02       4.307208902433e+00 
       1.660572938023e-02       4.325048526324e+00 
       1.793045412706e-02       4.316042492207e+00 
       1.936085890181e-02       4.278206047827e+00 
       2.090537352463e-02       4.210175503000e+00 
       2.257309535333e-02       4.111382143310e+00 
       2.437382002918e-02       3.982375043630e+00 
       2.631799944462e-02       3.825111694478e+00 
       2.841644545389e-02       3.643211916110e+00 
       3.067933355377e-02       3.442113093193e+00 
       3.311368470740e-02       3.229139257832e+00 
       3.571840443502e-02       3.013386009775e+00 
       3.847720348444e-02       2.805138197333e+00 
       4.135335538431e-02       2.614246056264e+00 
       4.429361667738e-02       2.447934909393e+00 
       4.724366439141e-02       2.309020874420e+00 
       5.016480835311e-02       2.195869452117e+00 
       5.303989620246e-02       2.104101283587e+00 
       5.586870669566e-02       2.028171002433e+00 
       5.866042680613e-02       1.962841915835e+00 
       6.142798932958e-02       1.903445965029e+00 
       6.418496440164e-02       1.846126721938e+00 
       6.694418833788e-02       1.787827998635e+00 
       6.971731106057e-02       1.726331248835e+00 
       7.251476155766e-02       1.660256202005e+00 
       7.534587671527e-02       1.589059981621e+00 
       7.821907666265e-02       1.513016764416e+00 
       8.114203772912e-02       1.433140190445e+00 
       8.412184535029e-02       1.351054023536e+00 
       8.716512279304e-02       1.268830827427e+00 
       9.027813695930e-02       1.188742612566e+00 
       9.346688431697e-02       1.113044802761e+00 
       9.673716028276e-02       1.043709651959e+00 
       1.000946150830e-01       9.822313318997e-01 
       1.035447986537e-01       9.294520364423e-01 
       1.070931966762e-01       8.854617925773e-01 
       1.107452594425e-01       8.495582963918e-01 
       1.145064249153e-01       8.202762910549e-01 
       1.183821370918e-01       7.954817229531e-01 
       1.223778605862e-01       7.725888115662e-01 
       1.264990921987e-01       7.488801656363e-01 
       1.307513701367e-01       7.219767168054e-01 
       1.351402814784e-01       6.903211345051e-01 
       1.396714684203e-01       6.535902258473e-01 
       1.443506338194e-01       6.128353351368e-01 
       1.491835465229e-01       5.702785759961e-01 
       1.541760469708e-01       5.287768839964e-01 
       1.593340535561e-01       4.911237181431e-01 
       1.646635702297e-01       4.593311540406e-01 
       1.701706958456e-01       4.341337881141e-01 
       1.758616357459e-01       4.148051077494e-01 
       1.817427160982e-01       3.993243457581e-01 
       1.878204015065e-01       3.850618704764e-01 
       1.941013164283e-01       3.691820541818e-01 
       2.005922709503e-01       3.499170525143e-01 
       2.073002914972e-01       3.274173814711e-01 
       2.142326570816e-01       3.035932944981e-01 
       2.213969417533e-01       2.809967321300e-01 
       2.288010639706e-01       2.616452617933e-01 
       2.364533437147e-01       2.463497569598e-01 
       2.443625682930e-01       2.343979420614e-01 
       2.525380679504e-01       2.237990171722e-01 
       2.609898026346e-01       2.124742416490e-01 
       2.697284615565e-01       1.994855250313e-01 
       2.787655775689e-01       1.854102556391e-01 
       2.881136588829e-01       1.719142372812e-01 
       2.977863412677e-01       1.604678174856e-01 
       3.077985646929e-01       1.511645200375e-01 
       3.181667794071e-01       1.429641455273e-01 
       3.289091877812e-01       1.345894942546e-01 
       3.400460299658e-01       1.255783645091e-01 
       3.515999236474e-01       1.166233003802e-01 
       3.635962711085e-01       1.086044733242e-01 
       3.760637506334e-01       1.017417401475e-01 
       3.890349143879e-01       9.537458676699e-02 
       4.025469216825e-01       8.895092758337e-02 
       4.166424456376e-01       8.256263304956e-02 
       4.313708035863e-01       7.667373704278e-02 
       4.467893782977e-01       7.136546456707e-02 
       4.629654199664e-01       6.634086289720e-02 
       4.799783501994e-01       6.139748680491e-02 
       4.979227319373e-01       5.671066976303e-02 
       5.169121270864e-01       5.239948337322e-02 
       5.370841404489e-01       4.827498283737e-02 
       5.586070464571e-01       4.430526268021e-02 
       5.816885094930e-01       4.057596607680e-02 
       6.065870144995e-01       3.702393992256e-02 
       6.336266468475e-01       3.362086681828e-02 
       6.632156059511e-01       3.039030353577e-02 
       6.958678639263e-01       2.729586601183e-02 
       7.322247985589e-01       2.434723677490e-02 
       7.730680195114e-01       2.153294585353e-02 
       8.193049553677e-01       1.886385373307e-02 
       8.718988016039e-01       1.635220997220e-02 
       9.317218031082e-01       1.402330580840e-02 
       9.993660908989e-01       1.190657971220e-02 
       1.075037110174e+00       1.002578649229e-02 
       1.158653485707e+00       8.390212081085e-03 
       1.250099157308e+00       6.992257587004e-03 
       1.349432401273e+00       5.809969854023e-03 
       1.456947457397e+00       4.816597344368e-03 
       1.573135111331e+00       3.985012226497e-03 
       1.698621895592e+00       3.290547955816e-03 
       1.834127512934e+00       2.711692699994e-03 
       1.980444934528e+00       2.229998351259e-03 
       2.138435191726e+00       1.829869129141e-03 
       2.309029199186e+00       1.498064375802e-03 
       2.493232377687e+00       1.223420027462e-03 
       2.692130395285e+00       9.965020072160e-04 
       2.906895534573e+00       8.093907836283e-04 
       3.138793597714e+00       6.554117338617e-04 
       3.389191366484e+00       5.289735600525e-04 
       3.659564657905e+00       4.253953829208e-04 
       3.951507022538e+00       3.407563967546e-04 
       4.266739136701e+00       2.717832602333e-04 
       4.607118943941e+00       2.157428675194e-04 
       4.974652605557e+00       1.703597999652e-04 
       5.371506324689e+00       1.337429582364e-04 
       5.800019113685e+00       1.043199137567e-04 
       6.262716579983e+00       8.078255087570e-05 
       6.762325811764e+00       6.205061041855e-05 
       7.301791451110e+00       4.723085320098e-05 
       7.884293049406e+00       3.558240823267e-05 
       8.513263807261e+00       2.649616885360e-05 
       9.192410809424e+00       1.946943504812e-05 
       9.925736873929e+00       1.408979666351e-05 
       1.071756414427e+01       1.001809023665e-05 
       1.157255956364e+01       6.977878668472e-06 
       1.249576238137e+01       4.743741305136e-06 
       1.349261385375e+01       3.132316258952e-06 
       1.456898931416e+01       1.996201879685e-06 
       1.573123280165e+01       1.217028440723e-06 
       1.698619445202e+01       7.005907551142e-07 
       1.834127087176e+01       3.731764190319e-07 
       1.980444873285e+01       1.776480935145e-07 
       2.138435184532e+01       7.047527960737e-08 
       2.309029198506e+01       1.954318970591e-08 
       2.493232377636e+01       1.709905470748e-09 
       2.692130395282e+01       1.078853506656e-09 
       2.906895534573e+01       7.368900535648e-09 
       3.138793597714e+01       1.451416298120e-08 
       3.389191366484e+01       1.951696776885e-08 
       3.659564657905e+01       2.139318870615e-08 
       3.951507022538e+01       2.041565121107e-08 
       4.266739136701e+01       1.743421188719e-08 
       4.607118943941e+01       1.348963159284e-08 
       4.974652605557e+01       9.473888028444e-09 
       5.371506324689e+01       5.992977766005e-09 
       5.800019113685e+01       3.357754763698e-09 
       6.262716579983e+01       1.610342125114e-09 
       6.762325811764e+01       6.152605281014e-10 
       7.301791451110e+01       1.557903429948e-10 
       7.884293049406e+01       1.091495377575e-11 
       8.513263807261e+01       8.094489413873e-12 
       9.192410809424e+01       3.994171662766e-11 
       9.925736873929e+01       5.828633718137e-11 
       1.071756414427e+02       5.445353252141e-11 
       1.157255956364e+02       3.784891843048e-11 
       1.249576238137e+02       2.011294918862e-11 
       1.349261385375e+02       7.813875228234e-12 
