# Matter power spectrum P(k) at redshift z=99
# for k=1.04775e-05 to 213.844 h/Mpc,
# number of wavenumbers equal to 261
#    1:k (h/Mpc)              2:P (Mpc/h)^3        
       1.047750691338e-05       7.261927498135e-03 
       1.131335172818e-05       7.820332584635e-03 
       1.221587619877e-05       8.421675849001e-03 
       1.319039970550e-05       9.069258240565e-03 
       1.424266598317e-05       9.766636992176e-03 
       1.537887697396e-05       1.051764035689e-02 
       1.660572938097e-05       1.132639313509e-02 
       1.793045413791e-05       1.219733268662e-02 
       1.936085902737e-05       1.313524260000e-02 
       2.090537469909e-05       1.414527163216e-02 
       2.257310435923e-05       1.523296628909e-02 
       2.437387742372e-05       1.640429745323e-02 
       2.631830745176e-05       1.766569700829e-02 
       2.841785470091e-05       1.902408816254e-02 
       3.068489367268e-05       2.048693080255e-02 
       3.313278604643e-05       2.206225589032e-02 
       3.577595943165e-05       2.375871013031e-02 
       3.862999240274e-05       2.558560810967e-02 
       4.171170631739e-05       2.755297825808e-02 
       4.503926445983e-05       2.967162098526e-02 
       4.863227909323e-05       3.195316631969e-02 
       5.251192705226e-05       3.441013653754e-02 
       5.670107455699e-05       3.705601950211e-02 
       6.122441198393e-05       3.990533630990e-02 
       6.610859938837e-05       4.297372488869e-02 
       7.138242363583e-05       4.627802342848e-02 
       7.707696806873e-05       4.983636437593e-02 
       8.322579570814e-05       5.366827086722e-02 
       8.986514707061e-05       5.779476652386e-02 
       9.703415376577e-05       6.223848565722e-02 
       1.047750691338e-04       6.702380194069e-02 
       1.131335172818e-04       7.217695290485e-02 
       1.221587619877e-04       7.772619456600e-02 
       1.319039970550e-04       8.370193840437e-02 
       1.424266598317e-04       9.013692999339e-02 
       1.537887697396e-04       9.706641661937e-02 
       1.660572938097e-04       1.045283400645e-01 
       1.793045413791e-04       1.125635391199e-01 
       1.936085902737e-04       1.212159660038e-01 
       2.090537469909e-04       1.305329178873e-01 
       2.257310435923e-04       1.405652896289e-01 
       2.437387742372e-04       1.513678357811e-01 
       2.631830745176e-04       1.629994563753e-01 
       2.841785470091e-04       1.755234985720e-01 
       3.068489367268e-04       1.890080747484e-01 
       3.313278604643e-04       2.035264086999e-01 
       3.577595943165e-04       2.191571895393e-01 
       3.862999240274e-04       2.359849549086e-01 
       4.171170631739e-04       2.541004847579e-01 
       4.503926445983e-04       2.736012205001e-01 
       4.863227909323e-04       2.945916928128e-01 
       5.251192705226e-04       3.171839671368e-01 
       5.670107455699e-04       3.414980942939e-01 
       6.122441198393e-04       3.676625600683e-01 
       6.610859938837e-04       3.958147467863e-01 
       7.138242363583e-04       4.261013537537e-01 
       7.707696806873e-04       4.586788096530e-01 
       8.322579570814e-04       4.937136337979e-01 
       8.986514707061e-04       5.313827195580e-01 
       9.703415376577e-04       5.718735416779e-01 
       1.047750691338e-03       6.153842170215e-01 
       1.131335172818e-03       6.621233867556e-01 
       1.221587619877e-03       7.123098983650e-01 
       1.319039970550e-03       7.661721492711e-01 
       1.424266598317e-03       8.239547394528e-01 
       1.537887697396e-03       8.859012466030e-01 
       1.660572938097e-03       9.522589626625e-01 
       1.793045413791e-03       1.023280289638e+00 
       1.936085902737e-03       1.099216534921e+00 
       2.090537469909e-03       1.180313263346e+00 
       2.257310435923e-03       1.266804438009e+00 
       2.437387742372e-03       1.358905243600e+00 
       2.631830745176e-03       1.456803165957e+00 
       2.841785470091e-03       1.560647466342e+00 
       3.068489367268e-03       1.670536742940e+00 
       3.313278604643e-03       1.786504633287e+00 
       3.577595943165e-03       1.908503881023e+00 
       3.862999240274e-03       2.036388820083e+00 
       4.171170631739e-03       2.169897438790e+00 
       4.503926445983e-03       2.308633275360e+00 
       4.863227909323e-03       2.452048743356e+00 
       5.251192705226e-03       2.599432149157e+00 
       5.670107455699e-03       2.749897358639e+00 
       6.122441198393e-03       2.902385153570e+00 
       6.610859938837e-03       3.055665295431e+00 
       7.138242363583e-03       3.208350731860e+00 
       7.707696806873e-03       3.358914378740e+00 
       8.322579570814e-03       3.505711729609e+00 
       8.986514707061e-03       3.646990749961e+00 
       9.703415376577e-03       3.780896567180e+00 
       1.047750691338e-02       3.905453588802e+00 
       1.131335172818e-02       4.018537706026e+00 
       1.221587619877e-02       4.117833940068e+00 
       1.319039970550e-02       4.200826938036e+00 
       1.424266598317e-02       4.264824736269e+00 
       1.537887697392e-02       4.307064447178e+00 
       1.660572938023e-02       4.324860879860e+00 
       1.793045412706e-02       4.315800228534e+00 
       1.936085890181e-02       4.277896516271e+00 
       2.090537352463e-02       4.209778466762e+00 
       2.257309535333e-02       4.110878863345e+00 
       2.437382002918e-02       3.981741585204e+00 
       2.631799944462e-02       3.824321240392e+00 
       2.841644545389e-02       3.642232748702e+00 
       3.067933355377e-02       3.440909831699e+00 
       3.311368470740e-02       3.227675799672e+00 
       3.571840443502e-02       3.011653729864e+00 
       3.847720348444e-02       2.803064761956e+00 
       4.135335538431e-02       2.611813347977e+00 
       4.429361667738e-02       2.445145410265e+00 
       4.724366439141e-02       2.305848226111e+00 
       5.016480835311e-02       2.192324164676e+00 
       5.303989620246e-02       2.100186920208e+00 
       5.586870669566e-02       2.023897136493e+00 
       5.866042680613e-02       1.958222808919e+00 
       6.142798932958e-02       1.898495995358e+00 
       6.418496440164e-02       1.840862902218e+00 
       6.694418833788e-02       1.782272032145e+00 
       6.971731106057e-02       1.720501947302e+00 
       7.251476155766e-02       1.654174017974e+00 
       7.534587671527e-02       1.582745892722e+00 
       7.821907666265e-02       1.506488740956e+00 
       8.114203772912e-02       1.426413784665e+00 
       8.412184535029e-02       1.344144239015e+00 
       8.716512279304e-02       1.261739223324e+00 
       9.027813695930e-02       1.181474109832e+00 
       9.346688431697e-02       1.105591196811e+00 
       9.673716028276e-02       1.036060407607e+00 
       1.000946150830e-01       9.743673487110e-01 
       1.035447986537e-01       9.213540382979e-01 
       1.070931966762e-01       8.770938866977e-01 
       1.107452594425e-01       8.408997918002e-01 
       1.145064249153e-01       8.113049734760e-01 
       1.183821370918e-01       7.861917417637e-01 
       1.223778605862e-01       7.629816138658e-01 
       1.264990921987e-01       7.389823623659e-01 
       1.307513701367e-01       7.118239981687e-01 
       1.351402814784e-01       6.799655256196e-01 
       1.396714684203e-01       6.430857848142e-01 
       1.443506338194e-01       6.022300513240e-01 
       1.491835465229e-01       5.596034119380e-01 
       1.541760469708e-01       5.180389233118e-01 
       1.593340535561e-01       4.803016637701e-01 
       1.646635702297e-01       4.483788516494e-01 
       1.701706958456e-01       4.229941427240e-01 
       1.758616357459e-01       4.034234391107e-01 
       1.817427160982e-01       3.876711777262e-01 
       1.878204015065e-01       3.731445309780e-01 
       1.941013164283e-01       3.570541498021e-01 
       2.005922709503e-01       3.376617926102e-01 
       2.073002914972e-01       3.151170727488e-01 
       2.142326570816e-01       2.912990969590e-01 
       2.213969417533e-01       2.687102575201e-01 
       2.288010639706e-01       2.493214112910e-01 
       2.364533437147e-01       2.339212523315e-01 
       2.443625682930e-01       2.218082875413e-01 
       2.525380679504e-01       2.110437900096e-01 
       2.609898026346e-01       1.996069070857e-01 
       2.697284615565e-01       1.865898580708e-01 
       2.787655775689e-01       1.725541493800e-01 
       2.881136588829e-01       1.591087496572e-01 
       2.977863412677e-01       1.476663692995e-01 
       3.077985646929e-01       1.383157574230e-01 
       3.181667794071e-01       1.300535160163e-01 
       3.289091877812e-01       1.216610849992e-01 
       3.400460299658e-01       1.126988375628e-01 
       3.515999236474e-01       1.038248383248e-01 
       3.635962711085e-01       9.586956959013e-02 
       3.760637506334e-01       8.903636677289e-02 
       3.890349143879e-01       8.270416588013e-02 
       4.025469216825e-01       7.635684951840e-02 
       4.166424456376e-01       7.007980903707e-02 
       4.313708035863e-01       6.430076597817e-02 
       4.467893782977e-01       5.909185852122e-02 
       4.629654199664e-01       5.418038363486e-02 
       4.799783501994e-01       4.938279405446e-02 
       4.979227319373e-01       4.485517273443e-02 
       5.169121270864e-01       4.070346676673e-02 
       5.370841404489e-01       3.675918744549e-02 
       5.586070464571e-01       3.299380813801e-02 
       5.816885094930e-01       2.948105491524e-02 
       6.065870144995e-01       2.616714866223e-02 
       6.336266468475e-01       2.302861034597e-02 
       6.632156059511e-01       2.008610122567e-02 
       6.958678639263e-01       1.731170869097e-02 
       7.322247985589e-01       1.471627046155e-02 
       7.730680195114e-01       1.229531684502e-02 
       8.193049553677e-01       1.006275956871e-02 
       8.718988016039e-01       8.034759520946e-03 
       9.317218031082e-01       6.235727104596e-03 
       9.993660908989e-01       4.689941077768e-03 
       1.075037110174e+00       3.410166354469e-03 
       1.158653485707e+00       2.391657944949e-03 
       1.250099157308e+00       1.611896525832e-03 
       1.349432401273e+00       1.036665537397e-03 
       1.456947457397e+00       6.288143698920e-04 
       1.573135111331e+00       3.527996748329e-04 
       1.698621895592e+00       1.769813728985e-04 
       1.834127512934e+00       7.424277735285e-05 
       1.980444934528e+00       2.205009472639e-05 
       2.138435191726e+00       2.279805805995e-06 
       2.309029199186e+00       9.599873021428e-07 
       2.493232377687e+00       7.948868029216e-06 
       2.692130395285e+00       1.652075364689e-05 
       2.906895534573e+00       2.283578281799e-05 
       3.138793597714e+00       2.536385014440e-05 
       3.389191366484e+00       2.412628950491e-05 
       3.659564657905e+00       2.020244836432e-05 
       3.951507022538e+00       1.497863286568e-05 
       4.266739136701e+00       9.760151889314e-06 
       4.607118943941e+00       5.458558750531e-06 
       4.974652605557e+00       2.487746127125e-06 
       5.371506324689e+00       8.160728650463e-07 
       5.800019113685e+00       1.259639558931e-07 
       6.262716579983e+00       2.215856757182e-09 
       6.762325811764e+00       8.987631601230e-08 
       7.301791451110e+00       1.740977157611e-07 
       7.884293049406e+00       1.816209719946e-07 
       8.513263807261e+00       1.302780346090e-07 
       9.192410809424e+00       6.630728740943e-08 
       9.925736873929e+00       2.181998176635e-08 
       1.071756414427e+01       3.001151528754e-09 
       1.157255956364e+01       7.106158271947e-11 
       1.249576238137e+01       1.583085276404e-09 
       1.349261385375e+01       2.039054154595e-09 
       1.456898931416e+01       1.203795756588e-09 
       1.573123280165e+01       3.559161312391e-10 
       1.698619445202e+01       2.804890472012e-11 
       1.834127087176e+01       6.291181288661e-12 
       1.980444873285e+01       2.145431191195e-11 
       2.138435184532e+01       1.100829996851e-11 
       2.309029198506e+01       1.180872964069e-12 
       2.493232377636e+01       2.199720064064e-13 
       2.692130395282e+01       9.081205032780e-13 
       2.906895534573e+01       5.636332137546e-13 
       3.138793597714e+01       1.624244789304e-13 
       3.389191366484e+01       4.522767371778e-14 
       3.659564657905e+01       2.923619498419e-14 
       3.951507022538e+01       3.552614824840e-14 
       4.266739136701e+01       3.554811110063e-14 
       4.607118943941e+01       2.764338028239e-14 
       4.974652605557e+01       1.900275842512e-14 
       5.371506324689e+01       1.319730577279e-14 
       5.800019113685e+01       1.009009562166e-14 
       6.262716579983e+01       7.458961528127e-15 
       6.762325811764e+01       5.218422383041e-15 
       7.301791451110e+01       3.758855571159e-15 
       7.884293049406e+01       2.649020306680e-15 
       8.513263807261e+01       1.963850208995e-15 
       9.192410809424e+01       1.211201022995e-15 
       9.925736873929e+01       9.018388608393e-16 
       1.071756414427e+02       6.115145252202e-16 
       1.157255956364e+02       4.304994015848e-16 
       1.249576238137e+02       2.760475607302e-16 
       1.349261385375e+02       1.695933847543e-16 
       1.456898931416e+02       1.159692902938e-16 
       1.573123280165e+02       7.550110321571e-17 
       1.698619445202e+02       4.171124832459e-17 
       1.834127087176e+02       2.833332252082e-17 
       1.980444873285e+02       1.621496591816e-17 
       2.138435184532e+02       4.433726305040e-18 
