# Matter power spectrum P(k) at redshift z=99
# for k=1.04775e-05 to 134.926 h/Mpc,
# number of wavenumbers equal to 255
#    1:k (h/Mpc)              2:P (Mpc/h)^3        
       1.047750691338e-05       7.261927107512e-03 
       1.131335172818e-05       7.820332163924e-03 
       1.221587619877e-05       8.421675396492e-03 
       1.319039970550e-05       9.069257753255e-03 
       1.424266598317e-05       9.766636467545e-03 
       1.537887697396e-05       1.051763975410e-02 
       1.660572938097e-05       1.132639252656e-02 
       1.793045413791e-05       1.219733203549e-02 
       1.936085902737e-05       1.313524189411e-02 
       2.090537469909e-05       1.414527087353e-02 
       2.257310435923e-05       1.523296547053e-02 
       2.437387742372e-05       1.640429657397e-02 
       2.631830745176e-05       1.766569606246e-02 
       2.841785470091e-05       1.902408714347e-02 
       3.068489367268e-05       2.048692970868e-02 
       3.313278604643e-05       2.206225471231e-02 
       3.577595943165e-05       2.375870887765e-02 
       3.862999240274e-05       2.558560674118e-02 
       4.171170631739e-05       2.755297677203e-02 
       4.503926445983e-05       2.967161938445e-02 
       4.863227909323e-05       3.195316461060e-02 
       5.251192705226e-05       3.441013471865e-02 
       5.670107455699e-05       3.705601748010e-02 
       6.122441198393e-05       3.990533419725e-02 
       6.610859938837e-05       4.297372249863e-02 
       7.138242363583e-05       4.627802063043e-02 
       7.707696806873e-05       4.983636168434e-02 
       8.322579570814e-05       5.366826795950e-02 
       8.986514707061e-05       5.779476329482e-02 
       9.703415376577e-05       6.223848232284e-02 
       1.047750691338e-04       6.702379836271e-02 
       1.131335172818e-04       7.217695042961e-02 
       1.221587619877e-04       7.772619043347e-02 
       1.319039970550e-04       8.370193394383e-02 
       1.424266598317e-04       9.013692521692e-02 
       1.537887697396e-04       9.706641146612e-02 
       1.660572938097e-04       1.045283344859e-01 
       1.793045413791e-04       1.125635331064e-01 
       1.936085902737e-04       1.212159593547e-01 
       2.090537469909e-04       1.305329109607e-01 
       2.257310435923e-04       1.405652821699e-01 
       2.437387742372e-04       1.513678277572e-01 
       2.631830745176e-04       1.629994477734e-01 
       2.841785470091e-04       1.755234893375e-01 
       3.068489367268e-04       1.890080648408e-01 
       3.313278604643e-04       2.035263980765e-01 
       3.577595943165e-04       2.191571781619e-01 
       3.862999240274e-04       2.359849427090e-01 
       4.171170631739e-04       2.541004717098e-01 
       4.503926445983e-04       2.736012065538e-01 
       4.863227909323e-04       2.945916779316e-01 
       5.251192705226e-04       3.171839512842e-01 
       5.670107455699e-04       3.414980774402e-01 
       6.122441198393e-04       3.676625421917e-01 
       6.610859938837e-04       3.958147278806e-01 
       7.138242363583e-04       4.261013338326e-01 
       7.707696806873e-04       4.586787887424e-01 
       8.322579570814e-04       4.937136119686e-01 
       8.986514707061e-04       5.313826969199e-01 
       9.703415376577e-04       5.718735184128e-01 
       1.047750691338e-03       6.153841933700e-01 
       1.131335172818e-03       6.621233630593e-01 
       1.221587619877e-03       7.123098750996e-01 
       1.319039970550e-03       7.661721270801e-01 
       1.424266598317e-03       8.239547187842e-01 
       1.537887697396e-03       8.859012288457e-01 
       1.660572938097e-03       9.522589499835e-01 
       1.793045413791e-03       1.023280284903e+00 
       1.936085902737e-03       1.099216541937e+00 
       2.090537469909e-03       1.180313284363e+00 
       2.257310435923e-03       1.266804485429e+00 
       2.437387742372e-03       1.358905326111e+00 
       2.631830745176e-03       1.456803282270e+00 
       2.841785470091e-03       1.560647657552e+00 
       3.068489367268e-03       1.670537002652e+00 
       3.313278604643e-03       1.786505028414e+00 
       3.577595943165e-03       1.908504394448e+00 
       3.862999240274e-03       2.036389447083e+00 
       4.171170631739e-03       2.169898223049e+00 
       4.503926445983e-03       2.308634494855e+00 
       4.863227909323e-03       2.452050623862e+00 
       5.251192705226e-03       2.599434667594e+00 
       5.670107455699e-03       2.749900865294e+00 
       6.122441198393e-03       2.902390023417e+00 
       6.610859938837e-03       3.055671229032e+00 
       7.138242363583e-03       3.208359520288e+00 
       7.707696806873e-03       3.358926235493e+00 
       8.322579570814e-03       3.505727609427e+00 
       8.986514707061e-03       3.647012220048e+00 
       9.703415376577e-03       3.780925190928e+00 
       1.047750691338e-02       3.905491803796e+00 
       1.131335172818e-02       4.018588405745e+00 
       1.221587619877e-02       4.117901010074e+00 
       1.319039970550e-02       4.200915305026e+00 
       1.424266598317e-02       4.264940490688e+00 
       1.537887697392e-02       4.307215448600e+00 
       1.660572938023e-02       4.325056966492e+00 
       1.793045412706e-02       4.316053388767e+00 
       1.936085890181e-02       4.278219923930e+00 
       2.090537352463e-02       4.210193197602e+00 
       2.257309535333e-02       4.111404448750e+00 
       2.437382002918e-02       3.982403023613e+00 
       2.631799944462e-02       3.825146434816e+00 
       2.841644545389e-02       3.643254630744e+00 
       3.067933355377e-02       3.442165317110e+00 
       3.311368470740e-02       3.229196020628e+00 
       3.571840443502e-02       3.013467834411e+00 
       3.847720348444e-02       2.805227183987e+00 
       4.135335538431e-02       2.614343999594e+00 
       4.429361667738e-02       2.448059208309e+00 
       4.724366439141e-02       2.309154834480e+00 
       5.016480835311e-02       2.196018498182e+00 
       5.303989620246e-02       2.104264997957e+00 
       5.586870669566e-02       2.028348748443e+00 
       5.866042680613e-02       1.963032932076e+00 
       6.142798932958e-02       1.903649374732e+00 
       6.418496440164e-02       1.846341543505e+00 
       6.694418833788e-02       1.788053232345e+00 
       6.971731106057e-02       1.726565419325e+00 
       7.251476155766e-02       1.660498913457e+00 
       7.534587671527e-02       1.589309534910e+00 
       7.821907666265e-02       1.513272686050e+00 
       8.114203772912e-02       1.433401498773e+00 
       8.412184535029e-02       1.351322006795e+00 
       8.716512279304e-02       1.269100924252e+00 
       9.027813695930e-02       1.189017121668e+00 
       9.346688431697e-02       1.113322531041e+00 
       9.673716028276e-02       1.043992781006e+00 
       1.000946150830e-01       9.825207094459e-01 
       1.035447986537e-01       9.297477889126e-01 
       1.070931966762e-01       8.857641675603e-01 
       1.107452594425e-01       8.498714000889e-01 
       1.145064249153e-01       8.205976427728e-01 
       1.183821370918e-01       7.958127865039e-01 
       1.223778605862e-01       7.729285052715e-01 
       1.264990921987e-01       7.492286432578e-01 
       1.307513701367e-01       7.223305865385e-01 
       1.351402814784e-01       6.906792711862e-01 
       1.396714684203e-01       6.539501902046e-01 
       1.443506338194e-01       6.131955702515e-01 
       1.491835465229e-01       5.706377512339e-01 
       1.541760469708e-01       5.291348767246e-01 
       1.593340535561e-01       4.914813412948e-01 
       1.646635702297e-01       4.596899094012e-01 
       1.701706958456e-01       4.344958025347e-01 
       1.758616357459e-01       4.151722063759e-01 
       1.817427160982e-01       3.996973282484e-01 
       1.878204015065e-01       3.854399143059e-01 
       1.941013164283e-01       3.695642635172e-01 
       2.005922709503e-01       3.503007254608e-01 
       2.073002914972e-01       3.277973400095e-01 
       2.142326570816e-01       3.039714490317e-01 
       2.213969417533e-01       2.813713027154e-01 
       2.288010639706e-01       2.620178536772e-01 
       2.364533437147e-01       2.467224958532e-01 
       2.443625682930e-01       2.347727287140e-01 
       2.525380679504e-01       2.241759443748e-01 
       2.609898026346e-01       2.128514870043e-01 
       2.697284615565e-01       1.998608253298e-01 
       2.787655775689e-01       1.857818300116e-01 
       2.881136588829e-01       1.722815708465e-01 
       2.977863412677e-01       1.608321021567e-01 
       3.077985646929e-01       1.515276206266e-01 
       3.181667794071e-01       1.433265913321e-01 
       3.289091877812e-01       1.349499572504e-01 
       3.400460299658e-01       1.259351330903e-01 
       3.515999236474e-01       1.169754628924e-01 
       3.635962711085e-01       1.089530902734e-01 
       3.760637506334e-01       1.020872490100e-01 
       3.890349143879e-01       9.571737381964e-02 
       4.025469216825e-01       8.928983046922e-02 
       4.166424456376e-01       8.289678425374e-02 
       4.313708035863e-01       7.700338590224e-02 
       4.467893782977e-01       7.169107005513e-02 
       4.629654199664e-01       6.666220653308e-02 
       4.799783501994e-01       6.171385993532e-02 
       4.979227319373e-01       5.702181216256e-02 
       5.169121270864e-01       5.270559660833e-02 
       5.370841404489e-01       4.857587351541e-02 
       5.586070464571e-01       4.460041516967e-02 
       5.816885094930e-01       4.086527892902e-02 
       6.065870144995e-01       3.730715519532e-02 
       6.336266468475e-01       3.389754989698e-02 
       6.632156059511e-01       3.066015792058e-02 
       6.958678639263e-01       2.755856029873e-02 
       7.322247985589e-01       2.460217625439e-02 
       7.730680195114e-01       2.177983943210e-02 
       8.193049553677e-01       1.910187406289e-02 
       8.718988016039e-01       1.658077051512e-02 
       9.317218031082e-01       1.424203648324e-02 
       9.993660908989e-01       1.211499202342e-02 
       1.075037110174e+00       1.022355642205e-02 
       1.158653485707e+00       8.577342829523e-03 
       1.250099157308e+00       7.168828392496e-03 
       1.349432401273e+00       5.976189148950e-03 
       1.456947457397e+00       4.972716104235e-03 
       1.573135111331e+00       4.131397431551e-03 
       1.698621895592e+00       3.427488244074e-03 
       1.834127512934e+00       2.839549442953e-03 
       1.980444934528e+00       2.349121280777e-03 
       2.138435191726e+00       1.940637108844e-03 
       2.309029199186e+00       1.600850620817e-03 
       2.493232377687e+00       1.318575776954e-03 
       2.692130395285e+00       1.084386624739e-03 
       2.906895534573e+00       8.903609873275e-04 
       3.138793597714e+00       7.298234579783e-04 
       3.389191366484e+00       5.971703897191e-04 
       3.659564657905e+00       4.877189386891e-04 
       3.951507022538e+00       3.975347469322e-04 
       4.266739136701e+00       3.233443647839e-04 
       4.607118943941e+00       2.623998004966e-04 
       4.974652605557e+00       2.124199839822e-04 
       5.371506324689e+00       1.715030456514e-04 
       5.800019113685e+00       1.380680412826e-04 
       6.262716579983e+00       1.108000663052e-04 
       6.762325811764e+00       8.861003434543e-05 
       7.301791451110e+00       7.059606664796e-05 
       7.884293049406e+00       5.600774287302e-05 
       8.513263807261e+00       4.422816712724e-05 
       9.192410809424e+00       3.474613066794e-05 
       9.925736873929e+00       2.714116076427e-05 
       1.071756414427e+01       2.106502412068e-05 
       1.157255956364e+01       1.623227107142e-05 
       1.249576238137e+01       1.240780011801e-05 
       1.349261385375e+01       9.398530547521e-06 
       1.456898931416e+01       7.046166986445e-06 
       1.573123280165e+01       5.221275822231e-06 
       1.698619445202e+01       3.817525222165e-06 
       1.834127087176e+01       2.748553375297e-06 
       1.980444873285e+01       1.943916692837e-06 
       2.138435184532e+01       1.346458034028e-06 
       2.309029198506e+01       9.098330467515e-07 
       2.493232377636e+01       5.967878272562e-07 
       2.692130395282e+01       3.774620536490e-07 
       2.906895534573e+01       2.280708110658e-07 
       3.138793597714e+01       1.298313534560e-07 
       3.389191366484e+01       6.811661696909e-08 
       3.659564657905e+01       3.170143784180e-08 
       3.951507022538e+01       1.209612925747e-08 
       4.266739136701e+01       3.063833050655e-09 
       4.607118943941e+01       1.627766380253e-10 
       4.974652605557e+01       3.672576649310e-10 
       5.371506324689e+01       1.744398712070e-09 
       5.800019113685e+01       3.174973074122e-09 
       6.262716579983e+01       4.120591191889e-09 
       6.762325811764e+01       4.426974515386e-09 
       7.301791451110e+01       4.169239198697e-09 
       7.884293049406e+01       3.529766378177e-09 
       8.513263807261e+01       2.713372658924e-09 
       9.192410809424e+01       1.895091006634e-09 
       9.925736873929e+01       1.194522941454e-09 
       1.071756414427e+02       6.672632802435e-10 
       1.157255956364e+02       3.191671334099e-10 
       1.249576238137e+02       1.216011136105e-10 
       1.349261385375e+02       3.067032865833e-11 
