# Matter power spectrum P(k) at redshift z=99
# for k=1.04775e-05 to 134.926 h/Mpc,
# number of wavenumbers equal to 255
#    1:k (h/Mpc)              2:P (Mpc/h)^3        
       1.047750691338e-05       7.261927661450e-03 
       1.131335172818e-05       7.820332760503e-03 
       1.221587619877e-05       8.421676038418e-03 
       1.319039970550e-05       9.069258444455e-03 
       1.424266598317e-05       9.766637211789e-03 
       1.537887697396e-05       1.051764059321e-02 
       1.660572938097e-05       1.132639339130e-02 
       1.793045413791e-05       1.219733295987e-02 
       1.936085902737e-05       1.313524289705e-02 
       2.090537469909e-05       1.414527194987e-02 
       2.257310435923e-05       1.523296663313e-02 
       2.437387742372e-05       1.640429782247e-02 
       2.631830745176e-05       1.766569740508e-02 
       2.841785470091e-05       1.902408858763e-02 
       3.068489367268e-05       2.048693126216e-02 
       3.313278604643e-05       2.206225638491e-02 
       3.577595943165e-05       2.375871066296e-02 
       3.862999240274e-05       2.558560868085e-02 
       4.171170631739e-05       2.755297887483e-02 
       4.503926445983e-05       2.967162164981e-02 
       4.863227909323e-05       3.195316703261e-02 
       5.251192705226e-05       3.441013732136e-02 
       5.670107455699e-05       3.705602027312e-02 
       6.122441198393e-05       3.990533721204e-02 
       6.610859938837e-05       4.297372585289e-02 
       7.138242363583e-05       4.627802414382e-02 
       7.707696806873e-05       4.983636551135e-02 
       8.322579570814e-05       5.366827207322e-02 
       8.986514707061e-05       5.779476770123e-02 
       9.703415376577e-05       6.223848724395e-02 
       1.047750691338e-04       6.702380345176e-02 
       1.131335172818e-04       7.217695505731e-02 
       1.221587619877e-04       7.772619632800e-02 
       1.319039970550e-04       8.370194032068e-02 
       1.424266598317e-04       9.013693204085e-02 
       1.537887697396e-04       9.706641873938e-02 
       1.660572938097e-04       1.045283424162e-01 
       1.793045413791e-04       1.125635416314e-01 
       1.936085902737e-04       1.212159685926e-01 
       2.090537469909e-04       1.305329208010e-01 
       2.257310435923e-04       1.405652927551e-01 
       2.437387742372e-04       1.513678391425e-01 
       2.631830745176e-04       1.629994599662e-01 
       2.841785470091e-04       1.755235019771e-01 
       3.068489367268e-04       1.890080788643e-01 
       3.313278604643e-04       2.035264131415e-01 
       3.577595943165e-04       2.191571942499e-01 
       3.862999240274e-04       2.359849600061e-01 
       4.171170631739e-04       2.541004902072e-01 
       4.503926445983e-04       2.736012263204e-01 
       4.863227909323e-04       2.945916990196e-01 
       5.251192705226e-04       3.171839737440e-01 
       5.670107455699e-04       3.414981013114e-01 
       6.122441198393e-04       3.676625675039e-01 
       6.610859938837e-04       3.958147546392e-01 
       7.138242363583e-04       4.261013620154e-01 
       7.707696806873e-04       4.586788183063e-01 
       8.322579570814e-04       4.937136428077e-01 
       8.986514707061e-04       5.313827288704e-01 
       9.703415376577e-04       5.718735512096e-01 
       1.047750691338e-03       6.153842266576e-01 
       1.131335172818e-03       6.621233963374e-01 
       1.221587619877e-03       7.123099076706e-01 
       1.319039970550e-03       7.661721580040e-01 
       1.424266598317e-03       8.239547474998e-01 
       1.537887697396e-03       8.859012532464e-01 
       1.660572938097e-03       9.522589666733e-01 
       1.793045413791e-03       1.023280289348e+00 
       1.936085902737e-03       1.099216528059e+00 
       2.090537469909e-03       1.180313245590e+00 
       2.257310435923e-03       1.266804411640e+00 
       2.437387742372e-03       1.358905195001e+00 
       2.631830745176e-03       1.456803085620e+00 
       2.841785470091e-03       1.560647350268e+00 
       3.068489367268e-03       1.670536575591e+00 
       3.313278604643e-03       1.786504394281e+00 
       3.577595943165e-03       1.908503543930e+00 
       3.862999240274e-03       2.036388375478e+00 
       4.171170631739e-03       2.169896777639e+00 
       4.503926445983e-03       2.308632345154e+00 
       4.863227909323e-03       2.452047476796e+00 
       5.251192705226e-03       2.599430442928e+00 
       5.670107455699e-03       2.749894953055e+00 
       6.122441198393e-03       2.902381843842e+00 
       6.610859938837e-03       3.055660757022e+00 
       7.138242363583e-03       3.208344487867e+00 
       7.707696806873e-03       3.358905871306e+00 
       8.322579570814e-03       3.505700119365e+00 
       8.986514707061e-03       3.646974990304e+00 
       9.703415376577e-03       3.780875280842e+00 
       1.047750691338e-02       3.905425693657e+00 
       1.131335172818e-02       4.018499108253e+00 
       1.221587619877e-02       4.117782279380e+00 
       1.319039970550e-02       4.200758088271e+00 
       1.424266598317e-02       4.264733371113e+00 
       1.537887697392e-02       4.306943777271e+00 
       1.660572938023e-02       4.324702264284e+00 
       1.793045412706e-02       4.315592827738e+00 
       1.936085890181e-02       4.277624511633e+00 
       2.090537352463e-02       4.209430191004e+00 
       2.257309535333e-02       4.110431784255e+00 
       2.437382002918e-02       3.981171496385e+00 
       2.631799944462e-02       3.823600676295e+00 
       2.841644545389e-02       3.641336461432e+00 
       3.067933355377e-02       3.439788099955e+00 
       3.311368470740e-02       3.226298758590e+00 
       3.571840443502e-02       3.009973812464e+00 
       3.847720348444e-02       2.801048048107e+00 
       4.135335538431e-02       2.609429509346e+00 
       4.429361667738e-02       2.442365960385e+00 
       4.724366439141e-02       2.302655500398e+00 
       5.016480835311e-02       2.188712412872e+00 
       5.303989620246e-02       2.096146663113e+00 
       5.586870669566e-02       2.019441517559e+00 
       5.866042680613e-02       1.953348349185e+00 
       6.142798932958e-02       1.893209123426e+00 
       6.418496440164e-02       1.835172679966e+00 
       6.694418833788e-02       1.776186517175e+00 
       6.971731106057e-02       1.714031949204e+00 
       7.251476155766e-02       1.647331341584e+00 
       7.534587671527e-02       1.575544120221e+00 
       7.821907666265e-02       1.498941055708e+00 
       8.114203772912e-02       1.418529869022e+00 
       8.412184535029e-02       1.335931565329e+00 
       8.716512279304e-02       1.253203624406e+00 
       9.027813695930e-02       1.172614776083e+00 
       9.346688431697e-02       1.096403041615e+00 
       9.673716028276e-02       1.026530570269e+00 
       1.000946150830e-01       9.644745159407e-01 
       1.035447986537e-01       9.110678704917e-01 
       1.070931966762e-01       8.663919616504e-01 
       1.107452594425e-01       8.297495870719e-01 
       1.145064249153e-01       7.996827676286e-01 
       1.183821370918e-01       7.740799974753e-01 
       1.223778605862e-01       7.503861000696e-01 
       1.264990921987e-01       7.259276043777e-01 
       1.307513701367e-01       6.983553808645e-01 
       1.351402814784e-01       6.661428588397e-01 
       1.396714684203e-01       6.289761431791e-01 
       1.443506338194e-01       5.878947263284e-01 
       1.491835465229e-01       5.450839190448e-01 
       1.541760469708e-01       5.033483637590e-01 
       1.593340535561e-01       4.654174357927e-01 
       1.646635702297e-01       4.332462455621e-01 
       1.701706958456e-01       4.075400453039e-01 
       1.758616357459e-01       3.875793706193e-01 
       1.817427160982e-01       3.714020640526e-01 
       1.878204015065e-01       3.564653192822e-01 
       1.941013164283e-01       3.400410327672e-01 
       2.005922709503e-01       3.204310697784e-01 
       2.073002914972e-01       2.977901855754e-01 
       2.142326570816e-01       2.739528378824e-01 
       2.213969417533e-01       2.513557167851e-01 
       2.288010639706e-01       2.319049842724e-01 
       2.364533437147e-01       2.163539545185e-01 
       2.443625682930e-01       2.040195048006e-01 
       2.525380679504e-01       1.930334611982e-01 
       2.609898026346e-01       1.814597502166e-01 
       2.697284615565e-01       1.684346220515e-01 
       2.787655775689e-01       1.544980550926e-01 
       2.881136588829e-01       1.411789310139e-01 
       2.977863412677e-01       1.298072819714e-01 
       3.077985646929e-01       1.204590969160e-01 
       3.181667794071e-01       1.121903086225e-01 
       3.289091877812e-01       1.038645323304e-01 
       3.400460299658e-01       9.507706478173e-02 
       3.515999236474e-01       8.643548883610e-02 
       3.635962711085e-01       7.869800873684e-02 
       3.760637506334e-01       7.204480690808e-02 
       3.890349143879e-01       6.591066376981e-02 
       4.025469216825e-01       5.983260742731e-02 
       4.166424456376e-01       5.388652626851e-02 
       4.313708035863e-01       4.844760135591e-02 
       4.467893782977e-01       4.357518307772e-02 
       4.629654199664e-01       3.903171192487e-02 
       4.799783501994e-01       3.465868218457e-02 
       4.979227319373e-01       3.058741622524e-02 
       5.169121270864e-01       2.690320941047e-02 
       5.370841404489e-01       2.346660122969e-02 
       5.586070464571e-01       2.025389245129e-02 
       5.816885094930e-01       1.732258096345e-02 
       6.065870144995e-01       1.463047056336e-02 
       6.336266468475e-01       1.215970440484e-02 
       6.632156059511e-01       9.926233126147e-03 
       6.958678639263e-01       7.911244716167e-03 
       7.322247985589e-01       6.123770499336e-03 
       7.730680195114e-01       4.562276524009e-03 
       8.193049553677e-01       3.235249489439e-03 
       8.718988016039e-01       2.149796540622e-03 
       9.317218031082e-01       1.309702441312e-03 
       9.993660908989e-01       7.079570307084e-04 
       1.075037110174e+00       3.199936690359e-04 
       1.158653485707e+00       1.053086061833e-04 
       1.250099157308e+00       1.497099831425e-05 
       1.349432401273e+00       1.552902302443e-06 
       1.456947457397e+00       2.610307223983e-05 
       1.573135111331e+00       6.069463246561e-05 
       1.698621895592e+00       8.822529870539e-05 
       1.834127512934e+00       1.008949821053e-04 
       1.980444934528e+00       9.788183874221e-05 
       2.138435191726e+00       8.290386229080e-05 
       2.309029199186e+00       6.180071625814e-05 
       2.493232377687e+00       4.013508055949e-05 
       2.692130395285e+00       2.211969678979e-05 
       2.906895534573e+00       9.725019354894e-06 
       3.138793597714e+00       2.924424979939e-06 
       3.389191366484e+00       3.244517764942e-07 
       3.659564657905e+00       6.362832744884e-08 
       3.951507022538e+00       5.595347005671e-07 
       4.266739136701e+00       9.012415096234e-07 
       4.607118943941e+00       8.436398884553e-07 
       4.974652605557e+00       5.411773088036e-07 
       5.371506324689e+00       2.347585444381e-07 
       5.800019113685e+00       5.591516596255e-08 
       6.262716579983e+00       1.812245328853e-09 
       6.762325811764e+00       5.502913497487e-09 
       7.301791451110e+00       1.348203198830e-08 
       7.884293049406e+00       1.074468259982e-08 
       8.513263807261e+00       4.183557196501e-09 
       9.192410809424e+00       5.784660544722e-10 
       9.925736873929e+00       9.469098930285e-12 
       1.071756414427e+01       1.741167748866e-10 
       1.157255956364e+01       1.230242063772e-10 
       1.249576238137e+01       2.010613050217e-11 
       1.349261385375e+01       5.968706663405e-13 
       1.456898931416e+01       6.871089537075e-12 
       1.573123280165e+01       4.233376577706e-12 
       1.698619445202e+01       7.631366609675e-13 
       1.834127087176e+01       5.259624052145e-14 
       1.980444873285e+01       3.134012783416e-14 
       2.138435184532e+01       8.476599837494e-14 
       2.309029198506e+01       9.751057547820e-14 
       2.493232377636e+01       5.858201330019e-14 
       2.692130395282e+01       3.225332846827e-14 
       2.906895534573e+01       1.433283853734e-14 
       3.138793597714e+01       1.090689821594e-14 
       3.389191366484e+01       6.740799926850e-15 
       3.659564657905e+01       4.689403541917e-15 
       3.951507022538e+01       2.248556481589e-15 
       4.266739136701e+01       1.618127118953e-15 
       4.607118943941e+01       5.623472223760e-16 
       4.974652605557e+01       2.554466555769e-16 
       5.371506324689e+01       1.345602689332e-16 
       5.800019113685e+01       9.043126922704e-18 
       6.262716579983e+01       4.722332534892e-19 
       6.762325811764e+01       9.521162165838e-19 
       7.301791451110e+01       4.182329957482e-18 
       7.884293049406e+01       6.404313609833e-19 
       8.513263807261e+01       1.643756363434e-17 
       9.192410809424e+01       5.493565729151e-18 
       9.925736873929e+01       1.951630079340e-18 
       1.071756414427e+02       3.048928996812e-17 
       1.157255956364e+02       1.124485773892e-18 
       1.249576238137e+02       1.388841348288e-19 
       1.349261385375e+02       9.429240517857e-20 
