# Matter power spectrum P(k) at redshift z=99
# for k=1.04775e-05 to 134.926 h/Mpc,
# number of wavenumbers equal to 255
#    1:k (h/Mpc)              2:P (Mpc/h)^3        
       1.047750691338e-05       7.261927552933e-03 
       1.131335172818e-05       7.820332643658e-03 
       1.221587619877e-05       8.421675912440e-03 
       1.319039970550e-05       9.069258308902e-03 
       1.424266598317e-05       9.766637065707e-03 
       1.537887697396e-05       1.051764043617e-02 
       1.660572938097e-05       1.132639322028e-02 
       1.793045413791e-05       1.219733277849e-02 
       1.936085902737e-05       1.313524269865e-02 
       2.090537469909e-05       1.414527173854e-02 
       2.257310435923e-05       1.523296640360e-02 
       2.437387742372e-05       1.640429757646e-02 
       2.631830745176e-05       1.766569714080e-02 
       2.841785470091e-05       1.902408830674e-02 
       3.068489367268e-05       2.048693095572e-02 
       3.313278604643e-05       2.206225605457e-02 
       3.577595943165e-05       2.375871030797e-02 
       3.862999240274e-05       2.558560830231e-02 
       4.171170631739e-05       2.755297846478e-02 
       4.503926445983e-05       2.967162120895e-02 
       4.863227909323e-05       3.195316655522e-02 
       5.251192705226e-05       3.441013679395e-02 
       5.670107455699e-05       3.705601978188e-02 
       6.122441198393e-05       3.990533661769e-02 
       6.610859938837e-05       4.297372521332e-02 
       7.138242363583e-05       4.627802378962e-02 
       7.707696806873e-05       4.983636475078e-02 
       8.322579570814e-05       5.366827127022e-02 
       8.986514707061e-05       5.779476683941e-02 
       9.703415376577e-05       6.223848612466e-02 
       1.047750691338e-04       6.702380246014e-02 
       1.131335172818e-04       7.217695415216e-02 
       1.221587619877e-04       7.772619514806e-02 
       1.319039970550e-04       8.370193900217e-02 
       1.424266598317e-04       9.013693072915e-02 
       1.537887697396e-04       9.706641734912e-02 
       1.660572938097e-04       1.045283408458e-01 
       1.793045413791e-04       1.125635399604e-01 
       1.936085902737e-04       1.212159669081e-01 
       2.090537469909e-04       1.305329188596e-01 
       2.257310435923e-04       1.405652906728e-01 
       2.437387742372e-04       1.513678368980e-01 
       2.631830745176e-04       1.629994575834e-01 
       2.841785470091e-04       1.755234998668e-01 
       3.068489367268e-04       1.890080761383e-01 
       3.313278604643e-04       2.035264101916e-01 
       3.577595943165e-04       2.191571911407e-01 
       3.862999240274e-04       2.359849566211e-01 
       4.171170631739e-04       2.541004865897e-01 
       4.503926445983e-04       2.736012224588e-01 
       4.863227909323e-04       2.945916949036e-01 
       5.251192705226e-04       3.171839693650e-01 
       5.670107455699e-04       3.414980966643e-01 
       6.122441198393e-04       3.676625625842e-01 
       6.610859938837e-04       3.958147494492e-01 
       7.138242363583e-04       4.261013565624e-01 
       7.707696806873e-04       4.586788126052e-01 
       8.322579570814e-04       4.937136368848e-01 
       8.986514707061e-04       5.313827227661e-01 
       9.703415376577e-04       5.718735449828e-01 
       1.047750691338e-03       6.153842203928e-01 
       1.131335172818e-03       6.621233901487e-01 
       1.221587619877e-03       7.123099017183e-01 
       1.319039970550e-03       7.661721525002e-01 
       1.424266598317e-03       8.239547424728e-01 
       1.537887697396e-03       8.859012492520e-01 
       1.660572938097e-03       9.522589647199e-01 
       1.793045413791e-03       1.023280290827e+00 
       1.936085902737e-03       1.099216534892e+00 
       2.090537469909e-03       1.180313261661e+00 
       2.257310435923e-03       1.266804434100e+00 
       2.437387742372e-03       1.358905239247e+00 
       2.631830745176e-03       1.456803151656e+00 
       2.841785470091e-03       1.560647449678e+00 
       3.068489367268e-03       1.670536720645e+00 
       3.313278604643e-03       1.786504602473e+00 
       3.577595943165e-03       1.908503839628e+00 
       3.862999240274e-03       2.036388761426e+00 
       4.171170631739e-03       2.169897365468e+00 
       4.503926445983e-03       2.308633168217e+00 
       4.863227909323e-03       2.452048639714e+00 
       5.251192705226e-03       2.599432005313e+00 
       5.670107455699e-03       2.749897149782e+00 
       6.122441198393e-03       2.902384806266e+00 
       6.610859938837e-03       3.055664950213e+00 
       7.138242363583e-03       3.208350256064e+00 
       7.707696806873e-03       3.358913690441e+00 
       8.322579570814e-03       3.505711043154e+00 
       8.986514707061e-03       3.646989895535e+00 
       9.703415376577e-03       3.780895524290e+00 
       1.047750691338e-02       3.905452349850e+00 
       1.131335172818e-02       4.018536129499e+00 
       1.221587619877e-02       4.117832172698e+00 
       1.319039970550e-02       4.200824928393e+00 
       1.424266598317e-02       4.264822531009e+00 
       1.537887697392e-02       4.307062117292e+00 
       1.660572938023e-02       4.324858649752e+00 
       1.793045412706e-02       4.315798324942e+00 
       1.936085890181e-02       4.277895266378e+00 
       2.090537352463e-02       4.209778676122e+00 
       2.257309535333e-02       4.110881316378e+00 
       2.437382002918e-02       3.981747285428e+00 
       2.631799944462e-02       3.824331861154e+00 
       2.841644545389e-02       3.642257042772e+00 
       3.067933355377e-02       3.440936456126e+00 
       3.311368470740e-02       3.227714869869e+00 
       3.571840443502e-02       3.011707332412e+00 
       3.847720348444e-02       2.803140276148e+00 
       4.135335538431e-02       2.611910439235e+00 
       4.429361667738e-02       2.445275296538e+00 
       4.724366439141e-02       2.306003851270e+00 
       5.016480835311e-02       2.192515950801e+00 
       5.303989620246e-02       2.100415412719e+00 
       5.586870669566e-02       2.024167322091e+00 
       5.866042680613e-02       1.958538540716e+00 
       6.142798932958e-02       1.898860968561e+00 
       6.418496440164e-02       1.841281355418e+00 
       6.694418833788e-02       1.782747557068e+00 
       6.971731106057e-02       1.721038760798e+00 
       7.251476155766e-02       1.654775893816e+00 
       7.534587671527e-02       1.583416041039e+00 
       7.821907666265e-02       1.507230615727e+00 
       8.114203772912e-02       1.427229345536e+00 
       8.412184535029e-02       1.345036125525e+00 
       8.716512279304e-02       1.262709315025e+00 
       9.027813695930e-02       1.182522428038e+00 
       9.346688431697e-02       1.106719189819e+00 
       9.673716028276e-02       1.037271964907e+00 
       1.000946150830e-01       9.756610515488e-01 
       1.035447986537e-01       9.227314563605e-01 
       1.070931966762e-01       8.785644660463e-01 
       1.107452594425e-01       8.424675972634e-01 
       1.145064249153e-01       8.129750817274e-01 
       1.183821370918e-01       7.879664307022e-01 
       1.223778605862e-01       7.648648721567e-01 
       1.264990921987e-01       7.409747128784e-01 
       1.307513701367e-01       7.139246918150e-01 
       1.351402814784e-01       6.821707177193e-01 
       1.396714684203e-01       6.453902700695e-01 
       1.443506338194e-01       6.046284090734e-01 
       1.491835465229e-01       5.620909322042e-01 
       1.541760469708e-01       5.206140947372e-01 
       1.593340535561e-01       4.829688535350e-01 
       1.646635702297e-01       4.511455826299e-01 
       1.701706958456e-01       4.258721148451e-01 
       1.758616357459e-01       4.064256938472e-01 
       1.817427160982e-01       3.908053005378e-01 
       1.878204015065e-01       3.764129957071e-01 
       1.941013164283e-01       3.604462032280e-01 
       2.005922709503e-01       3.411596946034e-01 
       2.073002914972e-01       3.187016740651e-01 
       2.142326570816e-01       2.949558604708e-01 
       2.213969417533e-01       2.724388812268e-01 
       2.288010639706e-01       2.531329857723e-01 
       2.364533437147e-01       2.378326321471e-01 
       2.443625682930e-01       2.258355282993e-01 
       2.525380679504e-01       2.151883461512e-01 
       2.609898026346e-01       2.038537288415e-01 
       2.697284615565e-01       1.909139665685e-01 
       2.787655775689e-01       1.769334092184e-01 
       2.881136588829e-01       1.635382289559e-01 
       2.977863412677e-01       1.521585033124e-01 
       3.077985646929e-01       1.428871436705e-01 
       3.181667794071e-01       1.347076002332e-01 
       3.289091877812e-01       1.263817499337e-01 
       3.400460299658e-01       1.174622057064e-01 
       3.515999236474e-01       1.086171374638e-01 
       3.635962711085e-01       1.006951946342e-01 
       3.760637506334e-01       9.390568031052e-02 
       3.890349143879e-01       8.761355925933e-02 
       4.025469216825e-01       8.128883374285e-02 
       4.166424456376e-01       7.501895690637e-02 
       4.313708035863e-01       6.924509171853e-02 
       4.467893782977e-01       6.404312546364e-02 
       4.629654199664e-01       5.913088629572e-02 
       4.799783501994e-01       5.431663425547e-02 
       4.979227319373e-01       4.976439684052e-02 
       5.169121270864e-01       4.558485084432e-02 
       5.370841404489e-01       4.160138047335e-02 
       5.586070464571e-01       3.778351897560e-02 
       5.816885094930e-01       3.420975382437e-02 
       6.065870144995e-01       3.082198228661e-02 
       6.336266468475e-01       2.759422466557e-02 
       6.632156059511e-01       2.454802042614e-02 
       6.958678639263e-01       2.165099109653e-02 
       7.322247985589e-01       1.891282398454e-02 
       7.730680195114e-01       1.632512810914e-02 
       8.193049553677e-01       1.389922725449e-02 
       8.718988016039e-01       1.164862890941e-02 
       9.317218031082e-01       9.597391658162e-03 
       9.993660908989e-01       7.771885266313e-03 
       1.075037110174e+00       6.190671087815e-03 
       1.158653485707e+00       4.857268375733e-03 
       1.250099157308e+00       3.758561352312e-03 
       1.349432401273e+00       2.868725585475e-03 
       1.456947457397e+00       2.158314207878e-03 
       1.573135111331e+00       1.598219569269e-03 
       1.698621895592e+00       1.162310377346e-03 
       1.834127512934e+00       8.278371597796e-04 
       1.980444934528e+00       5.753665384763e-04 
       2.138435191726e+00       3.884579406639e-04 
       2.309029199186e+00       2.532078511925e-04 
       2.493232377687e+00       1.580396363137e-04 
       2.692130395285e+00       9.331126807442e-05 
       2.906895534573e+00       5.117049369222e-05 
       3.138793597714e+00       2.526961187479e-05 
       3.389191366484e+00       1.059336212175e-05 
       3.659564657905e+00       3.277428223495e-06 
       3.951507022538e+00       4.443364191621e-07 
       4.266739136701e+00       4.203909394380e-08 
       4.607118943941e+00       6.954762347248e-07 
       4.974652605557e+00       1.564262959667e-06 
       5.371506324689e+00       2.208688336688e-06 
       5.800019113685e+00       2.468574361166e-06 
       6.262716579983e+00       2.369157917000e-06 
       6.762325811764e+00       2.009237948673e-06 
       7.301791451110e+00       1.527479850163e-06 
       7.884293049406e+00       1.040920370107e-06 
       8.513263807261e+00       6.293873480793e-07 
       9.192410809424e+00       3.294384277675e-07 
       9.925736873929e+00       1.418654625722e-07 
       1.071756414427e+01       4.460495295467e-08 
       1.157255956364e+01       6.864851404054e-09 
       1.249576238137e+01       5.652025578321e-11 
       1.349261385375e+01       3.922582016851e-09 
       1.456898931416e+01       7.745162929651e-09 
       1.573123280165e+01       8.245609033172e-09 
       1.698619445202e+01       6.193926900830e-09 
       1.834127087176e+01       3.485033318483e-09 
       1.980444873285e+01       1.427633059618e-09 
       2.138435184532e+01       3.668341326783e-10 
       2.309029198506e+01       2.960506778766e-11 
       2.493232377636e+01       7.781699758814e-12 
       2.692130395282e+01       3.897325886779e-11 
       2.906895534573e+01       4.056056204005e-11 
       3.138793597714e+01       2.249943220558e-11 
       3.389191366484e+01       7.240736521924e-12 
       3.659564657905e+01       1.030240141456e-12 
       3.951507022538e+01       4.022908751880e-15 
       4.266739136701e+01       7.821136131616e-14 
       4.607118943941e+01       5.508484649504e-14 
       4.974652605557e+01       2.527346206245e-15 
       5.371506324689e+01       1.112975844424e-14 
       5.800019113685e+01       2.886128359681e-14 
       6.262716579983e+01       2.963700709866e-14 
       6.762325811764e+01       1.953574134484e-14 
       7.301791451110e+01       1.156177601581e-14 
       7.884293049406e+01       7.816057488278e-15 
       8.513263807261e+01       6.058421372558e-15 
       9.192410809424e+01       4.756919272212e-15 
       9.925736873929e+01       3.656827157805e-15 
       1.071756414427e+02       2.674589534398e-15 
       1.157255956364e+02       1.943724680624e-15 
       1.249576238137e+02       1.464957443751e-15 
       1.349261385375e+02       1.038091812513e-15 
