# Matter power spectrum P(k) at redshift z=99
# for k=1.04775e-05 to 213.844 h/Mpc,
# number of wavenumbers equal to 261
#    1:k (h/Mpc)              2:P (Mpc/h)^3        
       1.047750691338e-05       7.261927095227e-03 
       1.131335172818e-05       7.820332150693e-03 
       1.221587619877e-05       8.421675382263e-03 
       1.319039970550e-05       9.069257737930e-03 
       1.424266598317e-05       9.766636451047e-03 
       1.537887697396e-05       1.051763973633e-02 
       1.660572938097e-05       1.132639250743e-02 
       1.793045413791e-05       1.219733201499e-02 
       1.936085902737e-05       1.313524187193e-02 
       2.090537469909e-05       1.414527084967e-02 
       2.257310435923e-05       1.523296544481e-02 
       2.437387742372e-05       1.640429654629e-02 
       2.631830745176e-05       1.766569603274e-02 
       2.841785470091e-05       1.902408711150e-02 
       3.068489367268e-05       2.048692967431e-02 
       3.313278604643e-05       2.206225467534e-02 
       3.577595943165e-05       2.375870883837e-02 
       3.862999240274e-05       2.558560669806e-02 
       4.171170631739e-05       2.755297672491e-02 
       4.503926445983e-05       2.967161933395e-02 
       4.863227909323e-05       3.195316455637e-02 
       5.251192705226e-05       3.441013466114e-02 
       5.670107455699e-05       3.705601741680e-02 
       6.122441198393e-05       3.990533412812e-02 
       6.610859938837e-05       4.297372242505e-02 
       7.138242363583e-05       4.627802054823e-02 
       7.707696806873e-05       4.983636159857e-02 
       8.322579570814e-05       5.366826786901e-02 
       8.986514707061e-05       5.779476319698e-02 
       9.703415376577e-05       6.223848221798e-02 
       1.047750691338e-04       6.702379824981e-02 
       1.131335172818e-04       7.217695031036e-02 
       1.221587619877e-04       7.772619030316e-02 
       1.319039970550e-04       8.370193379992e-02 
       1.424266598317e-04       9.013692506615e-02 
       1.537887697396e-04       9.706641130344e-02 
       1.660572938097e-04       1.045283343105e-01 
       1.793045413791e-04       1.125635329179e-01 
       1.936085902737e-04       1.212159592303e-01 
       2.090537469909e-04       1.305329107429e-01 
       2.257310435923e-04       1.405652819354e-01 
       2.437387742372e-04       1.513678275069e-01 
       2.631830745176e-04       1.629994475126e-01 
       2.841785470091e-04       1.755234890471e-01 
       3.068489367268e-04       1.890080645292e-01 
       3.313278604643e-04       2.035263977424e-01 
       3.577595943165e-04       2.191571778037e-01 
       3.862999240274e-04       2.359849423253e-01 
       4.171170631739e-04       2.541004712994e-01 
       4.503926445983e-04       2.736012061151e-01 
       4.863227909323e-04       2.945916774635e-01 
       5.251192705226e-04       3.171839507856e-01 
       5.670107455699e-04       3.414980769100e-01 
       6.122441198393e-04       3.676625416293e-01 
       6.610859938837e-04       3.958147272857e-01 
       7.138242363583e-04       4.261013332057e-01 
       7.707696806873e-04       4.586787880842e-01 
       8.322579570814e-04       4.937136112814e-01 
       8.986514707061e-04       5.313826962070e-01 
       9.703415376577e-04       5.718735176799e-01 
       1.047750691338e-03       6.153841926246e-01 
       1.131335172818e-03       6.621233623120e-01 
       1.221587619877e-03       7.123098743652e-01 
       1.319039970550e-03       7.661721263788e-01 
       1.424266598317e-03       8.239547181307e-01 
       1.537887697396e-03       8.859012282825e-01 
       1.660572938097e-03       9.522589495765e-01 
       1.793045413791e-03       1.023280284739e+00 
       1.936085902737e-03       1.099216542130e+00 
       2.090537469909e-03       1.180313285064e+00 
       2.257310435923e-03       1.266804486839e+00 
       2.437387742372e-03       1.358905328499e+00 
       2.631830745176e-03       1.456803285991e+00 
       2.841785470091e-03       1.560647663084e+00 
       3.068489367268e-03       1.670537010630e+00 
       3.313278604643e-03       1.786505039700e+00 
       3.577595943165e-03       1.908504410189e+00 
       3.862999240274e-03       2.036389468839e+00 
       4.171170631739e-03       2.169898252893e+00 
       4.503926445983e-03       2.308634492072e+00 
       4.863227909323e-03       2.452050674889e+00 
       5.251192705226e-03       2.599434681258e+00 
       5.670107455699e-03       2.749901126601e+00 
       6.122441198393e-03       2.902390058477e+00 
       6.610859938837e-03       3.055671269990e+00 
       7.138242363583e-03       3.208360123025e+00 
       7.707696806873e-03       3.358926651562e+00 
       8.322579570814e-03       3.505726890097e+00 
       8.986514707061e-03       3.647012438133e+00 
       9.703415376577e-03       3.780926179701e+00 
       1.047750691338e-02       3.905492881148e+00 
       1.131335172818e-02       4.018589826640e+00 
       1.221587619877e-02       4.117902889561e+00 
       1.319039970550e-02       4.200917701378e+00 
       1.424266598317e-02       4.264943740247e+00 
       1.537887697392e-02       4.307219671355e+00 
       1.660572938023e-02       4.325062459967e+00 
       1.793045412706e-02       4.316060394689e+00 
       1.936085890181e-02       4.278228934954e+00 
       2.090537352463e-02       4.210204475855e+00 
       2.257309535333e-02       4.111418750354e+00 
       2.437382002918e-02       3.982420937050e+00 
       2.631799944462e-02       3.825168683479e+00 
       2.841644545389e-02       3.643282239610e+00 
       3.067933355377e-02       3.442198696286e+00 
       3.311368470740e-02       3.229241588731e+00 
       3.571840443502e-02       3.013516317314e+00 
       3.847720348444e-02       2.805283923452e+00 
       4.135335538431e-02       2.614410644660e+00 
       4.429361667738e-02       2.448132161402e+00 
       4.724366439141e-02       2.309240629341e+00 
       5.016480835311e-02       2.196115168757e+00 
       5.303989620246e-02       2.104369770407e+00 
       5.586870669566e-02       2.028462496280e+00 
       5.866042680613e-02       1.963155208459e+00 
       6.142798932958e-02       1.903779606195e+00 
       6.418496440164e-02       1.846479112709e+00 
       6.694418833788e-02       1.788197389073e+00 
       6.971731106057e-02       1.726715605555e+00 
       7.251476155766e-02       1.660654341920e+00 
       7.534587671527e-02       1.589469861981e+00 
       7.821907666265e-02       1.513436609469e+00 
       8.114203772912e-02       1.433568835827e+00 
       8.412184535029e-02       1.351492362257e+00 
       8.716512279304e-02       1.269273176278e+00 
       9.027813695930e-02       1.189193313348e+00 
       9.346688431697e-02       1.113501264298e+00 
       9.673716028276e-02       1.044174615747e+00 
       1.000946150830e-01       9.827061555479e-01 
       1.035447986537e-01       9.299366255480e-01 
       1.070931966762e-01       8.859586762837e-01 
       1.107452594425e-01       8.500712568155e-01 
       1.145064249153e-01       8.208035007050e-01 
       1.183821370918e-01       7.960245169839e-01 
       1.223778605862e-01       7.731458720979e-01 
       1.264990921987e-01       7.494521498195e-01 
       1.307513701367e-01       7.225572391534e-01 
       1.351402814784e-01       6.909085887440e-01 
       1.396714684203e-01       6.541808518824e-01 
       1.443506338194e-01       6.134264140614e-01 
       1.491835465229e-01       5.708678074906e-01 
       1.541760469708e-01       5.293640879309e-01 
       1.593340535561e-01       4.917106365028e-01 
       1.646635702297e-01       4.599197394441e-01 
       1.701706958456e-01       4.347276827503e-01 
       1.758616357459e-01       4.154075764343e-01 
       1.817427160982e-01       3.999367342283e-01 
       1.878204015065e-01       3.856826488809e-01 
       1.941013164283e-01       3.698092892393e-01 
       2.005922709503e-01       3.505463530344e-01 
       2.073002914972e-01       3.280429308233e-01 
       2.142326570816e-01       3.042135130033e-01 
       2.213969417533e-01       2.816115161711e-01 
       2.288010639706e-01       2.622565578283e-01 
       2.364533437147e-01       2.469615281010e-01 
       2.443625682930e-01       2.350126273806e-01 
       2.525380679504e-01       2.244176161701e-01 
       2.609898026346e-01       2.130934628011e-01 
       2.697284615565e-01       2.001017562077e-01 
       2.787655775689e-01       1.860198365247e-01 
       2.881136588829e-01       1.725170249838e-01 
       2.977863412677e-01       1.610658061149e-01 
       3.077985646929e-01       1.517606358912e-01 
       3.181667794071e-01       1.435591926384e-01 
       3.289091877812e-01       1.351813148325e-01 
       3.400460299658e-01       1.261641481125e-01 
       3.515999236474e-01       1.172017885402e-01 
       3.635962711085e-01       1.091767359117e-01 
       3.760637506334e-01       1.023093462745e-01 
       3.890349143879e-01       9.593749996798e-02 
       4.025469216825e-01       8.950751516455e-02 
       4.166424456376e-01       8.311166574253e-02 
       4.313708035863e-01       7.721526893154e-02 
       4.467893782977e-01       7.190039011778e-02 
       4.629654199664e-01       6.686882277737e-02 
       4.799783501994e-01       6.191731562089e-02 
       4.979227319373e-01       5.722201965867e-02 
       5.169121270864e-01       5.290266312088e-02 
       5.370841404489e-01       4.876956021434e-02 
       5.586070464571e-01       4.479051126212e-02 
       5.816885094930e-01       4.105168856525e-02 
       6.065870144995e-01       3.748971509602e-02 
       6.336266468475e-01       3.407600978341e-02 
       6.632156059511e-01       3.083433642319e-02 
       6.958678639263e-01       2.772817171382e-02 
       7.322247985589e-01       2.476695556432e-02 
       7.730680195114e-01       2.193942923056e-02 
       8.193049553677e-01       1.925598047405e-02 
       8.718988016039e-01       1.672915238943e-02 
       9.317218031082e-01       1.438402467226e-02 
       9.993660908989e-01       1.225051689675e-02 
       1.075037110174e+00       1.035245857514e-02 
       1.158653485707e+00       8.699542106600e-03 
       1.250099157308e+00       7.284457515634e-03 
       1.349432401273e+00       6.085336430462e-03 
       1.456947457397e+00       5.075618188432e-03 
       1.573135111331e+00       4.228196539183e-03 
       1.698621895592e+00       3.518442391696e-03 
       1.834127512934e+00       2.924883650188e-03 
       1.980444934528e+00       2.429071610469e-03 
       2.138435191726e+00       2.015424893739e-03 
       2.309029199186e+00       1.670696183123e-03 
       2.493232377687e+00       1.383719129589e-03 
       2.692130395285e+00       1.145063183178e-03 
       2.906895534573e+00       9.467931608009e-04 
       3.138793597714e+00       7.822302647311e-04 
       3.389191366484e+00       6.457667943970e-04 
       3.659564657905e+00       5.327180589363e-04 
       3.951507022538e+00       4.391364654793e-04 
       4.266739136701e+00       3.617479577649e-04 
       4.607118943941e+00       2.977882590222e-04 
       4.974652605557e+00       2.449767056745e-04 
       5.371506324689e+00       2.014034776159e-04 
       5.800019113685e+00       1.654750796228e-04 
       6.262716579983e+00       1.358744971614e-04 
       6.762325811764e+00       1.115031480154e-04 
       7.301791451110e+00       9.145093687259e-05 
       7.884293049406e+00       7.496331523811e-05 
       8.513263807261e+00       6.141490640337e-05 
       9.192410809424e+00       5.028858506616e-05 
       9.925736873929e+00       4.115720368083e-05 
       1.071756414427e+01       3.366678528146e-05 
       1.157255956364e+01       2.752633788152e-05 
       1.249576238137e+01       2.249487445595e-05 
       1.349261385375e+01       1.837459478327e-05 
       1.456898931416e+01       1.500227803552e-05 
       1.573123280165e+01       1.224349141095e-05 
       1.698619445202e+01       9.987597229798e-06 
       1.834127087176e+01       8.143918212822e-06 
       1.980444873285e+01       6.637803687289e-06 
       2.138435184532e+01       5.408013382234e-06 
       2.309029198506e+01       4.404267288953e-06 
       2.493232377636e+01       3.585390512557e-06 
       2.692130395282e+01       2.917623943112e-06 
       2.906895534573e+01       2.373294407386e-06 
       3.138793597714e+01       1.929791528306e-06 
       3.389191366484e+01       1.568553900582e-06 
       3.659564657905e+01       1.274450055066e-06 
       3.951507022538e+01       1.035107039117e-06 
       4.266739136701e+01       8.403875449817e-07 
       4.607118943941e+01       6.820285070720e-07 
       4.974652605557e+01       5.532947736432e-07 
       5.371506324689e+01       4.486875741385e-07 
       5.800019113685e+01       3.637097879550e-07 
       6.262716579983e+01       2.947011047603e-07 
       6.762325811764e+01       2.386867152163e-07 
       7.301791451110e+01       1.932353846854e-07 
       7.884293049406e+01       1.563652109481e-07 
       8.513263807261e+01       1.264706015790e-07 
       9.192410809424e+01       1.022334373649e-07 
       9.925736873929e+01       8.260622740098e-08 
       1.071756414427e+02       6.670393242322e-08 
       1.157255956364e+02       5.382978889163e-08 
       1.249576238137e+02       4.341262325958e-08 
       1.349261385375e+02       3.498548395469e-08 
       1.456898931416e+02       2.817237698919e-08 
       1.573123280165e+02       2.266678852201e-08 
       1.698619445202e+02       1.821964201467e-08 
       1.834127087176e+02       1.463003334127e-08 
       1.980444873285e+02       1.173405004400e-08 
       2.138435184532e+02       9.399553522321e-09 
