# Matter power spectrum P(k) at redshift z=99
# for k=1.04775e-05 to 134.926 h/Mpc,
# number of wavenumbers equal to 255
#    1:k (h/Mpc)              2:P (Mpc/h)^3        
       1.047750691338e-05       7.261927095263e-03 
       1.131335172818e-05       7.820332150732e-03 
       1.221587619877e-05       8.421675382305e-03 
       1.319039970550e-05       9.069257737976e-03 
       1.424266598317e-05       9.766636451096e-03 
       1.537887697396e-05       1.051763973638e-02 
       1.660572938097e-05       1.132639250749e-02 
       1.793045413791e-05       1.219733201505e-02 
       1.936085902737e-05       1.313524187199e-02 
       2.090537469909e-05       1.414527084974e-02 
       2.257310435923e-05       1.523296544488e-02 
       2.437387742372e-05       1.640429654637e-02 
       2.631830745176e-05       1.766569603283e-02 
       2.841785470091e-05       1.902408711159e-02 
       3.068489367268e-05       2.048692967441e-02 
       3.313278604643e-05       2.206225467545e-02 
       3.577595943165e-05       2.375870883849e-02 
       3.862999240274e-05       2.558560669819e-02 
       4.171170631739e-05       2.755297672505e-02 
       4.503926445983e-05       2.967161933410e-02 
       4.863227909323e-05       3.195316455653e-02 
       5.251192705226e-05       3.441013466131e-02 
       5.670107455699e-05       3.705601741699e-02 
       6.122441198393e-05       3.990533412832e-02 
       6.610859938837e-05       4.297372242527e-02 
       7.138242363583e-05       4.627802054847e-02 
       7.707696806873e-05       4.983636159882e-02 
       8.322579570814e-05       5.366826786927e-02 
       8.986514707061e-05       5.779476319727e-02 
       9.703415376577e-05       6.223848221829e-02 
       1.047750691338e-04       6.702379825014e-02 
       1.131335172818e-04       7.217695031072e-02 
       1.221587619877e-04       7.772619030354e-02 
       1.319039970550e-04       8.370193380034e-02 
       1.424266598317e-04       9.013692506660e-02 
       1.537887697396e-04       9.706641130392e-02 
       1.660572938097e-04       1.045283343110e-01 
       1.793045413791e-04       1.125635329185e-01 
       1.936085902737e-04       1.212159592309e-01 
       2.090537469909e-04       1.305329107436e-01 
       2.257310435923e-04       1.405652819361e-01 
       2.437387742372e-04       1.513678275076e-01 
       2.631830745176e-04       1.629994475134e-01 
       2.841785470091e-04       1.755234890480e-01 
       3.068489367268e-04       1.890080645301e-01 
       3.313278604643e-04       2.035263977434e-01 
       3.577595943165e-04       2.191571778048e-01 
       3.862999240274e-04       2.359849423264e-01 
       4.171170631739e-04       2.541004713006e-01 
       4.503926445983e-04       2.736012061164e-01 
       4.863227909323e-04       2.945916774649e-01 
       5.251192705226e-04       3.171839507870e-01 
       5.670107455699e-04       3.414980769116e-01 
       6.122441198393e-04       3.676625416309e-01 
       6.610859938837e-04       3.958147272874e-01 
       7.138242363583e-04       4.261013332075e-01 
       7.707696806873e-04       4.586787880861e-01 
       8.322579570814e-04       4.937136112834e-01 
       8.986514707061e-04       5.313826962091e-01 
       9.703415376577e-04       5.718735176820e-01 
       1.047750691338e-03       6.153841926268e-01 
       1.131335172818e-03       6.621233623142e-01 
       1.221587619877e-03       7.123098743674e-01 
       1.319039970550e-03       7.661721263809e-01 
       1.424266598317e-03       8.239547181326e-01 
       1.537887697396e-03       8.859012282842e-01 
       1.660572938097e-03       9.522589495777e-01 
       1.793045413791e-03       1.023280284739e+00 
       1.936085902737e-03       1.099216542129e+00 
       2.090537469909e-03       1.180313285062e+00 
       2.257310435923e-03       1.266804486835e+00 
       2.437387742372e-03       1.358905328492e+00 
       2.631830745176e-03       1.456803285979e+00 
       2.841785470091e-03       1.560647663067e+00 
       3.068489367268e-03       1.670537010606e+00 
       3.313278604643e-03       1.786505039667e+00 
       3.577595943165e-03       1.908504410142e+00 
       3.862999240274e-03       2.036389468774e+00 
       4.171170631739e-03       2.169898252805e+00 
       4.503926445983e-03       2.308634491951e+00 
       4.863227909323e-03       2.452050674724e+00 
       5.251192705226e-03       2.599434681034e+00 
       5.670107455699e-03       2.749901126298e+00 
       6.122441198393e-03       2.902390058067e+00 
       6.610859938837e-03       3.055671269438e+00 
       7.138242363583e-03       3.208360122280e+00 
       7.707696806873e-03       3.358926650558e+00 
       8.322579570814e-03       3.505726888754e+00 
       8.986514707061e-03       3.647012436333e+00 
       9.703415376577e-03       3.780926177302e+00 
       1.047750691338e-02       3.905492877960e+00 
       1.131335172818e-02       4.018589822422e+00 
       1.221587619877e-02       4.117902884007e+00 
       1.319039970550e-02       4.200917694092e+00 
       1.424266598317e-02       4.264943730728e+00 
       1.537887697392e-02       4.307219658994e+00 
       1.660572938023e-02       4.325062443988e+00 
       1.793045412706e-02       4.316060374141e+00 
       1.936085890181e-02       4.278228908619e+00 
       2.090537352463e-02       4.210204442484e+00 
       2.257309535333e-02       4.111418708251e+00 
       2.437382002918e-02       3.982420884310e+00 
       2.631799944462e-02       3.825168617961e+00 
       2.841644545389e-02       3.643282155733e+00 
       3.067933355377e-02       3.442198597785e+00 
       3.311368470740e-02       3.229241477445e+00 
       3.571840443502e-02       3.013516172506e+00 
       3.847720348444e-02       2.805283755917e+00 
       4.135335538431e-02       2.614410448324e+00 
       4.429361667738e-02       2.448131938770e+00 
       4.724366439141e-02       2.309240374521e+00 
       5.016480835311e-02       2.196114895900e+00 
       5.303989620246e-02       2.104369537790e+00 
       5.586870669566e-02       2.028462244364e+00 
       5.866042680613e-02       1.963154911134e+00 
       6.142798932958e-02       1.903779269209e+00 
       6.418496440164e-02       1.846478741997e+00 
       6.694418833788e-02       1.788196991407e+00 
       6.971731106057e-02       1.726715186684e+00 
       7.251476155766e-02       1.660653903981e+00 
       7.534587671527e-02       1.589469407076e+00 
       7.821907666265e-02       1.513436139143e+00 
       8.114203772912e-02       1.433568353677e+00 
       8.412184535029e-02       1.351491866121e+00 
       8.716512279304e-02       1.269273347147e+00 
       9.027813695930e-02       1.189192792434e+00 
       9.346688431697e-02       1.113500734761e+00 
       9.673716028276e-02       1.044174076657e+00 
       1.000946150830e-01       9.827056055220e-01 
       1.035447986537e-01       9.299370572522e-01 
       1.070931966762e-01       8.859580989182e-01 
       1.107452594425e-01       8.500706628753e-01 
       1.145064249153e-01       8.208028887850e-01 
       1.183821370918e-01       7.960237851105e-01 
       1.223778605862e-01       7.731452039084e-01 
       1.264990921987e-01       7.494514578151e-01 
       1.307513701367e-01       7.225565374079e-01 
       1.351402814784e-01       6.909078758092e-01 
       1.396714684203e-01       6.541801333857e-01 
       1.443506338194e-01       6.134256960521e-01 
       1.491835465229e-01       5.708670823281e-01 
       1.541760469708e-01       5.293634014164e-01 
       1.593340535561e-01       4.917099513493e-01 
       1.646635702297e-01       4.599190524558e-01 
       1.701706958456e-01       4.347269888028e-01 
       1.758616357459e-01       4.154068724707e-01 
       1.817427160982e-01       3.999358681272e-01 
       1.878204015065e-01       3.856819451058e-01 
       1.941013164283e-01       3.698085722682e-01 
       2.005922709503e-01       3.505456260300e-01 
       2.073002914972e-01       3.280421780082e-01 
       2.142326570816e-01       3.042128093759e-01 
       2.213969417533e-01       2.816106644966e-01 
       2.288010639706e-01       2.622558388474e-01 
       2.364533437147e-01       2.469607983578e-01 
       2.443625682930e-01       2.350122612621e-01 
       2.525380679504e-01       2.244168706273e-01 
       2.609898026346e-01       2.130928759440e-01 
       2.697284615565e-01       2.001013790912e-01 
       2.787655775689e-01       1.860193020046e-01 
       2.881136588829e-01       1.725162983069e-01 
       2.977863412677e-01       1.610650834175e-01 
       3.077985646929e-01       1.517596960298e-01 
       3.181667794071e-01       1.435584763782e-01 
       3.289091877812e-01       1.351806121221e-01 
       3.400460299658e-01       1.261633663047e-01 
       3.515999236474e-01       1.172010934016e-01 
       3.635962711085e-01       1.091760050970e-01 
       3.760637506334e-01       1.023086583935e-01 
       3.890349143879e-01       9.593682305762e-02 
       4.025469216825e-01       8.950683980361e-02 
       4.166424456376e-01       8.311088928830e-02 
       4.313708035863e-01       7.721462648990e-02 
       4.467893782977e-01       7.189974325184e-02 
       4.629654199664e-01       6.686818600348e-02 
       4.799783501994e-01       6.191668736263e-02 
       4.979227319373e-01       5.722138123080e-02 
       5.169121270864e-01       5.290205090984e-02 
       5.370841404489e-01       4.876895518140e-02 
       5.586070464571e-01       4.478991650446e-02 
       5.816885094930e-01       4.105110750396e-02 
       6.065870144995e-01       3.748913481754e-02 
       6.336266468475e-01       3.407544380834e-02 
       6.632156059511e-01       3.083378206446e-02 
       6.958678639263e-01       2.772763248104e-02 
       7.322247985589e-01       2.476643025074e-02 
       7.730680195114e-01       2.193891643476e-02 
       8.193049553677e-01       1.925548303373e-02 
       8.718988016039e-01       1.672867298008e-02 
       9.317218031082e-01       1.438356248061e-02 
       9.993660908989e-01       1.225007222525e-02 
       1.075037110174e+00       1.035203197472e-02 
       1.158653485707e+00       8.699134159642e-03 
       1.250099157308e+00       7.284068323051e-03 
       1.349432401273e+00       6.084964914536e-03 
       1.456947457397e+00       5.075281557724e-03 
       1.573135111331e+00       4.227860152388e-03 
       1.698621895592e+00       3.518122059781e-03 
       1.834127512934e+00       2.924579518185e-03 
       1.980444934528e+00       2.428782867772e-03 
       2.138435191726e+00       2.015150645192e-03 
       2.309029199186e+00       1.670435647222e-03 
       2.493232377687e+00       1.383472456922e-03 
       2.692130395285e+00       1.144828802670e-03 
       2.906895534573e+00       9.465716371502e-04 
       3.138793597714e+00       7.820199326936e-04 
       3.389191366484e+00       6.455679052279e-04 
       3.659564657905e+00       5.325296893228e-04 
       3.951507022538e+00       4.389583711804e-04 
       4.266739136701e+00       3.615789897013e-04 
       4.607118943941e+00       2.976284667916e-04 
       4.974652605557e+00       2.448255033583e-04 
       5.371506324689e+00       2.012604885556e-04 
       5.800019113685e+00       1.653396234568e-04 
       6.262716579983e+00       1.357462916890e-04 
       6.762325811764e+00       1.113818263537e-04 
       7.301791451110e+00       9.133606325146e-05 
       7.884293049406e+00       7.485446687639e-05 
       8.513263807261e+00       6.131200588077e-05 
       9.192410809424e+00       5.019124937881e-05 
       9.925736873929e+00       4.106512628932e-05 
       1.071756414427e+01       3.357964655721e-05 
       1.157255956364e+01       2.744362267369e-05 
       1.249576238137e+01       2.241655688709e-05 
       1.349261385375e+01       1.829977713845e-05 
       1.456898931416e+01       1.493219725656e-05 
       1.573123280165e+01       1.217725378585e-05 
       1.698619445202e+01       9.924718613754e-06 
       1.834127087176e+01       8.084478932860e-06 
       1.980444873285e+01       6.581564262896e-06 
       2.138435184532e+01       5.354759445223e-06 
       2.309029198506e+01       4.353903562285e-06 
       2.493232377636e+01       3.537746171442e-06 
       2.692130395282e+01       2.872579476728e-06 
       2.906895534573e+01       2.330713974939e-06 
       3.138793597714e+01       1.889543458473e-06 
       3.389191366484e+01       1.530551157064e-06 
       3.659564657905e+01       1.238580444231e-06 
       3.951507022538e+01       1.001265719575e-06 
       4.266739136701e+01       8.084815169910e-07 
       4.607118943941e+01       6.519681179629e-07 
       4.974652605557e+01       5.250020610592e-07 
       5.371506324689e+01       4.220749269111e-07 
       5.800019113685e+01       3.387202243385e-07 
       6.262716579983e+01       2.712568708786e-07 
       6.762325811764e+01       2.167200876958e-07 
       7.301791451110e+01       1.726873250523e-07 
       7.884293049406e+01       1.371758722930e-07 
       8.513263807261e+01       1.085861703618e-07 
       9.192410809424e+01       8.560919561658e-08 
       9.925736873929e+01       6.718020231983e-08 
       1.071756414427e+02       5.243576254702e-08 
       1.157255956364e+02       4.067357779043e-08 
       1.249576238137e+02       3.132387617474e-08 
       1.349261385375e+02       2.392204612224e-08 
