# Matter power spectrum P(k) at redshift z=99
# for k=1.04775e-05 to 134.926 h/Mpc,
# number of wavenumbers equal to 255
#    1:k (h/Mpc)              2:P (Mpc/h)^3        
       1.047750691338e-05       7.261928017778e-03 
       1.131335172818e-05       7.820333144255e-03 
       1.221587619877e-05       8.421676451353e-03 
       1.319039970550e-05       9.069258889088e-03 
       1.424266598317e-05       9.766637690518e-03 
       1.537887697396e-05       1.051764110878e-02 
       1.660572938097e-05       1.132639394759e-02 
       1.793045413791e-05       1.219733355742e-02 
       1.936085902737e-05       1.313524331107e-02 
       2.090537469909e-05       1.414527264359e-02 
       2.257310435923e-05       1.523296738187e-02 
       2.437387742372e-05       1.640429862695e-02 
       2.631830745176e-05       1.766569826896e-02 
       2.841785470091e-05       1.902408951929e-02 
       3.068489367268e-05       2.048693226226e-02 
       3.313278604643e-05       2.206225745554e-02 
       3.577595943165e-05       2.375871182904e-02 
       3.862999240274e-05       2.558560993104e-02 
       4.171170631739e-05       2.755298021575e-02 
       4.503926445983e-05       2.967162306285e-02 
       4.863227909323e-05       3.195316859817e-02 
       5.251192705226e-05       3.441013936820e-02 
       5.670107455699e-05       3.705602210164e-02 
       6.122441198393e-05       3.990533914126e-02 
       6.610859938837e-05       4.297372795442e-02 
       7.138242363583e-05       4.627802624570e-02 
       7.707696806873e-05       4.983636795577e-02 
       8.322579570814e-05       5.366827469045e-02 
       8.986514707061e-05       5.779477066726e-02 
       9.703415376577e-05       6.223849043337e-02 
       1.047750691338e-04       6.702380670941e-02 
       1.131335172818e-04       7.217695823296e-02 
       1.221587619877e-04       7.772620012152e-02 
       1.319039970550e-04       8.370194424791e-02 
       1.424266598317e-04       9.013693644984e-02 
       1.537887697396e-04       9.706642351003e-02 
       1.660572938097e-04       1.045283475042e-01 
       1.793045413791e-04       1.125635471054e-01 
       1.936085902737e-04       1.212159744853e-01 
       2.090537469909e-04       1.305329271025e-01 
       2.257310435923e-04       1.405652995081e-01 
       2.437387742372e-04       1.513678467952e-01 
       2.631830745176e-04       1.629994678121e-01 
       2.841785470091e-04       1.755235104028e-01 
       3.068489367268e-04       1.890080880588e-01 
       3.313278604643e-04       2.035264228454e-01 
       3.577595943165e-04       2.191572046171e-01 
       3.862999240274e-04       2.359849711332e-01 
       4.171170631739e-04       2.541005021068e-01 
       4.503926445983e-04       2.736012390370e-01 
       4.863227909323e-04       2.945917125927e-01 
       5.251192705226e-04       3.171839881938e-01 
       5.670107455699e-04       3.414981166699e-01 
       6.122441198393e-04       3.676625837900e-01 
       6.610859938837e-04       3.958147718567e-01 
       7.138242363583e-04       4.261013801503e-01 
       7.707696806873e-04       4.586788373312e-01 
       8.322579570814e-04       4.937136626550e-01 
       8.986514707061e-04       5.313827494355e-01 
       9.703415376577e-04       5.718735723213e-01 
       1.047750691338e-03       6.153842480894e-01 
       1.131335172818e-03       6.621234177678e-01 
       1.221587619877e-03       7.123099286521e-01 
       1.319039970550e-03       7.661721779335e-01 
       1.424266598317e-03       8.239547660188e-01 
       1.537887697396e-03       8.859012705939e-01 
       1.660572938097e-03       9.522589774957e-01 
       1.793045413791e-03       1.023280293454e+00 
       1.936085902737e-03       1.099216519310e+00 
       2.090537469909e-03       1.180313220037e+00 
       2.257310435923e-03       1.266804360091e+00 
       2.437387742372e-03       1.358905111228e+00 
       2.631830745176e-03       1.456802956632e+00 
       2.841785470091e-03       1.560647159777e+00 
       3.068489367268e-03       1.670536297342e+00 
       3.313278604643e-03       1.786503998678e+00 
       3.577595943165e-03       1.908502974495e+00 
       3.862999240274e-03       2.036387602376e+00 
       4.171170631739e-03       2.169895726087e+00 
       4.503926445983e-03       2.308630874095e+00 
       4.863227909323e-03       2.452045458446e+00 
       5.251192705226e-03       2.599427668564e+00 
       5.670107455699e-03       2.749891176889e+00 
       6.122441198393e-03       2.902376696696e+00 
       6.610859938837e-03       3.055653746110e+00 
       7.138242363583e-03       3.208334968200e+00 
       7.707696806873e-03       3.358892951976e+00 
       8.322579570814e-03       3.505682640114e+00 
       8.986514707061e-03       3.646951436307e+00 
       9.703415376577e-03       3.780843630077e+00 
       1.047750691338e-02       3.905383313220e+00 
       1.131335172818e-02       4.018442600254e+00 
       1.221587619877e-02       4.117707236668e+00 
       1.319039970550e-02       4.200658862340e+00 
       1.424266598317e-02       4.264602738574e+00 
       1.537887697392e-02       4.306772631903e+00 
       1.660572938023e-02       4.324479797861e+00 
       1.793045412706e-02       4.315303397269e+00 
       1.936085890181e-02       4.277252635519e+00 
       2.090537352463e-02       4.208951730180e+00 
       2.257309535333e-02       4.109822746141e+00 
       2.437382002918e-02       3.980401275502e+00 
       2.631799944462e-02       3.822635124816e+00 
       2.841644545389e-02       3.640127274651e+00 
       3.067933355377e-02       3.438309998199e+00 
       3.311368470740e-02       3.224493473895e+00 
       3.571840443502e-02       3.007790151575e+00 
       3.847720348444e-02       2.798451375649e+00 
       4.135335538431e-02       2.606384209694e+00 
       4.429361667738e-02       2.438837941058e+00 
       4.724366439141e-02       2.298631490553e+00 
       5.016480835311e-02       2.184192297539e+00 
       5.303989620246e-02       2.091132262828e+00 
       5.586870669566e-02       2.013945584794e+00 
       5.866042680613e-02       1.947383020172e+00 
       6.142798932958e-02       1.886784216945e+00 
       6.418496440164e-02       1.828312381614e+00 
       6.694418833788e-02       1.768908384513e+00 
       6.971731106057e-02       1.706360698127e+00 
       7.251476155766e-02       1.639289268246e+00 
       7.534587671527e-02       1.567155376903e+00 
       7.821907666265e-02       1.490226487484e+00 
       8.114203772912e-02       1.409509005394e+00 
       8.412184535029e-02       1.326619501601e+00 
       8.716512279304e-02       1.243611161345e+00 
       9.027813695930e-02       1.162743633405e+00 
       9.346688431697e-02       1.086247439552e+00 
       9.673716028276e-02       1.016075792063e+00 
       1.000946150830e-01       9.536989652677e-01 
       1.035447986537e-01       8.999413373158e-01 
       1.070931966762e-01       8.548822604185e-01 
       1.107452594425e-01       8.178238925559e-01 
       1.145064249153e-01       7.873163564427e-01 
       1.183821370918e-01       7.612661153407e-01 
       1.223778605862e-01       7.371331658780e-01 
       1.264990921987e-01       7.122707827615e-01 
       1.307513701367e-01       6.843502896310e-01 
       1.351402814784e-01       6.518639648753e-01 
       1.396714684203e-01       6.145037617346e-01 
       1.443506338194e-01       5.732992040285e-01 
       1.491835465229e-01       5.304150552262e-01 
       1.541760469708e-01       4.886212743560e-01 
       1.593340535561e-01       4.506095130871e-01 
       1.646635702297e-01       4.183012370179e-01 
       1.701706958456e-01       3.923839746487e-01 
       1.758616357459e-01       3.721460612859e-01 
       1.817427160982e-01       3.556586888171e-01 
       1.878204015065e-01       3.404337116893e-01 
       1.941013164283e-01       3.238025320170e-01 
       2.005922709503e-01       3.041127302752e-01 
       2.073002914972e-01       2.815180198198e-01 
       2.142326570816e-01       2.578082335724e-01 
       2.213969417533e-01       2.353505012616e-01 
       2.288010639706e-01       2.159891902631e-01 
       2.364533437147e-01       2.004441065361e-01 
       2.443625682930e-01       1.880496847206e-01 
       2.525380679504e-01       1.770081863025e-01 
       2.609898026346e-01       1.654647154946e-01 
       2.697284615565e-01       1.525970914289e-01 
       2.787655775689e-01       1.389209211376e-01 
       2.881136588829e-01       1.258899502324e-01 
       2.977863412677e-01       1.147567293495e-01 
       3.077985646929e-01       1.055871125881e-01 
       3.181667794071e-01       9.749086385518e-02 
       3.289091877812e-01       8.940569357971e-02 
       3.400460299658e-01       8.095710321459e-02 
       3.515999236474e-01       7.270684845425e-02 
       3.635962711085e-01       6.534899388588e-02 
       3.760637506334e-01       5.904224354281e-02 
       3.890349143879e-01       5.327012759680e-02 
       4.025469216825e-01       4.761395792090e-02 
       4.166424456376e-01       4.214043005356e-02 
       4.313708035863e-01       3.718001903322e-02 
       4.467893782977e-01       3.277996583277e-02 
       4.629654199664e-01       2.873060370745e-02 
       4.799783501994e-01       2.489346626984e-02 
       4.979227319373e-01       2.137739230980e-02 
       5.169121270864e-01       1.825049368435e-02 
       5.370841404489e-01       1.539418321343e-02 
       5.586070464571e-01       1.278603884337e-02 
       5.816885094930e-01       1.046932507000e-02 
       6.065870144995e-01       8.406772126376e-03 
       6.336266468475e-01       6.582010317019e-03 
       6.632156059511e-01       5.003093373186e-03 
       6.958678639263e-01       3.652021116955e-03 
       7.322247985589e-01       2.529744021265e-03 
       7.730680195114e-01       1.628125713922e-03 
       8.193049553677e-01       9.425900460001e-04 
       8.718988016039e-01       4.623803181437e-04 
       9.317218031082e-01       1.683973523486e-04 
       9.993660908989e-01       2.912658385374e-05 
       1.075037110174e+00       9.607220864694e-07 
       1.158653485707e+00       3.584119900763e-05 
       1.250099157308e+00       9.145165402349e-05 
       1.349432401273e+00       1.384998904627e-04 
       1.456947457397e+00       1.621991898463e-04 
       1.573135111331e+00       1.598233914805e-04 
       1.698621895592e+00       1.369708273886e-04 
       1.834127512934e+00       1.029798009729e-04 
       1.980444934528e+00       6.740179802431e-05 
       2.138435191726e+00       3.740743347377e-05 
       2.309029199186e+00       1.658441013187e-05 
       2.493232377687e+00       5.053738659210e-06 
       2.692130395285e+00       5.875784361132e-07 
       2.906895534573e+00       9.251021128901e-08 
       3.138793597714e+00       9.058514805469e-07 
       3.389191366484e+00       1.478753331546e-06 
       3.659564657905e+00       1.388261213998e-06 
       3.951507022538e+00       8.890153091318e-07 
       4.266739136701e+00       3.820277274239e-07 
       4.607118943941e+00       8.920056876412e-08 
       4.974652605557e+00       2.453974519912e-09 
       5.371506324689e+00       9.879322976088e-09 
       5.800019113685e+00       2.292477925066e-08 
       6.262716579983e+00       1.781886500922e-08 
       6.762325811764e+00       6.752720071952e-09 
       7.301791451110e+00       8.794643106539e-10 
       7.884293049406e+00       2.467718658194e-11 
       8.513263807261e+00       3.039906995305e-10 
       9.192410809424e+00       2.023330761381e-10 
       9.925736873929e+00       2.983096855913e-11 
       1.071756414427e+01       1.678563082439e-12 
       1.157255956364e+01       1.255800987223e-11 
       1.249576238137e+01       7.319475472366e-12 
       1.349261385375e+01       1.330618326731e-12 
       1.456898931416e+01       1.002284213008e-13 
       1.573123280165e+01       5.998938054648e-14 
       1.698619445202e+01       1.952833286673e-13 
       1.834127087176e+01       2.026313775380e-13 
       1.980444873285e+01       1.317091207569e-13 
       2.138435184532e+01       6.577107535309e-14 
       2.309029198506e+01       4.739119774119e-14 
       2.493232377636e+01       3.580948365141e-14 
       2.692130395282e+01       1.775646153336e-14 
       2.906895534573e+01       1.345920923159e-14 
       3.138793597714e+01       1.578110262825e-14 
       3.389191366484e+01       5.702403913740e-15 
       3.659564657905e+01       1.659061456762e-15 
       3.951507022538e+01       1.622980899614e-15 
       4.266739136701e+01       1.292794778345e-15 
       4.607118943941e+01       4.948755369649e-16 
       4.974652605557e+01       1.272529634668e-16 
       5.371506324689e+01       3.263055832185e-18 
       5.800019113685e+01       5.209310280969e-19 
       6.262716579983e+01       5.181423266398e-17 
       6.762325811764e+01       1.011448464062e-17 
       7.301791451110e+01       4.563359725642e-18 
       7.884293049406e+01       1.580643617142e-18 
       8.513263807261e+01       2.148464867043e-16 
       9.192410809424e+01       1.049835908091e-17 
       9.925736873929e+01       1.298924796374e-16 
       1.071756414427e+02       1.418235399898e-16 
       1.157255956364e+02       1.870232716708e-17 
       1.249576238137e+02       4.407826612797e-19 
       1.349261385375e+02       9.135579707718e-20 
