# Matter power spectrum P(k) at redshift z=99
# for k=1.04775e-05 to 67.6233 h/Mpc,
# number of wavenumbers equal to 246
#    1:k (h/Mpc)              2:P (Mpc/h)^3        
       1.047750691338e-05       7.261927675704e-03 
       1.131335172818e-05       7.820331748520e-03 
       1.221587619877e-05       8.421675989496e-03 
       1.319039970550e-05       9.069258195438e-03 
       1.424266598317e-05       9.766638407889e-03 
       1.537887697396e-05       1.051764070056e-02 
       1.660572938097e-05       1.132639105922e-02 
       1.793045413791e-05       1.219733231850e-02 
       1.936085902737e-05       1.313524224847e-02 
       2.090537469909e-05       1.414527122395e-02 
       2.257310435923e-05       1.523296272735e-02 
       2.437387742372e-05       1.640429445114e-02 
       2.631830745176e-05       1.766569582806e-02 
       2.841785470091e-05       1.902408602467e-02 
       3.068489367268e-05       2.048692971321e-02 
       3.313278604643e-05       2.206225514376e-02 
       3.577595943165e-05       2.375870705751e-02 
       3.862999240274e-05       2.558560728388e-02 
       4.171170631739e-05       2.755297764317e-02 
       4.503926445983e-05       2.967161928376e-02 
       4.863227909323e-05       3.195316451959e-02 
       5.251192705226e-05       3.441013520517e-02 
       5.670107455699e-05       3.705601723844e-02 
       6.122441198393e-05       3.990533415015e-02 
       6.610859938837e-05       4.297372169729e-02 
       7.138242363583e-05       4.627802143337e-02 
       7.707696806873e-05       4.983636195928e-02 
       8.322579570814e-05       5.366826849128e-02 
       8.986514707061e-05       5.779476396603e-02 
       9.703415376577e-05       6.223848246103e-02 
       1.047750691338e-04       6.702379868016e-02 
       1.131335172818e-04       7.217695155947e-02 
       1.221587619877e-04       7.772619076313e-02 
       1.319039970550e-04       8.370193435340e-02 
       1.424266598317e-04       9.013692510733e-02 
       1.537887697396e-04       9.706641246001e-02 
       1.660572938097e-04       1.045283354641e-01 
       1.793045413791e-04       1.125635349464e-01 
       1.936085902737e-04       1.212159615396e-01 
       2.090537469909e-04       1.305329133173e-01 
       2.257310435923e-04       1.405652846708e-01 
       2.437387742372e-04       1.513678303070e-01 
       2.631830745176e-04       1.629994505436e-01 
       2.841785470091e-04       1.755234921836e-01 
       3.068489367268e-04       1.890080671070e-01 
       3.313278604643e-04       2.035264003139e-01 
       3.577595943165e-04       2.191571804435e-01 
       3.862999240274e-04       2.359849438395e-01 
       4.171170631739e-04       2.541004742404e-01 
       4.503926445983e-04       2.736012081200e-01 
       4.863227909323e-04       2.945916791951e-01 
       5.251192705226e-04       3.171839526235e-01 
       5.670107455699e-04       3.414980765116e-01 
       6.122441198393e-04       3.676625414285e-01 
       6.610859938837e-04       3.958147253555e-01 
       7.138242363583e-04       4.261013286218e-01 
       7.707696806873e-04       4.586787793730e-01 
       8.322579570814e-04       4.937136002798e-01 
       8.986514707061e-04       5.313826802891e-01 
       9.703415376577e-04       5.718734973700e-01 
       1.047750691338e-03       6.153841631074e-01 
       1.131335172818e-03       6.621233241039e-01 
       1.221587619877e-03       7.123098221966e-01 
       1.319039970550e-03       7.661720586213e-01 
       1.424266598317e-03       8.239546299106e-01 
       1.537887697396e-03       8.859011174652e-01 
       1.660572938097e-03       9.522588007275e-01 
       1.793045413791e-03       1.023280099854e+00 
       1.936085902737e-03       1.099216304539e+00 
       2.090537469909e-03       1.180312990306e+00 
       2.257310435923e-03       1.266804115555e+00 
       2.437387742372e-03       1.358904852903e+00 
       2.631830745176e-03       1.456802682373e+00 
       2.841785470091e-03       1.560646889357e+00 
       3.068489367268e-03       1.670536060819e+00 
       3.313278604643e-03       1.786503849786e+00 
       3.577595943165e-03       1.908502927473e+00 
       3.862999240274e-03       2.036387726128e+00 
       4.171170631739e-03       2.169896148463e+00 
       4.503926445983e-03       2.308631870405e+00 
       4.863227909323e-03       2.452047279262e+00 
       5.251192705226e-03       2.599430612194e+00 
       5.670107455699e-03       2.749896910215e+00 
       6.122441198393e-03       2.902386484221e+00 
       6.610859938837e-03       3.055668656585e+00 
       7.138242363583e-03       3.208356408415e+00 
       7.707696806873e-03       3.358923821654e+00 
       8.322579570814e-03       3.505724982161e+00 
       8.986514707061e-03       3.647009533065e+00 
       9.703415376577e-03       3.780923133040e+00 
       1.047750691338e-02       3.905490835922e+00 
       1.131335172818e-02       4.018587340137e+00 
       1.221587619877e-02       4.117901189703e+00 
       1.319039970550e-02       4.200914863468e+00 
       1.424266598317e-02       4.264941720938e+00 
       1.537887697392e-02       4.307216545418e+00 
       1.660572938023e-02       4.325057486334e+00 
       1.793045412706e-02       4.316056691664e+00 
       1.936085890181e-02       4.278226647635e+00 
       2.090537352463e-02       4.210199904052e+00 
       2.257309535333e-02       4.111415913159e+00 
       2.437382002918e-02       3.982422417045e+00 
       2.631799944462e-02       3.825161460754e+00 
       2.841644545389e-02       3.643274975506e+00 
       3.067933355377e-02       3.442189517670e+00 
       3.311368470740e-02       3.229232877439e+00 
       3.571840443502e-02       3.013504425683e+00 
       3.847720348444e-02       2.805267732089e+00 
       4.135335538431e-02       2.614400247381e+00 
       4.429361667738e-02       2.448114960529e+00 
       4.724366439141e-02       2.309215815640e+00 
       5.016480835311e-02       2.196097632653e+00 
       5.303989620246e-02       2.104341826484e+00 
       5.586870669566e-02       2.028439206841e+00 
       5.866042680613e-02       1.963129565074e+00 
       6.142798932958e-02       1.903752752827e+00 
       6.418496440164e-02       1.846445848790e+00 
       6.694418833788e-02       1.788168534128e+00 
       6.971731106057e-02       1.726683628267e+00 
       7.251476155766e-02       1.660620033011e+00 
       7.534587671527e-02       1.589436515776e+00 
       7.821907666265e-02       1.513401684870e+00 
       8.114203772912e-02       1.433530164831e+00 
       8.412184535029e-02       1.351458518609e+00 
       8.716512279304e-02       1.269239422040e+00 
       9.027813695930e-02       1.189154068409e+00 
       9.346688431697e-02       1.113461794985e+00 
       9.673716028276e-02       1.044138834496e+00 
       1.000946150830e-01       9.826689192426e-01 
       1.035447986537e-01       9.298980232669e-01 
       1.070931966762e-01       8.859170555314e-01 
       1.107452594425e-01       8.500306650385e-01 
       1.145064249153e-01       8.207594982876e-01 
       1.183821370918e-01       7.959799505124e-01 
       1.223778605862e-01       7.730999214786e-01 
       1.264990921987e-01       7.494045460351e-01 
       1.307513701367e-01       7.225090941493e-01 
       1.351402814784e-01       6.908606470951e-01 
       1.396714684203e-01       6.541322343132e-01 
       1.443506338194e-01       6.133795195838e-01 
       1.491835465229e-01       5.708197685461e-01 
       1.541760469708e-01       5.293159607640e-01 
       1.593340535561e-01       4.916631170588e-01 
       1.646635702297e-01       4.598718352250e-01 
       1.701706958456e-01       4.346796961721e-01 
       1.758616357459e-01       4.153593347361e-01 
       1.817427160982e-01       3.998868879083e-01 
       1.878204015065e-01       3.856314888499e-01 
       1.941013164283e-01       3.697578015201e-01 
       2.005922709503e-01       3.504945548893e-01 
       2.073002914972e-01       3.279914145700e-01 
       2.142326570816e-01       3.041627152454e-01 
       2.213969417533e-01       2.815603352421e-01 
       2.288010639706e-01       2.622063059943e-01 
       2.364533437147e-01       2.469113880138e-01 
       2.443625682930e-01       2.349620603783e-01 
       2.525380679504e-01       2.243669659190e-01 
       2.609898026346e-01       2.130421662213e-01 
       2.697284615565e-01       2.000515813663e-01 
       2.787655775689e-01       1.859696989590e-01 
       2.881136588829e-01       1.724676093154e-01 
       2.977863412677e-01       1.610169019166e-01 
       3.077985646929e-01       1.517120293785e-01 
       3.181667794071e-01       1.435103770715e-01 
       3.289091877812e-01       1.351330051773e-01 
       3.400460299658e-01       1.261160346691e-01 
       3.515999236474e-01       1.171543749482e-01 
       3.635962711085e-01       1.091296956050e-01 
       3.760637506334e-01       1.022626115234e-01 
       3.890349143879e-01       9.589109417109e-02 
       4.025469216825e-01       8.946155739919e-02 
       4.166424456376e-01       8.306632550521e-02 
       4.313708035863e-01       7.717083530483e-02 
       4.467893782977e-01       7.185616987041e-02 
       4.629654199664e-01       6.682534314228e-02 
       4.799783501994e-01       6.187439585775e-02 
       4.979227319373e-01       5.717989289076e-02 
       5.169121270864e-01       5.286115810527e-02 
       5.370841404489e-01       4.872882226850e-02 
       5.586070464571e-01       4.475069198698e-02 
       5.816885094930e-01       4.101235007417e-02 
       6.065870144995e-01       3.745116035427e-02 
       6.336266468475e-01       3.403849552481e-02 
       6.632156059511e-01       3.079758268034e-02 
       6.958678639263e-01       2.769230773084e-02 
       7.322247985589e-01       2.473201265525e-02 
       7.730680195114e-01       2.190564958061e-02 
       8.193049553677e-01       1.922336039576e-02 
       8.718988016039e-01       1.669769330085e-02 
       9.317218031082e-01       1.435389649357e-02 
       9.993660908989e-01       1.222171856516e-02 
       1.075037110174e+00       1.032506099210e-02 
       1.158653485707e+00       8.673526068587e-03 
       1.250099157308e+00       7.259815374880e-03 
       1.349432401273e+00       6.062020036683e-03 
       1.456947457397e+00       5.053601078437e-03 
       1.573135111331e+00       4.207432991919e-03 
       1.698621895592e+00       3.498899266750e-03 
       1.834127512934e+00       2.906499591071e-03 
       1.980444934528e+00       2.411783135740e-03 
       2.138435191726e+00       1.999209866706e-03 
       2.309029199186e+00       1.655494412887e-03 
       2.493232377687e+00       1.369492167424e-03 
       2.692130395285e+00       1.131757447449e-03 
       2.906895534573e+00       9.343572267865e-04 
       3.138793597714e+00       7.706300936629e-04 
       3.389191366484e+00       6.349533900122e-04 
       3.659564657905e+00       5.226448246551e-04 
       3.951507022538e+00       4.297633663082e-04 
       4.266739136701e+00       3.530300960309e-04 
       4.607118943941e+00       2.896922171377e-04 
       4.974652605557e+00       2.374628003836e-04 
       5.371506324689e+00       1.944363296349e-04 
       5.800019113685e+00       1.590236512211e-04 
       6.262716579983e+00       1.299044874070e-04 
       6.762325811764e+00       1.059841291750e-04 
       7.301791451110e+00       8.635334150154e-05 
       7.884293049406e+00       7.025930901652e-05 
       8.513263807261e+00       5.707927219306e-05 
       9.192410809424e+00       4.629666018870e-05 
       9.925736873929e+00       3.748532833646e-05 
       1.071756414427e+01       3.029363958368e-05 
       1.157255956364e+01       2.443161569573e-05 
       1.249576238137e+01       1.965930321926e-05 
       1.349261385375e+01       1.578013527903e-05 
       1.456898931416e+01       1.263193859214e-05 
       1.573123280165e+01       1.008127250557e-05 
       1.698619445202e+01       8.018882384839e-06 
       1.834127087176e+01       6.354693753106e-06 
       1.980444873285e+01       5.015083179000e-06 
       2.138435184532e+01       3.939539592865e-06 
       2.309029198506e+01       3.078670289020e-06 
       2.493232377636e+01       2.391891101868e-06 
       2.692130395282e+01       1.846151885856e-06 
       2.906895534573e+01       1.414349254731e-06 
       3.138793597714e+01       1.074494893569e-06 
       3.389191366484e+01       8.084909694439e-07 
       3.659564657905e+01       6.017290681539e-07 
       3.951507022538e+01       4.422512639600e-07 
       4.266739136701e+01       3.203679036611e-07 
       4.607118943941e+01       2.281950603847e-07 
       4.974652605557e+01       1.593662208962e-07 
       5.371506324689e+01       1.087198571285e-07 
       5.800019113685e+01       7.211103438862e-08 
       6.262716579983e+01       4.621149019573e-08 
       6.762325811764e+01       2.836496085926e-08 
