# Matter power spectrum P(k) at redshift z=0
# for k=1.04775e-05 to 134.926 h/Mpc,
# number of wavenumbers equal to 255
#    1:k (h/Mpc)              2:P (Mpc/h)^3        
       1.047750691338e-05       5.020963305802e+01 
       1.131335172818e-05       5.407041345556e+01 
       1.221587619877e-05       5.822819338165e+01 
       1.319039970550e-05       6.270560868603e+01 
       1.424266598317e-05       6.752730314248e+01 
       1.537887697396e-05       7.271974765592e+01 
       1.660572938097e-05       7.831146272948e+01 
       1.793045413791e-05       8.433312183134e+01 
       1.936085902737e-05       9.081778663698e+01 
       2.090537469909e-05       9.780106097983e+01 
       2.257310435923e-05       1.053212853215e+02 
       2.437387742372e-05       1.134197183325e+02 
       2.631830745176e-05       1.221408191471e+02 
       2.841785470091e-05       1.315324487167e+02 
       3.068489367268e-05       1.416461595299e+02 
       3.313278604643e-05       1.525374347555e+02 
       3.577595943165e-05       1.642660485077e+02 
       3.862999240274e-05       1.768963372664e+02 
       4.171170631739e-05       1.904975950805e+02 
       4.503926445983e-05       2.051444201334e+02 
       4.863227909323e-05       2.209171367949e+02 
       5.251192705226e-05       2.379022222245e+02 
       5.670107455699e-05       2.561927806596e+02 
       6.122441198393e-05       2.758890475613e+02 
       6.610859938837e-05       2.970989224055e+02 
       7.138242363583e-05       3.199385572075e+02 
       7.707696806873e-05       3.445329739126e+02 
       8.322579570814e-05       3.710167330298e+02 
       8.986514707061e-05       3.995346457021e+02 
       9.703415376577e-05       4.302425401063e+02 
       1.047750691338e-04       4.633080773495e+02 
       1.131335172818e-04       4.989116267629e+02 
       1.221587619877e-04       5.372471940724e+02 
       1.319039970550e-04       5.785234117542e+02 
       1.424266598317e-04       6.229645928296e+02 
       1.537887697396e-04       6.708118482613e+02 
       1.660572938097e-04       7.223242643993e+02 
       1.793045413791e-04       7.777801537551e+02 
       1.936085902737e-04       8.374783569198e+02 
       2.090537469909e-04       9.017396197668e+02 
       2.257310435923e-04       9.709080166261e+02 
       2.437387742372e-04       1.045352432576e+03 
       2.631830745176e-04       1.125468098245e+03 
       2.841785470091e-04       1.211678140675e+03 
       3.068489367268e-04       1.304435191451e+03 
       3.313278604643e-04       1.404222971942e+03 
       3.577595943165e-04       1.511557894486e+03 
       3.862999240274e-04       1.626990661017e+03 
       4.171170631739e-04       1.751107769584e+03 
       4.503926445983e-04       1.884533001599e+03 
       4.863227909323e-04       2.027928825937e+03 
       5.251192705226e-04       2.181997644265e+03 
       5.670107455699e-04       2.347482936684e+03 
       6.122441198393e-04       2.525170179325e+03 
       6.610859938837e-04       2.715887533960e+03 
       7.138242363583e-04       2.920506151534e+03 
       7.707696806873e-04       3.139939967308e+03 
       8.322579570814e-04       3.375145016055e+03 
       8.986514707061e-04       3.627117257072e+03 
       9.703415376577e-04       3.896890260351e+03 
       1.047750691338e-03       4.185530402963e+03 
       1.131335172818e-03       4.494131238947e+03 
       1.221587619877e-03       4.823806126448e+03 
       1.319039970550e-03       5.175679085074e+03 
       1.424266598317e-03       5.550928620221e+03 
       1.537887697396e-03       5.950658180903e+03 
       1.660572938097e-03       6.375937505161e+03 
       1.793045413791e-03       6.827810440833e+03 
       1.936085902737e-03       7.307251862012e+03 
       2.090537469909e-03       7.815145092477e+03 
       2.257310435923e-03       8.352247439818e+03 
       2.437387742372e-03       8.919167042179e+03 
       2.631830745176e-03       9.516320688814e+03 
       2.841785470091e-03       1.014389326840e+04 
       3.068489367268e-03       1.080179746439e+04 
       3.313278604643e-03       1.148961888910e+04 
       3.577595943165e-03       1.220655689534e+04 
       3.862999240274e-03       1.295136016099e+04 
       4.171170631739e-03       1.372224480733e+04 
       4.503926445983e-03       1.451682643739e+04 
       4.863227909323e-03       1.533200677102e+04 
       5.251192705226e-03       1.616400210642e+04 
       5.670107455699e-03       1.700813388809e+04 
       6.122441198393e-03       1.785859470728e+04 
       6.610859938837e-03       1.870859696258e+04 
       7.138242363583e-03       1.955008868525e+04 
       7.707696806873e-03       2.037361796401e+04 
       8.322579570814e-03       2.116823765993e+04 
       8.986514707061e-03       2.192118952701e+04 
       9.703415376577e-03       2.261804707626e+04 
       1.047750691338e-02       2.324226475087e+04 
       1.131335172818e-02       2.377527553741e+04 
       1.221587619877e-02       2.419627572944e+04 
       1.319039970550e-02       2.448252915955e+04 
       1.424266598317e-02       2.460927362105e+04 
       1.537887697392e-02       2.455033691703e+04 
       1.660572938023e-02       2.427878641494e+04 
       1.793045412706e-02       2.376814503867e+04 
       1.936085890181e-02       2.299412867593e+04 
       2.090537352463e-02       2.193684644568e+04 
       2.257309535333e-02       2.058427479909e+04 
       2.437382002918e-02       1.893578794264e+04 
       2.631799944462e-02       1.700698633460e+04 
       2.841644545389e-02       1.483465642008e+04 
       3.067933355377e-02       1.248220512234e+04 
       3.311368470740e-02       1.004294866427e+04 
       3.571840443502e-02       7.641282150225e+03 
       3.847720348444e-02       5.422832051956e+03 
       4.135335538431e-02       3.528110958634e+03 
       4.429361667738e-02       2.054141339600e+03 
       4.724366439141e-02       1.025508159547e+03 
       5.016480835311e-02       3.976749447603e+02 
       5.303989620246e-02       8.693203830289e+01 
       5.586870669566e-02       6.830873993126e-02 
       5.866042680613e-02       5.240111407401e+01 
       6.142798932958e-02       1.746436250229e+02 
       6.418496440164e-02       3.140376468796e+02 
       6.694418833788e-02       4.337585183975e+02 
       6.971731106057e-02       5.111972799168e+02 
       7.251476155766e-02       5.362525105812e+02 
       7.534587671527e-02       5.096937705778e+02 
       7.821907666265e-02       4.406665617828e+02 
       8.114203772912e-02       3.437882646512e+02 
       8.412184535029e-02       2.367959741033e+02 
       8.716512279304e-02       1.372206850405e+02 
       9.027813695930e-02       5.951044385420e+01 
       9.346688431697e-02       1.295520331328e+01 
       9.673716028276e-02       1.718937201912e-01 
       1.000946150830e-01       1.692844460995e+01 
       1.035447986537e-01       5.324301996630e+01 
       1.070931966762e-01       9.577267242687e+01 
       1.107452594425e-01       1.309240779785e+02 
       1.145064249153e-01       1.481963781345e+02 
       1.183821370918e-01       1.427775949728e+02 
       1.223778605862e-01       1.167658916370e+02 
       1.264990921987e-01       7.837878531483e+01 
       1.307513701367e-01       3.934338573885e+01 
       1.351402814784e-01       1.092357907691e+01 
       1.396714684203e-01       5.651216038351e-02 
       1.443506338194e-01       6.873315578962e+00 
       1.491835465229e-01       2.477121812634e+01 
       1.541760469708e-01       4.328517303746e+01 
       1.593340535561e-01       5.269459786997e+01 
       1.646635702297e-01       4.843678121297e+01 
       1.701706958456e-01       3.302168425144e+01 
       1.758616357459e-01       1.464363916708e+01 
       1.817427160982e-01       2.282977910982e+00 
       1.878204015065e-01       6.729591537196e-01 
       1.941013164283e-01       7.724578190451e+00 
       2.005922709503e-01       1.633445348392e+01 
       2.073002914972e-01       1.935530992805e+01 
       2.142326570816e-01       1.478909561167e+01 
       2.213969417533e-01       6.475394007525e+00 
       2.288010639706e-01       6.868354194368e-01 
       2.364533437147e-01       7.596382266238e-01 
       2.443625682930e-01       4.535293997828e+00 
       2.525380679504e-01       7.079170857374e+00 
       2.609898026346e-01       5.637153860021e+00 
       2.697284615565e-01       2.047089830132e+00 
       2.787655775689e-01       3.418118894039e-02 
       2.881136588829e-01       8.456590535883e-01 
       2.977863412677e-01       2.317112192947e+00 
       3.077985646929e-01       2.116319433524e+00 
       3.181667794071e-01       6.915594907168e-01 
       3.289091877812e-01       4.150426353122e-04 
       3.400460299658e-01       4.861747504632e-01 
       3.515999236474e-01       8.300468608999e-01 
       3.635962711085e-01       3.991323882488e-01 
       3.760637506334e-01       6.897363036960e-03 
       3.890349143879e-01       1.441435947261e-01 
       4.025469216825e-01       2.540216871011e-01 
       4.166424456376e-01       7.572325735529e-02 
       4.313708035863e-01       6.533387158828e-03 
       4.467893782977e-01       7.587786470250e-02 
       4.629654199664e-01       3.884899327666e-02 
       4.799783501994e-01       4.945075837428e-04 
       4.979227319373e-01       2.056541778134e-02 
       5.169121270864e-01       6.937141843758e-03 
       5.370841404489e-01       1.911552109842e-03 
       5.586070464571e-01       4.870050466864e-03 
       5.816885094930e-01       5.158298349524e-06 
       6.065870144995e-01       1.245795832453e-03 
       6.336266468475e-01       2.011273387935e-06 
       6.632156059511e-01       2.219777672750e-04 
       6.958678639263e-01       9.908129136181e-06 
       7.322247985589e-01       3.605739554471e-05 
       7.730680195114e-01       3.894996414790e-06 
       8.193049553677e-01       4.820227040505e-07 
       8.718988016039e-01       3.102667791412e-06 
       9.317218031082e-01       8.731679095727e-06 
       9.993660908989e-01       7.258575640569e-07 
       1.075037110174e+00       2.133093305610e-06 
       1.158653485707e+00       1.498363622237e-06 
       1.250099157308e+00       2.746080129799e-05 
       1.349432401273e+00       4.754155621192e-09 
       1.456947457397e+00       2.439058263590e-06 
       1.573135111331e+00       1.795363588084e-05 
       1.698621895592e+00       5.306767307078e-06 
       1.834127512934e+00       2.662773369268e-06 
       1.980444934528e+00       1.983971089804e-06 
       2.138435191726e+00       1.303376439245e-05 
       2.309029199186e+00       2.596181592432e-07 
       2.493232377687e+00       2.524970113538e-08 
       2.692130395285e+00       4.129625437466e-07 
       2.906895534573e+00       1.366784073698e-06 
       3.138793597714e+00       2.734338985342e-06 
       3.389191366484e+00       6.223168474852e-07 
       3.659564657905e+00       9.762283187931e-06 
       3.951507022538e+00       6.339279937358e-07 
       4.266739136701e+00       3.931793547609e-06 
       4.607118943941e+00       1.178249772603e-06 
       4.974652605557e+00       9.495135563890e-06 
       5.371506324689e+00       3.694537956309e-09 
       5.800019113685e+00       1.755265166869e-06 
       6.262716579983e+00       4.514431073545e-07 
       6.762325811764e+00       2.272131013181e-07 
       7.301791451110e+00       3.381309693208e-06 
       7.884293049406e+00       2.750937306801e-08 
       8.513263807261e+00       2.761583957146e-08 
       9.192410809424e+00       2.147791799911e-06 
       9.925736873929e+00       2.650125533120e-06 
       1.071756414427e+01       7.930266241312e-06 
       1.157255956364e+01       6.113534308153e-07 
       1.249576238137e+01       3.564948079787e-05 
       1.349261385375e+01       3.289116785952e-06 
       1.456898931416e+01       3.438836589727e-06 
       1.573123280165e+01       1.513344251214e-06 
       1.698619445202e+01       1.303968499891e-07 
       1.834127087176e+01       1.008176647310e-05 
       1.980444873285e+01       6.763986329217e-07 
       2.138435184532e+01       1.137736904991e-06 
       2.309029198506e+01       5.224944077550e-07 
       2.493232377636e+01       9.284032271703e-07 
       2.692130395282e+01       1.129915183065e-05 
       2.906895534573e+01       4.925812109989e-09 
       3.138793597714e+01       5.417109442794e-06 
       3.389191366484e+01       9.722595999220e-07 
       3.659564657905e+01       6.802919616133e-08 
       3.951507022538e+01       4.530183056056e-06 
       4.266739136701e+01       1.489031106502e-06 
       4.607118943941e+01       9.736123702943e-06 
       4.974652605557e+01       4.405992676903e-07 
       5.371506324689e+01       1.475186200726e-06 
       5.800019113685e+01       4.103420802004e-06 
       6.262716579983e+01       2.406832996932e-06 
       6.762325811764e+01       1.070319307021e-06 
       7.301791451110e+01       1.899750227185e-07 
       7.884293049406e+01       3.837659250127e-07 
       8.513263807261e+01       2.561036571621e-08 
       9.192410809424e+01       1.357202478055e-07 
       9.925736873929e+01       2.096690814471e-06 
       1.071756414427e+02       7.947741496899e-08 
       1.157255956364e+02       2.873578539195e-09 
       1.249576238137e+02       7.691101282305e-09 
       1.349261385375e+02       1.184311955264e-08 
