# Matter power spectrum P(k) at redshift z=99
# for k=1.04775e-05 to 134.926 h/Mpc,
# number of wavenumbers equal to 255
#    1:k (h/Mpc)              2:P (Mpc/h)^3        
       1.047750691338e-05       7.261927149650e-03 
       1.131335172818e-05       7.820332209296e-03 
       1.221587619877e-05       8.421675445375e-03 
       1.319039970550e-05       9.069257805881e-03 
       1.424266598317e-05       9.766636524247e-03 
       1.537887697396e-05       1.051763981516e-02 
       1.660572938097e-05       1.132639259239e-02 
       1.793045413791e-05       1.219733210544e-02 
       1.936085902737e-05       1.313524197059e-02 
       2.090537469909e-05       1.414527095548e-02 
       2.257310435923e-05       1.523296555904e-02 
       2.437387742372e-05       1.640429666921e-02 
       2.631830745176e-05       1.766569616496e-02 
       2.841785470091e-05       1.902408725280e-02 
       3.068489367268e-05       2.048692982761e-02 
       3.313278604643e-05       2.206225484059e-02 
       3.577595943165e-05       2.375870901619e-02 
       3.862999240274e-05       2.558560688920e-02 
       4.171170631739e-05       2.755297693143e-02 
       4.503926445983e-05       2.967161955602e-02 
       4.863227909323e-05       3.195316479556e-02 
       5.251192705226e-05       3.441013491836e-02 
       5.670107455699e-05       3.705601769398e-02 
       6.122441198393e-05       3.990533442711e-02 
       6.610859938837e-05       4.297372274708e-02 
       7.138242363583e-05       4.627802120529e-02 
       7.707696806873e-05       4.983636197105e-02 
       8.322579570814e-05       5.366826827043e-02 
       8.986514707061e-05       5.779476362886e-02 
       9.703415376577e-05       6.223848268268e-02 
       1.047750691338e-04       6.702379875395e-02 
       1.131335172818e-04       7.217695015658e-02 
       1.221587619877e-04       7.772619085276e-02 
       1.319039970550e-04       8.370193438358e-02 
       1.424266598317e-04       9.013692575678e-02 
       1.537887697396e-04       9.706641200422e-02 
       1.660572938097e-04       1.045283350878e-01 
       1.793045413791e-04       1.125635337489e-01 
       1.936085902737e-04       1.212159600383e-01 
       2.090537469909e-04       1.305329116958e-01 
       2.257310435923e-04       1.405652829723e-01 
       2.437387742372e-04       1.513678286003e-01 
       2.631830745176e-04       1.629994486902e-01 
       2.841785470091e-04       1.755234903212e-01 
       3.068489367268e-04       1.890080658954e-01 
       3.313278604643e-04       2.035263992009e-01 
       3.577595943165e-04       2.191571793611e-01 
       3.862999240274e-04       2.359849439922e-01 
       4.171170631739e-04       2.541004730765e-01 
       4.503926445983e-04       2.736012080057e-01 
       4.863227909323e-04       2.945916794706e-01 
       5.251192705226e-04       3.171839529106e-01 
       5.670107455699e-04       3.414980791527e-01 
       6.122441198393e-04       3.676625439872e-01 
       6.610859938837e-04       3.958147297528e-01 
       7.138242363583e-04       4.261013357718e-01 
       7.707696806873e-04       4.586787907340e-01 
       8.322579570814e-04       4.937136139921e-01 
       8.986514707061e-04       5.313826989464e-01 
       9.703415376577e-04       5.718735204041e-01 
       1.047750691338e-03       6.153841952741e-01 
       1.131335172818e-03       6.621233648084e-01 
       1.221587619877e-03       7.123098766039e-01 
       1.319039970550e-03       7.661721282242e-01 
       1.424266598317e-03       8.239547193573e-01 
       1.537887697396e-03       8.859012285314e-01 
       1.660572938097e-03       9.522589483523e-01 
       1.793045413791e-03       1.023280281357e+00 
       1.936085902737e-03       1.099216535643e+00 
       2.090537469909e-03       1.180313276971e+00 
       2.257310435923e-03       1.266804469649e+00 
       2.437387742372e-03       1.358905297126e+00 
       2.631830745176e-03       1.456803253405e+00 
       2.841785470091e-03       1.560647600125e+00 
       3.068489367268e-03       1.670536937920e+00 
       3.313278604643e-03       1.786504907963e+00 
       3.577595943165e-03       1.908504245692e+00 
       3.862999240274e-03       2.036389372703e+00 
       4.171170631739e-03       2.169898140481e+00 
       4.503926445983e-03       2.308634188993e+00 
       4.863227909323e-03       2.452050000570e+00 
       5.251192705226e-03       2.599433840483e+00 
       5.670107455699e-03       2.749899523972e+00 
       6.122441198393e-03       2.902387966867e+00 
       6.610859938837e-03       3.055668928956e+00 
       7.138242363583e-03       3.208355392313e+00 
       7.707696806873e-03       3.358920294538e+00 
       8.322579570814e-03       3.505719098103e+00 
       8.986514707061e-03       3.646999544582e+00 
       9.703415376577e-03       3.780908070500e+00 
       1.047750691338e-02       3.905468489930e+00 
       1.131335172818e-02       4.018554892650e+00 
       1.221587619877e-02       4.117854733591e+00 
       1.319039970550e-02       4.200851931523e+00 
       1.424266598317e-02       4.264854461825e+00 
       1.537887697392e-02       4.307099415430e+00 
       1.660572938023e-02       4.324901467604e+00 
       1.793045412706e-02       4.315846339329e+00 
       1.936085890181e-02       4.277946360294e+00 
       2.090537352463e-02       4.209833700031e+00 
       2.257309535333e-02       4.110935912072e+00 
       2.437382002918e-02       3.981797181115e+00 
       2.631799944462e-02       3.824369483723e+00 
       2.841644545389e-02       3.642265389559e+00 
       3.067933355377e-02       3.440917836365e+00 
       3.311368470740e-02       3.227650473716e+00 
       3.571840443502e-02       3.011565758169e+00 
       3.847720348444e-02       2.802912108074e+00 
       4.135335538431e-02       2.611566227464e+00 
       4.429361667738e-02       2.444774929767e+00 
       4.724366439141e-02       2.305324077014e+00 
       5.016480835311e-02       2.191612994092e+00 
       5.303989620246e-02       2.099258931333e+00 
       5.586870669566e-02       2.022713157661e+00 
       5.866042680613e-02       1.956736088058e+00 
       6.142798932958e-02       1.896660714986e+00 
       6.418496440164e-02       1.838628920275e+00 
       6.694418833788e-02       1.779578878107e+00 
       6.971731106057e-02       1.717295932787e+00 
       7.251476155766e-02       1.650399887538e+00 
       7.534587671527e-02       1.578349541152e+00 
       7.821907666265e-02       1.501422491618e+00 
       8.114203772912e-02       1.420633040003e+00 
       8.412184535029e-02       1.337618488851e+00 
       8.716512279304e-02       1.254437965380e+00 
       9.027813695930e-02       1.173375759903e+00 
       9.346688431697e-02       1.096678307506e+00 
       9.673716028276e-02       1.026312588144e+00 
       1.000946150830e-01       9.637603486878e-01 
       1.035447986537e-01       9.098478803700e-01 
       1.070931966762e-01       8.646503547223e-01 
       1.107452594425e-01       8.274572315041e-01 
       1.145064249153e-01       7.967928450468e-01 
       1.183821370918e-01       7.705337793368e-01 
       1.223778605862e-01       7.461017630167e-01 
       1.264990921987e-01       7.208106456461e-01 
       1.307513701367e-01       6.923072326219e-01 
       1.351402814784e-01       6.590699578756e-01 
       1.396714684203e-01       6.207988635761e-01 
       1.443506338194e-01       5.785615524362e-01 
       1.491835465229e-01       5.345668114427e-01 
       1.541760469708e-01       4.916360521296e-01 
       1.593340535561e-01       4.525023299023e-01 
       1.646635702297e-01       4.191041991562e-01 
       1.701706958456e-01       3.921218771911e-01 
       1.758616357459e-01       3.708178224054e-01 
       1.817427160982e-01       3.532048869086e-01 
       1.878204015065e-01       3.367739349971e-01 
       1.941013164283e-01       3.188307638142e-01 
       2.005922709503e-01       2.977352236477e-01 
       2.073002914972e-01       2.736794835702e-01 
       2.142326570816e-01       2.485032202026e-01 
       2.213969417533e-01       2.246041452038e-01 
       2.288010639706e-01       2.038249995321e-01 
       2.364533437147e-01       1.868580612231e-01 
       2.443625682930e-01       1.730184959186e-01 
       2.525380679504e-01       1.605229200465e-01 
       2.609898026346e-01       1.475704414995e-01 
       2.697284615565e-01       1.333969436006e-01 
       2.787655775689e-01       1.185519560167e-01 
       2.881136588829e-01       1.044560608956e-01 
       2.977863412677e-01       9.229650452232e-02 
       3.077985646929e-01       8.210477720774e-02 
       3.181667794071e-01       7.305282312914e-02 
       3.289091877812e-01       6.419123044042e-02 
       3.400460299658e-01       5.522671200156e-02 
       3.515999236474e-01       4.668232806434e-02 
       3.635962711085e-01       3.915231501889e-02 
       3.760637506334e-01       3.274989918663e-02 
       3.890349143879e-01       2.705408486725e-02 
       4.025469216825e-01       2.175893243067e-02 
       4.166424456376e-01       1.693611064647e-02 
       4.313708035863e-01       1.281519658033e-02 
       4.467893782977e-01       9.408851870424e-03 
       4.629654199664e-01       6.575542593926e-03 
       4.799783501994e-01       4.239056717967e-03 
       4.979227319373e-01       2.442896766081e-03 
       5.169121270864e-01       1.185543554046e-03 
       5.370841404489e-01       3.938531266574e-04 
       5.586070464571e-01       3.223550904231e-05 
       5.816885094930e-01       5.982611536297e-05 
       6.065870144995e-01       4.141035166768e-04 
       6.336266468475e-01       1.027498349388e-03 
       6.632156059511e-01       1.808830727013e-03 
       6.958678639263e-01       2.658152203662e-03 
       7.322247985589e-01       3.447500424174e-03 
       7.730680195114e-01       4.039965545423e-03 
       8.193049553677e-01       4.292701466583e-03 
       8.718988016039e-01       4.098283424771e-03 
       9.317218031082e-01       3.436945921077e-03 
       9.993660908989e-01       2.432871618707e-03 
       1.075037110174e+00       1.350103579856e-03 
       1.158653485707e+00       4.966325985050e-04 
       1.250099157308e+00       6.132172007876e-05 
       1.349432401273e+00       2.136358407114e-05 
       1.456947457397e+00       1.795145596471e-04 
       1.573135111331e+00       3.059907220904e-04 
       1.698621895592e+00       2.843024899773e-04 
       1.834127512934e+00       1.554778789822e-04 
       1.980444934528e+00       3.714709163232e-05 
       2.138435191726e+00       1.299816612057e-10 
       2.309029199186e+00       1.697075316746e-05 
       2.493232377687e+00       2.798857146973e-05 
       2.692130395285e+00       1.516055252203e-05 
       2.906895534573e+00       1.641158538139e-06 
       3.138793597714e+00       8.561838431231e-07 
       3.389191366484e+00       2.693289037464e-06 
       3.659564657905e+00       1.070075117629e-06 
       3.951507022538e+00       7.916390062446e-10 
       4.266739136701e+00       2.944538155230e-07 
       4.607118943941e+00       1.376811635303e-07 
       4.974652605557e+00       3.831283339163e-09 
       5.371506324689e+00       1.544121374010e-08 
       5.800019113685e+00       4.589461775840e-10 
       6.262716579983e+00       2.104602880736e-10 
       6.762325811764e+00       1.338488972874e-08 
       7.301791451110e+00       3.780785636728e-09 
       7.884293049406e+00       1.732326365616e-08 
       8.513263807261e+00       2.776088256012e-10 
       9.192410809424e+00       5.129548921315e-10 
       9.925736873929e+00       1.010387456881e-10 
       1.071756414427e+01       2.144977199440e-10 
       1.157255956364e+01       5.340695117301e-12 
       1.249576238137e+01       1.094359937624e-12 
       1.349261385375e+01       7.860863132148e-11 
       1.456898931416e+01       1.864844697569e-10 
       1.573123280165e+01       1.471257250625e-11 
       1.698619445202e+01       4.870557921893e-11 
       1.834127087176e+01       1.314262599001e-14 
       1.980444873285e+01       5.679322178212e-13 
       2.138435184532e+01       1.810078340192e-10 
       2.309029198506e+01       1.220442281442e-11 
       2.493232377636e+01       5.111489508825e-10 
       2.692130395282e+01       2.978413896968e-11 
       2.906895534573e+01       8.565099477797e-14 
       3.138793597714e+01       2.746552147216e-14 
       3.389191366484e+01       1.077354958246e-13 
       3.659564657905e+01       7.392097793768e-13 
       3.951507022538e+01       1.203667178489e-12 
       4.266739136701e+01       1.613679474086e-11 
       4.607118943941e+01       6.361365683213e-12 
       4.974652605557e+01       1.608729203640e-12 
       5.371506324689e+01       4.315955261275e-15 
       5.800019113685e+01       4.733863177719e-12 
       6.262716579983e+01       6.702307703502e-12 
       6.762325811764e+01       1.136329006562e-12 
       7.301791451110e+01       6.632730581116e-13 
       7.884293049406e+01       3.450142341033e-13 
       8.513263807261e+01       2.107870559394e-14 
       9.192410809424e+01       7.045897927625e-13 
       9.925736873929e+01       2.782867729198e-14 
       1.071756414427e+02       2.110900842180e-12 
       1.157255956364e+02       2.127663989901e-13 
       1.249576238137e+02       2.219199109987e-12 
       1.349261385375e+02       2.984120090600e-12 
