# Matter power spectrum P(k) at redshift z=99
# for k=1.04775e-05 to 134.926 h/Mpc,
# number of wavenumbers equal to 255
#    1:k (h/Mpc)              2:P (Mpc/h)^3        
       1.047750691338e-05       7.261927095288e-03 
       1.131335172818e-05       7.820332150758e-03 
       1.221587619877e-05       8.421675382333e-03 
       1.319039970550e-05       9.069257738007e-03 
       1.424266598317e-05       9.766636451130e-03 
       1.537887697396e-05       1.051763973641e-02 
       1.660572938097e-05       1.132639250752e-02 
       1.793045413791e-05       1.219733201509e-02 
       1.936085902737e-05       1.313524187204e-02 
       2.090537469909e-05       1.414527084979e-02 
       2.257310435923e-05       1.523296544494e-02 
       2.437387742372e-05       1.640429654643e-02 
       2.631830745176e-05       1.766569603289e-02 
       2.841785470091e-05       1.902408711166e-02 
       3.068489367268e-05       2.048692967448e-02 
       3.313278604643e-05       2.206225467553e-02 
       3.577595943165e-05       2.375870883857e-02 
       3.862999240274e-05       2.558560669828e-02 
       4.171170631739e-05       2.755297672514e-02 
       4.503926445983e-05       2.967161933420e-02 
       4.863227909323e-05       3.195316455663e-02 
       5.251192705226e-05       3.441013466143e-02 
       5.670107455699e-05       3.705601741711e-02 
       6.122441198393e-05       3.990533412845e-02 
       6.610859938837e-05       4.297372242541e-02 
       7.138242363583e-05       4.627802054861e-02 
       7.707696806873e-05       4.983636159898e-02 
       8.322579570814e-05       5.366826786945e-02 
       8.986514707061e-05       5.779476319747e-02 
       9.703415376577e-05       6.223848221850e-02 
       1.047750691338e-04       6.702379825037e-02 
       1.131335172818e-04       7.217695031097e-02 
       1.221587619877e-04       7.772619030381e-02 
       1.319039970550e-04       8.370193380061e-02 
       1.424266598317e-04       9.013692506690e-02 
       1.537887697396e-04       9.706641130425e-02 
       1.660572938097e-04       1.045283343114e-01 
       1.793045413791e-04       1.125635329189e-01 
       1.936085902737e-04       1.212159592313e-01 
       2.090537469909e-04       1.305329107440e-01 
       2.257310435923e-04       1.405652819365e-01 
       2.437387742372e-04       1.513678275081e-01 
       2.631830745176e-04       1.629994475140e-01 
       2.841785470091e-04       1.755234890485e-01 
       3.068489367268e-04       1.890080645307e-01 
       3.313278604643e-04       2.035263977440e-01 
       3.577595943165e-04       2.191571778054e-01 
       3.862999240274e-04       2.359849423271e-01 
       4.171170631739e-04       2.541004713014e-01 
       4.503926445983e-04       2.736012061172e-01 
       4.863227909323e-04       2.945916774657e-01 
       5.251192705226e-04       3.171839507879e-01 
       5.670107455699e-04       3.414980769124e-01 
       6.122441198393e-04       3.676625416318e-01 
       6.610859938837e-04       3.958147272883e-01 
       7.138242363583e-04       4.261013332084e-01 
       7.707696806873e-04       4.586787880870e-01 
       8.322579570814e-04       4.937136112842e-01 
       8.986514707061e-04       5.313826962098e-01 
       9.703415376577e-04       5.718735176826e-01 
       1.047750691338e-03       6.153841926272e-01 
       1.131335172818e-03       6.621233623143e-01 
       1.221587619877e-03       7.123098743672e-01 
       1.319039970550e-03       7.661721263802e-01 
       1.424266598317e-03       8.239547181310e-01 
       1.537887697396e-03       8.859012282814e-01 
       1.660572938097e-03       9.522589495735e-01 
       1.793045413791e-03       1.023280284733e+00 
       1.936085902737e-03       1.099216542121e+00 
       2.090537469909e-03       1.180313285050e+00 
       2.257310435923e-03       1.266804486820e+00 
       2.437387742372e-03       1.358905328472e+00 
       2.631830745176e-03       1.456803285954e+00 
       2.841785470091e-03       1.560647663035e+00 
       3.068489367268e-03       1.670537010567e+00 
       3.313278604643e-03       1.786505039618e+00 
       3.577595943165e-03       1.908504410082e+00 
       3.862999240274e-03       2.036389468702e+00 
       4.171170631739e-03       2.169898252719e+00 
       4.503926445983e-03       2.308634491851e+00 
       4.863227909323e-03       2.452050674611e+00 
       5.251192705226e-03       2.599434680910e+00 
       5.670107455699e-03       2.749901126169e+00 
       6.122441198393e-03       2.902390057943e+00 
       6.610859938837e-03       3.055671269333e+00 
       7.138242363583e-03       3.208360122221e+00 
       7.707696806873e-03       3.358926650583e+00 
       8.322579570814e-03       3.505726888914e+00 
       8.986514707061e-03       3.647012436712e+00 
       9.703415376577e-03       3.780926178004e+00 
       1.047750691338e-02       3.905492879138e+00 
       1.131335172818e-02       4.018589824279e+00 
       1.221587619877e-02       4.117902886807e+00 
       1.319039970550e-02       4.200917698195e+00 
       1.424266598317e-02       4.264943736613e+00 
       1.537887697392e-02       4.307219667249e+00 
       1.660572938023e-02       4.325062455397e+00 
       1.793045412706e-02       4.316060389686e+00 
       1.936085890181e-02       4.278228929575e+00 
       2.090537352463e-02       4.210204470246e+00 
       2.257309535333e-02       4.111418744671e+00 
       2.437382002918e-02       3.982420931578e+00 
       2.631799944462e-02       3.825168678443e+00 
       2.841644545389e-02       3.643282236921e+00 
       3.067933355377e-02       3.442198693396e+00 
       3.311368470740e-02       3.229241583627e+00 
       3.571840443502e-02       3.013516318040e+00 
       3.847720348444e-02       2.805283926978e+00 
       4.135335538431e-02       2.614410651472e+00 
       4.429361667738e-02       2.448132171333e+00 
       4.724366439141e-02       2.309240639001e+00 
       5.016480835311e-02       2.196115190984e+00 
       5.303989620246e-02       2.104369862087e+00 
       5.586870669566e-02       2.028462604606e+00 
       5.866042680613e-02       1.963155332739e+00 
       6.142798932958e-02       1.903779741485e+00 
       6.418496440164e-02       1.846479253129e+00 
       6.694418833788e-02       1.788197531510e+00 
       6.971731106057e-02       1.726715743366e+00 
       7.251476155766e-02       1.660654461857e+00 
       7.534587671527e-02       1.589469932969e+00 
       7.821907666265e-02       1.513436662946e+00 
       8.114203772912e-02       1.433568860267e+00 
       8.412184535029e-02       1.351492366358e+00 
       8.716512279304e-02       1.269273850758e+00 
       9.027813695930e-02       1.189193295910e+00 
       9.346688431697e-02       1.113501243329e+00 
       9.673716028276e-02       1.044174591368e+00 
       1.000946150830e-01       9.827061278773e-01 
       1.035447986537e-01       9.299385008674e-01 
       1.070931966762e-01       8.859586417102e-01 
       1.107452594425e-01       8.500712186798e-01 
       1.145064249153e-01       8.208034571736e-01 
       1.183821370918e-01       7.960243647293e-01 
       1.223778605862e-01       7.731457691972e-01 
       1.264990921987e-01       7.494521735019e-01 
       1.307513701367e-01       7.225576598876e-01 
       1.351402814784e-01       6.909097104002e-01 
       1.396714684203e-01       6.541825243877e-01 
       1.443506338194e-01       6.134279936805e-01 
       1.491835465229e-01       5.708686741321e-01 
       1.541760469708e-01       5.293639760088e-01 
       1.593340535561e-01       4.917105189096e-01 
       1.646635702297e-01       4.599196158581e-01 
       1.701706958456e-01       4.347275508181e-01 
       1.758616357459e-01       4.154074359062e-01 
       1.817427160982e-01       3.999358333473e-01 
       1.878204015065e-01       3.856853936806e-01 
       1.941013164283e-01       3.698136869948e-01 
       2.005922709503e-01       3.505510829022e-01 
       2.073002914972e-01       3.280460176465e-01 
       2.142326570816e-01       3.042129464618e-01 
       2.213969417533e-01       2.816111065141e-01 
       2.288010639706e-01       2.622563119738e-01 
       2.364533437147e-01       2.469612866791e-01 
       2.443625682930e-01       2.350124008108e-01 
       2.525380679504e-01       2.244198122268e-01 
       2.609898026346e-01       2.130953901929e-01 
       2.697284615565e-01       2.001020322830e-01 
       2.787655775689e-01       1.860192474511e-01 
       2.881136588829e-01       1.725164785350e-01 
       2.977863412677e-01       1.610653494186e-01 
       3.077985646929e-01       1.517600730651e-01 
       3.181667794071e-01       1.435586914529e-01 
       3.289091877812e-01       1.351811024799e-01 
       3.400460299658e-01       1.261634883655e-01 
       3.515999236474e-01       1.172011764724e-01 
       3.635962711085e-01       1.091761286566e-01 
       3.760637506334e-01       1.023085026540e-01 
       3.890349143879e-01       9.593688333039e-02 
       4.025469216825e-01       8.950691861848e-02 
       4.166424456376e-01       8.311092654628e-02 
       4.313708035863e-01       7.721465874158e-02 
       4.467893782977e-01       7.189978708335e-02 
       4.629654199664e-01       6.686822812777e-02 
       4.799783501994e-01       6.191671410827e-02 
       4.979227319373e-01       5.722139820221e-02 
       5.169121270864e-01       5.290208512964e-02 
       5.370841404489e-01       4.876894931696e-02 
       5.586070464571e-01       4.478989021266e-02 
       5.816885094930e-01       4.105106387312e-02 
       6.065870144995e-01       3.748907925079e-02 
       6.336266468475e-01       3.407537301600e-02 
       6.632156059511e-01       3.083369274651e-02 
       6.958678639263e-01       2.772752226140e-02 
       7.322247985589e-01       2.476629618455e-02 
       7.730680195114e-01       2.193876278549e-02 
       8.193049553677e-01       1.925530086222e-02 
       8.718988016039e-01       1.672846676991e-02 
       9.317218031082e-01       1.438332842905e-02 
       9.993660908989e-01       1.224981175299e-02 
       1.075037110174e+00       1.035174098560e-02 
       1.158653485707e+00       8.698815843461e-03 
       1.250099157308e+00       7.283722413547e-03 
       1.349432401273e+00       6.084593018838e-03 
       1.456947457397e+00       5.074868372973e-03 
       1.573135111331e+00       4.227441056355e-03 
       1.698621895592e+00       3.517681327046e-03 
       1.834127512934e+00       2.924119793348e-03 
       1.980444934528e+00       2.428305146844e-03 
       2.138435191726e+00       2.014657344383e-03 
       2.309029199186e+00       1.669928445485e-03 
       2.493232377687e+00       1.382952187227e-03 
       2.692130395285e+00       1.144298132702e-03 
       2.906895534573e+00       9.460328394313e-04 
       3.138793597714e+00       7.814742990357e-04 
       3.389191366484e+00       6.450190110705e-04 
       3.659564657905e+00       5.319675631822e-04 
       3.951507022538e+00       4.383984434014e-04 
       4.266739136701e+00       3.610140405597e-04 
       4.607118943941e+00       2.970633149582e-04 
       4.974652605557e+00       2.442603499966e-04 
       5.371506324689e+00       2.006954981593e-04 
       5.800019113685e+00       1.647773595792e-04 
       6.262716579983e+00       1.351880055096e-04 
       6.762325811764e+00       1.108288779466e-04 
       7.301791451110e+00       9.078872644560e-05 
       7.884293049406e+00       7.431323818213e-05 
       8.513263807261e+00       6.077708471365e-05 
       9.192410809424e+00       4.966366916323e-05 
       9.925736873929e+00       4.054490088517e-05 
       1.071756414427e+01       3.306831468059e-05 
       1.157255956364e+01       2.694138944300e-05 
       1.249576238137e+01       2.192389916551e-05 
       1.349261385375e+01       1.781780238976e-05 
       1.456898931416e+01       1.445989024672e-05 
       1.573123280165e+01       1.171563691835e-05 
       1.698619445202e+01       9.474485896964e-06 
       1.834127087176e+01       7.645684194016e-06 
       1.980444873285e+01       6.154638371819e-06 
       2.138435184532e+01       4.940273758713e-06 
       2.309029198506e+01       3.952188042169e-06 
       2.493232377636e+01       3.149253709919e-06 
       2.692130395282e+01       2.497741375610e-06 
       2.906895534573e+01       1.970038314090e-06 
       3.138793597714e+01       1.543643979651e-06 
       3.389191366484e+01       1.199966190394e-06 
       3.659564657905e+01       9.239771487948e-07 
       3.951507022538e+01       7.033390528898e-07 
       4.266739136701e+01       5.279646611118e-07 
       4.607118943941e+01       3.896262991320e-07 
       4.974652605557e+01       2.815805212867e-07 
       5.371506324689e+01       1.982857143526e-07 
       5.800019113685e+01       1.351712607974e-07 
       6.262716579983e+01       8.842131374904e-08 
       6.762325811764e+01       5.483364961433e-08 
       7.301791451110e+01       3.167616162877e-08 
       7.884293049406e+01       1.658924329334e-08 
       8.513263807261e+01       7.518597143462e-09 
       9.192410809424e+01       2.686981125972e-09 
       9.925736873929e+01       5.895901565549e-10 
       1.071756414427e+02       1.625661620622e-11 
       1.157255956364e+02       8.339635342898e-11 
       1.249576238137e+02       2.480818424245e-10 
       1.349261385375e+02       2.817532842586e-10 
