# Matter power spectrum P(k) at redshift z=0
# for k=1.04775e-05 to 134.926 h/Mpc,
# number of wavenumbers equal to 255
#    1:k (h/Mpc)              2:P (Mpc/h)^3        
       1.047750691338e-05       5.020963654862e+01 
       1.131335172818e-05       5.407048935683e+01 
       1.221587619877e-05       5.822819360423e+01 
       1.319039970550e-05       6.270562035440e+01 
       1.424266598317e-05       6.752731476114e+01 
       1.537887697396e-05       7.271976786216e+01 
       1.660572938097e-05       7.831147032737e+01 
       1.793045413791e-05       8.433312566319e+01 
       1.936085902737e-05       9.081778916975e+01 
       2.090537469909e-05       9.780107710636e+01 
       2.257310435923e-05       1.053212938517e+02 
       2.437387742372e-05       1.134197268470e+02 
       2.631830745176e-05       1.221408286544e+02 
       2.841785470091e-05       1.315324590503e+02 
       3.068489367268e-05       1.416461671085e+02 
       3.313278604643e-05       1.525374478146e+02 
       3.577595943165e-05       1.642660512331e+02 
       3.862999240274e-05       1.768963417914e+02 
       4.171170631739e-05       1.904975998335e+02 
       4.503926445983e-05       2.051444254438e+02 
       4.863227909323e-05       2.209171412058e+02 
       5.251192705226e-05       2.379022263372e+02 
       5.670107455699e-05       2.561927841707e+02 
       6.122441198393e-05       2.758890472698e+02 
       6.610859938837e-05       2.970989216141e+02 
       7.138242363583e-05       3.199385567224e+02 
       7.707696806873e-05       3.445329726977e+02 
       8.322579570814e-05       3.710167324500e+02 
       8.986514707061e-05       3.995346444352e+02 
       9.703415376577e-05       4.302425392530e+02 
       1.047750691338e-04       4.633080773296e+02 
       1.131335172818e-04       4.989116273287e+02 
       1.221587619877e-04       5.372471941992e+02 
       1.319039970550e-04       5.785234120058e+02 
       1.424266598317e-04       6.229645935181e+02 
       1.537887697396e-04       6.708118489888e+02 
       1.660572938097e-04       7.223242656417e+02 
       1.793045413791e-04       7.777801571893e+02 
       1.936085902737e-04       8.374783629202e+02 
       2.090537469909e-04       9.017396292003e+02 
       2.257310435923e-04       9.709080298566e+02 
       2.437387742372e-04       1.045352452014e+03 
       2.631830745176e-04       1.125468127212e+03 
       2.841785470091e-04       1.211678184951e+03 
       3.068489367268e-04       1.304435255328e+03 
       3.313278604643e-04       1.404223060466e+03 
       3.577595943165e-04       1.511558028796e+03 
       3.862999240274e-04       1.626990852380e+03 
       4.171170631739e-04       1.751108044873e+03 
       4.503926445983e-04       1.884533402300e+03 
       4.863227909323e-04       2.027929406057e+03 
       5.251192705226e-04       2.181998481600e+03 
       5.670107455699e-04       2.347484144612e+03 
       6.122441198393e-04       2.525171922194e+03 
       6.610859938837e-04       2.715890050892e+03 
       7.138242363583e-04       2.920509771028e+03 
       7.707696806873e-04       3.139945200731e+03 
       8.322579570814e-04       3.375152467030e+03 
       8.986514707061e-04       3.627128002692e+03 
       9.703415376577e-04       3.896905652559e+03 
       1.047750691338e-03       4.185552427795e+03 
       1.131335172818e-03       4.494162741698e+03 
       1.221587619877e-03       4.823851103335e+03 
       1.319039970550e-03       5.175743213313e+03 
       1.424266598317e-03       5.551020199873e+03 
       1.537887697396e-03       5.950789037278e+03 
       1.660572938097e-03       6.376123894762e+03 
       1.793045413791e-03       6.828074830941e+03 
       1.936085902737e-03       7.307626402031e+03 
       2.090537469909e-03       7.815672927204e+03 
       2.257310435923e-03       8.352991293245e+03 
       2.437387742372e-03       8.920211700149e+03 
       2.631830745176e-03       9.517783101878e+03 
       2.841785470091e-03       1.014593493491e+04 
       3.068489367268e-03       1.080464164683e+04 
       3.313278604643e-03       1.149356742879e+04 
       3.577595943165e-03       1.221202344639e+04 
       3.862999240274e-03       1.295890411233e+04 
       4.171170631739e-03       1.373262568592e+04 
       4.503926445983e-03       1.453106458876e+04 
       4.863227909323e-03       1.535146650994e+04 
       5.251192705226e-03       1.619050726102e+04 
       5.670107455699e-03       1.704412989816e+04 
       6.122441198393e-03       1.790729269671e+04 
       6.610859938837e-03       1.877421934350e+04 
       7.138242363583e-03       1.963818427364e+04 
       7.707696806873e-03       2.049139518546e+04 
       8.322579570814e-03       2.132505888892e+04 
       8.986514707061e-03       2.212911165155e+04 
       9.703415376577e-03       2.289247629291e+04 
       1.047750691338e-02       2.360278230799e+04 
       1.131335172818e-02       2.424655606680e+04 
       1.221587619877e-02       2.480928039539e+04 
       1.319039970550e-02       2.527553134595e+04 
       1.424266598317e-02       2.562921388547e+04 
       1.537887697392e-02       2.585416947416e+04 
       1.660572938023e-02       2.593447616269e+04 
       1.793045412706e-02       2.585550300767e+04 
       1.936085890181e-02       2.560483788910e+04 
       2.090537352463e-02       2.517365544693e+04 
       2.257309535333e-02       2.455819973667e+04 
       2.437382002918e-02       2.376132352119e+04 
       2.631799944462e-02       2.279446066366e+04 
       2.841644545389e-02       2.167838159895e+04 
       3.067933355377e-02       2.044503702501e+04 
       3.311368470740e-02       1.913787981708e+04 
       3.571840443502e-02       1.781071205518e+04 
       3.847720348444e-02       1.652487011844e+04 
       4.135335538431e-02       1.533961401366e+04 
       4.429361667738e-02       1.429890909951e+04 
       4.724366439141e-02       1.341988346689e+04 
       5.016480835311e-02       1.269350078379e+04 
       5.303989620246e-02       1.209346788174e+04 
       5.586870669566e-02       1.158753112355e+04 
       5.866042680613e-02       1.114407432365e+04 
       6.142798932958e-02       1.073523566823e+04 
       6.418496440164e-02       1.033809768468e+04 
       6.694418833788e-02       9.934513158872e+03 
       6.971731106057e-02       9.511294062863e+03 
       7.251476155766e-02       9.060449653463e+03 
       7.534587671527e-02       8.578905680460e+03 
       7.821907666265e-02       8.068535325247e+03 
       8.114203772912e-02       7.535570854025e+03 
       8.412184535029e-02       6.989869332994e+03 
       8.716512279304e-02       6.443863247642e+03 
       9.027813695930e-02       5.910968475763e+03 
       9.346688431697e-02       5.404376600900e+03 
       9.673716028276e-02       4.935288278839e+03 
       1.000946150830e-01       4.511973274920e+03 
       1.035447986537e-01       4.138673587116e+03 
       1.070931966762e-01       3.815467655735e+03 
       1.107452594425e-01       3.538045328728e+03 
       1.145064249153e-01       3.298269816357e+03 
       1.183821370918e-01       3.084927400743e+03 
       1.223778605862e-01       2.884970198927e+03 
       1.264990921987e-01       2.685157261241e+03 
       1.307513701367e-01       2.474517307002e+03 
       1.351402814784e-01       2.246513060330e+03 
       1.396714684203e-01       2.000931711228e+03 
       1.443506338194e-01       1.744103430502e+03 
       1.491835465229e-01       1.487568268605e+03 
       1.541760469708e-01       1.244860672257e+03 
       1.593340535561e-01       1.027930293373e+03 
       1.646635702297e-01       8.439993577546e+02 
       1.701706958456e-01       6.943732993466e+02 
       1.758616357459e-01       5.746951978386e+02 
       1.817427160982e-01       4.770929181695e+02 
       1.878204015065e-01       3.931211814641e+02 
       1.941013164283e-01       3.150996721611e+02 
       2.005922709503e-01       2.394405047987e+02 
       2.073002914972e-01       1.679837083196e+02 
       2.142326570816e-01       1.060633336918e+02 
       2.213969417533e-01       5.855179808657e+01 
       2.288010639706e-01       2.697773794811e+01 
       2.364533437147e-01       9.289756781438e+00 
       2.443625682930e-01       1.511914939373e+00 
       2.525380679504e-01       1.342229602578e-01 
       2.609898026346e-01       3.583883580670e+00 
       2.697284615565e-01       1.191935465033e+01 
       2.787655775689e-01       2.539513404762e+01 
       2.881136588829e-01       4.266168638729e+01 
       2.977863412677e-01       6.043011413927e+01 
       3.077985646929e-01       7.566866378003e+01 
       3.181667794071e-01       8.750875999234e+01 
       3.289091877812e-01       9.704597856581e+01 
       3.400460299658e-01       1.053126586728e+02 
       3.515999236474e-01       1.112808666343e+02 
       3.635962711085e-01       1.127630286488e+02 
       3.760637506334e-01       1.086482388740e+02 
       3.890349143879e-01       1.001898899893e+02 
       4.025469216825e-01       8.938982601459e+01 
       4.166424456376e-01       7.708915775199e+01 
       4.313708035863e-01       6.323390425915e+01 
       4.467893782977e-01       4.843154546751e+01 
       4.629654199664e-01       3.421405424986e+01 
       4.799783501994e-01       2.191490202126e+01 
       4.979227319373e-01       1.207078199249e+01 
       5.169121270864e-01       4.986106535112e+00 
       5.370841404489e-01       1.045639389294e+00 
       5.586070464571e-01       1.195374279861e-02 
       5.816885094930e-01       1.265334163582e+00 
       6.065870144995e-01       3.899182745969e+00 
       6.336266468475e-01       6.740294116079e+00 
       6.632156059511e-01       8.741834549711e+00 
       6.958678639263e-01       8.989051370441e+00 
       7.322247985589e-01       7.358323976756e+00 
       7.730680195114e-01       4.507852407803e+00 
       8.193049553677e-01       1.666898439014e+00 
       8.718988016039e-01       1.312418188860e-01 
       9.317218031082e-01       1.966018457746e-01 
       9.993660908989e-01       8.089720456633e-01 
       1.075037110174e+00       8.102363315211e-01 
       1.158653485707e+00       2.734628266880e-01 
       1.250099157308e+00       1.437116994414e-03 
       1.349432401273e+00       7.534956038316e-02 
       1.456947457397e+00       8.304838203500e-02 
       1.573135111331e+00       1.370125833338e-02 
       1.698621895592e+00       4.010545934547e-03 
       1.834127512934e+00       1.093575766816e-02 
       1.980444934528e+00       1.270446954890e-03 
       2.138435191726e+00       1.069259494533e-03 
       2.309029199186e+00       6.781709624011e-04 
       2.493232377687e+00       3.348519569966e-05 
       2.692130395285e+00       1.431211942753e-04 
       2.906895534573e+00       2.443427552991e-05 
       3.138793597714e+00       1.035043443637e-05 
       3.389191366484e+00       1.486400418533e-05 
       3.659564657905e+00       4.402883318816e-05 
       3.951507022538e+00       8.899697833260e-06 
       4.266739136701e+00       1.331947844336e-06 
       4.607118943941e+00       2.015647358203e-06 
       4.974652605557e+00       4.690498471779e-07 
       5.371506324689e+00       2.423534870003e-05 
       5.800019113685e+00       4.082106892294e-06 
       6.262716579983e+00       1.078228541310e-05 
       6.762325811764e+00       9.009982240148e-07 
       7.301791451110e+00       4.035123130987e-06 
       7.884293049406e+00       7.038938533554e-08 
       8.513263807261e+00       1.841799878739e-06 
       9.192410809424e+00       8.621344086297e-07 
       9.925736873929e+00       7.755491071628e-06 
       1.071756414427e+01       8.689043129883e-07 
       1.157255956364e+01       6.455465311205e-07 
       1.249576238137e+01       1.697276531447e-06 
       1.349261385375e+01       2.904768531502e-07 
       1.456898931416e+01       8.272881002101e-08 
       1.573123280165e+01       7.974520340979e-09 
       1.698619445202e+01       1.659570799144e-08 
       1.834127087176e+01       3.808572475274e-10 
       1.980444873285e+01       1.271097060471e-08 
       2.138435184532e+01       1.284854158604e-06 
       2.309029198506e+01       7.068956664684e-08 
       2.493232377636e+01       9.024391244104e-08 
       2.692130395282e+01       6.718346833739e-09 
       2.906895534573e+01       2.313043951447e-10 
       3.138793597714e+01       1.427502611552e-07 
       3.389191366484e+01       2.053665048843e-07 
       3.659564657905e+01       3.133572476054e-08 
       3.951507022538e+01       6.768177325665e-08 
       4.266739136701e+01       5.406475827059e-08 
       4.607118943941e+01       7.017343490288e-12 
       4.974652605557e+01       7.138994519049e-11 
       5.371506324689e+01       1.559065869112e-10 
       5.800019113685e+01       5.186213056717e-10 
       6.262716579983e+01       3.017581096321e-09 
       6.762325811764e+01       3.087051610597e-09 
       7.301791451110e+01       1.603629769402e-10 
       7.884293049406e+01       2.568065625939e-10 
       8.513263807261e+01       3.074602347920e-09 
       9.192410809424e+01       5.856065453830e-09 
       9.925736873929e+01       1.147919796728e-09 
       1.071756414427e+02       4.170870184919e-10 
       1.157255956364e+02       2.235620265248e-10 
       1.249576238137e+02       1.017662844978e-12 
       1.349261385375e+02       5.705277962778e-11 
