# Matter power spectrum P(k) at redshift z=0
# for k=1.04775e-05 to 67.6233 h/Mpc,
# number of wavenumbers equal to 246
#    1:k (h/Mpc)              2:P (Mpc/h)^3        
       1.047750691338e-05       5.020964806751e+01 
       1.131335172818e-05       5.407048206554e+01 
       1.221587619877e-05       5.822819063591e+01 
       1.319039970550e-05       6.270562589677e+01 
       1.424266598317e-05       6.752731788102e+01 
       1.537887697396e-05       7.271977200258e+01 
       1.660572938097e-05       7.831147241542e+01 
       1.793045413791e-05       8.433311815128e+01 
       1.936085902737e-05       9.081778242446e+01 
       2.090537469909e-05       9.780108061338e+01 
       2.257310435923e-05       1.053213197032e+02 
       2.437387742372e-05       1.134197377001e+02 
       2.631830745176e-05       1.221408202816e+02 
       2.841785470091e-05       1.315324720916e+02 
       3.068489367268e-05       1.416462093730e+02 
       3.313278604643e-05       1.525374500691e+02 
       3.577595943165e-05       1.642660687078e+02 
       3.862999240274e-05       1.768963504868e+02 
       4.171170631739e-05       1.904975992460e+02 
       4.503926445983e-05       2.051444490305e+02 
       4.863227909323e-05       2.209171463752e+02 
       5.251192705226e-05       2.379022222314e+02 
       5.670107455699e-05       2.561927925639e+02 
       6.122441198393e-05       2.758890441791e+02 
       6.610859938837e-05       2.970989225466e+02 
       7.138242363583e-05       3.199385558200e+02 
       7.707696806873e-05       3.445329780878e+02 
       8.322579570814e-05       3.710167315928e+02 
       8.986514707061e-05       3.995346440954e+02 
       9.703415376577e-05       4.302425403884e+02 
       1.047750691338e-04       4.633080762974e+02 
       1.131335172818e-04       4.989116267507e+02 
       1.221587619877e-04       5.372471946561e+02 
       1.319039970550e-04       5.785234124631e+02 
       1.424266598317e-04       6.229645930980e+02 
       1.537887697396e-04       6.708118484951e+02 
       1.660572938097e-04       7.223242660220e+02 
       1.793045413791e-04       7.777801556911e+02 
       1.936085902737e-04       8.374783607333e+02 
       2.090537469909e-04       9.017396264495e+02 
       2.257310435923e-04       9.709080260152e+02 
       2.437387742372e-04       1.045352448644e+03 
       2.631830745176e-04       1.125468122836e+03 
       2.841785470091e-04       1.211678179511e+03 
       3.068489367268e-04       1.304435249091e+03 
       3.313278604643e-04       1.404223052541e+03 
       3.577595943165e-04       1.511558013390e+03 
       3.862999240274e-04       1.626990836481e+03 
       4.171170631739e-04       1.751108027371e+03 
       4.503926445983e-04       1.884533381345e+03 
       4.863227909323e-04       2.027929376470e+03 
       5.251192705226e-04       2.181998446367e+03 
       5.670107455699e-04       2.347484100857e+03 
       6.122441198393e-04       2.525171869338e+03 
       6.610859938837e-04       2.715889981403e+03 
       7.138242363583e-04       2.920509686092e+03 
       7.707696806873e-04       3.139945097711e+03 
       8.322579570814e-04       3.375152334396e+03 
       8.986514707061e-04       3.627127828231e+03 
       9.703415376577e-04       3.896905450016e+03 
       1.047750691338e-03       4.185552170956e+03 
       1.131335172818e-03       4.494162426791e+03 
       1.221587619877e-03       4.823850702674e+03 
       1.319039970550e-03       5.175742739238e+03 
       1.424266598317e-03       5.551019592517e+03 
       1.537887697396e-03       5.950788335886e+03 
       1.660572938097e-03       6.376123046805e+03 
       1.793045413791e-03       6.828073896126e+03 
       1.936085902737e-03       7.307625375386e+03 
       2.090537469909e-03       7.815671859785e+03 
       2.257310435923e-03       8.352990369389e+03 
       2.437387742372e-03       8.920211057548e+03 
       2.631830745176e-03       9.517783061890e+03 
       2.841785470091e-03       1.014593703671e+04 
       3.068489367268e-03       1.080464505747e+04 
       3.313278604643e-03       1.149357459477e+04 
       3.577595943165e-03       1.221203620826e+04 
       3.862999240274e-03       1.295892538505e+04 
       4.171170631739e-03       1.373266002126e+04 
       4.503926445983e-03       1.453111834595e+04 
       4.863227909323e-03       1.535154984227e+04 
       5.251192705226e-03       1.619063613436e+04 
       5.670107455699e-03       1.704431256608e+04 
       6.122441198393e-03       1.790755938458e+04 
       6.610859938837e-03       1.877460422258e+04 
       7.138242363583e-03       1.963872429095e+04 
       7.707696806873e-03       2.049215713445e+04 
       8.322579570814e-03       2.132607230497e+04 
       8.986514707061e-03       2.213054785892e+04 
       9.703415376577e-03       2.289445470775e+04 
       1.047750691338e-02       2.360548017253e+04 
       1.131335172818e-02       2.425022963053e+04 
       1.221587619877e-02       2.481423922585e+04 
       1.319039970550e-02       2.528218733416e+04 
       1.424266598317e-02       2.563812746812e+04 
       1.537887697392e-02       2.586605893146e+04 
       1.660572938023e-02       2.595024686693e+04 
       1.793045412706e-02       2.587633936361e+04 
       1.936085890181e-02       2.563219525643e+04 
       2.090537352463e-02       2.520933766919e+04 
       2.257309535333e-02       2.460443714257e+04 
       2.437382002918e-02       2.382083366783e+04 
       2.631799944462e-02       2.287047497877e+04 
       2.841644545389e-02       2.177447927466e+04 
       3.067933355377e-02       2.056555975114e+04 
       3.311368470740e-02       1.928728562025e+04 
       3.571840443502e-02       1.799406594923e+04 
       3.847720348444e-02       1.674684413322e+04 
       4.135335538431e-02       1.560457471093e+04 
       4.429361667738e-02       1.461037029400e+04 
       4.724366439141e-02       1.378057660192e+04 
       5.016480835311e-02       1.310506269514e+04 
       5.303989620246e-02       1.255714720446e+04 
       5.586870669566e-02       1.210426724289e+04 
       5.866042680613e-02       1.171464230310e+04 
       6.142798932958e-02       1.136049443701e+04 
       6.418496440164e-02       1.101855504543e+04 
       6.694418833788e-02       1.067068530569e+04 
       6.971731106057e-02       1.030356327981e+04 
       7.251476155766e-02       9.909015233341e+03 
       7.534587671527e-02       9.483779506676e+03 
       7.821907666265e-02       9.029505931186e+03 
       8.114203772912e-02       8.552330695350e+03 
       8.412184535029e-02       8.061944782095e+03 
       8.716512279304e-02       7.570784661047e+03 
       9.027813695930e-02       7.092513027980e+03 
       9.346688431697e-02       6.640504922688e+03 
       9.673716028276e-02       6.226698756074e+03 
       1.000946150830e-01       5.859940057521e+03 
       1.035447986537e-01       5.545229074771e+03 
       1.070931966762e-01       5.283124036944e+03 
       1.107452594425e-01       5.069420349151e+03 
       1.145064249153e-01       4.895247753877e+03 
       1.183821370918e-01       4.747843469632e+03 
       1.223778605862e-01       4.611748606960e+03 
       1.264990921987e-01       4.470644393988e+03 
       1.307513701367e-01       4.310280610552e+03 
       1.351402814784e-01       4.121396834021e+03 
       1.396714684203e-01       3.902071211482e+03 
       1.443506338194e-01       3.658631492514e+03 
       1.491835465229e-01       3.404479019150e+03 
       1.541760469708e-01       3.156664694402e+03 
       1.593340535561e-01       2.931980577320e+03 
       1.646635702297e-01       2.742371246121e+03 
       1.701706958456e-01       2.592266218208e+03 
       1.758616357459e-01       2.477240807058e+03 
       1.817427160982e-01       2.385182356768e+03 
       1.878204015065e-01       2.300359702156e+03 
       1.941013164283e-01       2.205755976582e+03 
       2.005922709503e-01       2.090815675693e+03 
       2.073002914972e-01       1.956468276316e+03 
       2.142326570816e-01       1.814194831790e+03 
       2.213969417533e-01       1.679291543388e+03 
       2.288010639706e-01       1.563849506394e+03 
       2.364533437147e-01       1.472688819980e+03 
       2.443625682930e-01       1.401511629935e+03 
       2.525380679504e-01       1.338410357356e+03 
       2.609898026346e-01       1.270904083467e+03 
       2.697284615565e-01       1.193382444154e+03 
       2.787655775689e-01       1.109339292610e+03 
       2.881136588829e-01       1.028771555790e+03 
       2.977863412677e-01       9.604829802394e+02 
       3.077985646929e-01       9.050261241301e+02 
       3.181667794071e-01       8.561462177684e+02 
       3.289091877812e-01       8.061882945780e+02 
       3.400460299658e-01       7.523911441862e+02 
       3.515999236474e-01       6.989248741340e+02 
       3.635962711085e-01       6.510642170710e+02 
       3.760637506334e-01       6.101249754157e+02 
       3.890349143879e-01       5.721349951699e+02 
       4.025469216825e-01       5.337828906619e+02 
       4.166424456376e-01       4.956306727140e+02 
       4.313708035863e-01       4.604694223224e+02 
       4.467893782977e-01       4.287776041989e+02 
       4.629654199664e-01       3.987731708831e+02 
       4.799783501994e-01       3.692425229231e+02 
       4.979227319373e-01       3.412406809529e+02 
       5.169121270864e-01       3.154831958333e+02 
       5.370841404489e-01       2.908361086806e+02 
       5.586070464571e-01       2.671067548243e+02 
       5.816885094930e-01       2.448096321740e+02 
       6.065870144995e-01       2.235686312230e+02 
       6.336266468475e-01       2.032113549486e+02 
       6.632156059511e-01       1.838792008586e+02 
       6.958678639263e-01       1.653554004391e+02 
       7.322247985589e-01       1.476957387955e+02 
       7.730680195114e-01       1.308342493506e+02 
       8.193049553677e-01       1.148314774980e+02 
       8.718988016039e-01       9.976279096549e+01 
       9.317218031082e-01       8.577849466186e+01 
       9.993660908989e-01       7.305510152772e+01 
       1.075037110174e+00       6.173613650592e+01 
       1.158653485707e+00       5.187950491892e+01 
       1.250099157308e+00       4.344036515737e+01 
       1.349432401273e+00       3.628943219706e+01 
       1.456947457397e+00       3.026797710825e+01 
       1.573135111331e+00       2.521465627289e+01 
       1.698621895592e+00       2.098211830183e+01 
       1.834127512934e+00       1.744241716988e+01 
       1.980444934528e+00       1.448575658597e+01 
       2.138435191726e+00       1.201892980650e+01 
       2.309029199186e+00       9.963120309294e+00 
       2.493232377687e+00       8.251858267008e+00 
       2.692130395285e+00       6.828631469643e+00 
       2.906895534573e+00       5.646282978543e+00 
       3.138793597714e+00       4.664897179391e+00 
       3.389191366484e+00       3.851105180924e+00 
       3.659564657905e+00       3.176945964296e+00 
       3.951507022538e+00       2.618896895044e+00 
       4.266739136701e+00       2.157368885125e+00 
       4.607118943941e+00       1.775944011926e+00 
       4.974652605557e+00       1.460998096746e+00 
       5.371506324689e+00       1.201127299229e+00 
       5.800019113685e+00       9.868824606292e-01 
       6.262716579983e+00       8.103509877634e-01 
       6.762325811764e+00       6.650094166635e-01 
       7.301791451110e+00       5.454282618272e-01 
       7.884293049406e+00       4.471000877198e-01 
       8.513263807261e+00       3.663020781703e-01 
       9.192410809424e+00       2.999435854674e-01 
       9.925736873929e+00       2.454823249455e-01 
       1.071756414427e+01       2.008075718068e-01 
       1.157255956364e+01       1.641851184671e-01 
       1.249576238137e+01       1.341776228886e-01 
       1.349261385375e+01       1.096026031191e-01 
       1.456898931416e+01       8.948961453445e-02 
       1.573123280165e+01       7.303358987686e-02 
       1.698619445202e+01       5.957851803680e-02 
       1.834127087176e+01       4.858099033107e-02 
       1.980444873285e+01       3.959726884526e-02 
       2.138435184532e+01       3.226109484125e-02 
       2.309029198506e+01       2.627325230736e-02 
       2.493232377636e+01       2.138841428270e-02 
       2.692130395282e+01       1.740473350633e-02 
       2.906895534573e+01       1.415733209333e-02 
       3.138793597714e+01       1.151116275951e-02 
       3.389191366484e+01       9.355960654052e-03 
       3.659564657905e+01       7.601108035041e-03 
       3.951507022538e+01       6.172975406163e-03 
       4.266739136701e+01       5.011016664834e-03 
       4.607118943941e+01       4.066082264025e-03 
       4.974652605557e+01       3.297859479737e-03 
       5.371506324689e+01       2.673585131746e-03 
       5.800019113685e+01       2.166449277499e-03 
       6.262716579983e+01       1.754637928325e-03 
       6.762325811764e+01       1.420328929203e-03 
