# Matter power spectrum P(k) at redshift z=0
# for k=1.04775e-05 to 67.6233 h/Mpc,
# number of wavenumbers equal to 246
#    1:k (h/Mpc)              2:P (Mpc/h)^3        
       1.047750691338e-05       5.020964806753e+01 
       1.131335172818e-05       5.407048206554e+01 
       1.221587619877e-05       5.822819064095e+01 
       1.319039970550e-05       6.270562589723e+01 
       1.424266598317e-05       6.752731788102e+01 
       1.537887697396e-05       7.271977200258e+01 
       1.660572938097e-05       7.831147241542e+01 
       1.793045413791e-05       8.433311815128e+01 
       1.936085902737e-05       9.081778242446e+01 
       2.090537469909e-05       9.780108061361e+01 
       2.257310435923e-05       1.053213197032e+02 
       2.437387742372e-05       1.134197377001e+02 
       2.631830745176e-05       1.221408202816e+02 
       2.841785470091e-05       1.315324720917e+02 
       3.068489367268e-05       1.416462093720e+02 
       3.313278604643e-05       1.525374500691e+02 
       3.577595943165e-05       1.642660687077e+02 
       3.862999240274e-05       1.768963504868e+02 
       4.171170631739e-05       1.904975992458e+02 
       4.503926445983e-05       2.051444490305e+02 
       4.863227909323e-05       2.209171463752e+02 
       5.251192705226e-05       2.379022222312e+02 
       5.670107455699e-05       2.561927925469e+02 
       6.122441198393e-05       2.758890441789e+02 
       6.610859938837e-05       2.970989225467e+02 
       7.138242363583e-05       3.199385558200e+02 
       7.707696806873e-05       3.445329780878e+02 
       8.322579570814e-05       3.710167315928e+02 
       8.986514707061e-05       3.995346440953e+02 
       9.703415376577e-05       4.302425403881e+02 
       1.047750691338e-04       4.633080762974e+02 
       1.131335172818e-04       4.989116267506e+02 
       1.221587619877e-04       5.372471946561e+02 
       1.319039970550e-04       5.785234124639e+02 
       1.424266598317e-04       6.229645930980e+02 
       1.537887697396e-04       6.708118484951e+02 
       1.660572938097e-04       7.223242660219e+02 
       1.793045413791e-04       7.777801552228e+02 
       1.936085902737e-04       8.374783607333e+02 
       2.090537469909e-04       9.017396264495e+02 
       2.257310435923e-04       9.709080260152e+02 
       2.437387742372e-04       1.045352448644e+03 
       2.631830745176e-04       1.125468122836e+03 
       2.841785470091e-04       1.211678179510e+03 
       3.068489367268e-04       1.304435249091e+03 
       3.313278604643e-04       1.404223052541e+03 
       3.577595943165e-04       1.511558013390e+03 
       3.862999240274e-04       1.626990836524e+03 
       4.171170631739e-04       1.751108027371e+03 
       4.503926445983e-04       1.884533381345e+03 
       4.863227909323e-04       2.027929376471e+03 
       5.251192705226e-04       2.181998446367e+03 
       5.670107455699e-04       2.347484100857e+03 
       6.122441198393e-04       2.525171869336e+03 
       6.610859938837e-04       2.715889981401e+03 
       7.138242363583e-04       2.920509686082e+03 
       7.707696806873e-04       3.139945097710e+03 
       8.322579570814e-04       3.375152334395e+03 
       8.986514707061e-04       3.627127828230e+03 
       9.703415376577e-04       3.896905450014e+03 
       1.047750691338e-03       4.185552170955e+03 
       1.131335172818e-03       4.494162426787e+03 
       1.221587619877e-03       4.823850702663e+03 
       1.319039970550e-03       5.175742738916e+03 
       1.424266598317e-03       5.551019592503e+03 
       1.537887697396e-03       5.950788335855e+03 
       1.660572938097e-03       6.376123046754e+03 
       1.793045413791e-03       6.828073896086e+03 
       1.936085902737e-03       7.307625375324e+03 
       2.090537469909e-03       7.815671856082e+03 
       2.257310435923e-03       8.352990369259e+03 
       2.437387742372e-03       8.920211057336e+03 
       2.631830745176e-03       9.517783061590e+03 
       2.841785470091e-03       1.014593703628e+04 
       3.068489367268e-03       1.080464505673e+04 
       3.313278604643e-03       1.149357459452e+04 
       3.577595943165e-03       1.221203620695e+04 
       3.862999240274e-03       1.295892538317e+04 
       4.171170631739e-03       1.373266001832e+04 
       4.503926445983e-03       1.453111834214e+04 
       4.863227909323e-03       1.535154983660e+04 
       5.251192705226e-03       1.619063612508e+04 
       5.670107455699e-03       1.704431255529e+04 
       6.122441198393e-03       1.790755937068e+04 
       6.610859938837e-03       1.877460421636e+04 
       7.138242363583e-03       1.963872426546e+04 
       7.707696806873e-03       2.049215709096e+04 
       8.322579570814e-03       2.132606956561e+04 
       8.986514707061e-03       2.213055088861e+04 
       9.703415376577e-03       2.289445461815e+04 
       1.047750691338e-02       2.360548359241e+04 
       1.131335172818e-02       2.425022835322e+04 
       1.221587619877e-02       2.481423897793e+04 
       1.319039970550e-02       2.528218778903e+04 
       1.424266598317e-02       2.563813214900e+04 
       1.537887697392e-02       2.586607023541e+04 
       1.660572938023e-02       2.595027190221e+04 
       1.793045412706e-02       2.587633912363e+04 
       1.936085890181e-02       2.563223344121e+04 
       2.090537352463e-02       2.520933981525e+04 
       2.257309535333e-02       2.460445962382e+04 
       2.437382002918e-02       2.382088300233e+04 
       2.631799944462e-02       2.287046273839e+04 
       2.841644545389e-02       2.177450920220e+04 
       3.067933355377e-02       2.056553463983e+04 
       3.311368470740e-02       1.928729936908e+04 
       3.571840443502e-02       1.799399977096e+04 
       3.847720348444e-02       1.674682730358e+04 
       4.135335538431e-02       1.560461835001e+04 
       4.429361667738e-02       1.461032620198e+04 
       4.724366439141e-02       1.378050774148e+04 
       5.016480835311e-02       1.310501085950e+04 
       5.303989620246e-02       1.255712724143e+04 
       5.586870669566e-02       1.210424599214e+04 
       5.866042680613e-02       1.171463969860e+04 
       6.142798932958e-02       1.136044048373e+04 
       6.418496440164e-02       1.101851297321e+04 
       6.694418833788e-02       1.067065535638e+04 
       6.971731106057e-02       1.030351445030e+04 
       7.251476155766e-02       9.908972103318e+03 
       7.534587671527e-02       9.483746067297e+03 
       7.821907666265e-02       9.029448704949e+03 
       8.114203772912e-02       8.552280080169e+03 
       8.412184535029e-02       8.061857144307e+03 
       8.716512279304e-02       7.570690365987e+03 
       9.027813695930e-02       7.092446805619e+03 
       9.346688431697e-02       6.640468598933e+03 
       9.673716028276e-02       6.226648630792e+03 
       1.000946150830e-01       5.859887149617e+03 
       1.035447986537e-01       5.545176621328e+03 
       1.070931966762e-01       5.283065647209e+03 
       1.107452594425e-01       5.069326515400e+03 
       1.145064249153e-01       4.895168275029e+03 
       1.183821370918e-01       4.747777296418e+03 
       1.223778605862e-01       4.611638006876e+03 
       1.264990921987e-01       4.470521945073e+03 
       1.307513701367e-01       4.310141125868e+03 
       1.351402814784e-01       4.121281690690e+03 
       1.396714684203e-01       3.901931137429e+03 
       1.443506338194e-01       3.658511484010e+03 
       1.491835465229e-01       3.404366225443e+03 
       1.541760469708e-01       3.156539361051e+03 
       1.593340535561e-01       2.931854266802e+03 
       1.646635702297e-01       2.742244557446e+03 
       1.701706958456e-01       2.592116692776e+03 
       1.758616357459e-01       2.477092033075e+03 
       1.817427160982e-01       2.385029836738e+03 
       1.878204015065e-01       2.300204085958e+03 
       1.941013164283e-01       2.205595713627e+03 
       2.005922709503e-01       2.090640499639e+03 
       2.073002914972e-01       1.956288096857e+03 
       2.142326570816e-01       1.814016244681e+03 
       2.213969417533e-01       1.679102045331e+03 
       2.288010639706e-01       1.563659709289e+03 
       2.364533437147e-01       1.472487333831e+03 
       2.443625682930e-01       1.401309785413e+03 
       2.525380679504e-01       1.338201594735e+03 
       2.609898026346e-01       1.270683105040e+03 
       2.697284615565e-01       1.193157221502e+03 
       2.787655775689e-01       1.109109097797e+03 
       2.881136588829e-01       1.028533992026e+03 
       2.977863412677e-01       9.602415210091e+02 
       3.077985646929e-01       9.047765675295e+02 
       3.181667794071e-01       8.558889563985e+02 
       3.289091877812e-01       8.059262039186e+02 
       3.400460299658e-01       7.521216809804e+02 
       3.515999236474e-01       6.986507918590e+02 
       3.635962711085e-01       6.507826006931e+02 
       3.760637506334e-01       6.098352363456e+02 
       3.890349143879e-01       5.718354901187e+02 
       4.025469216825e-01       5.334787071837e+02 
       4.166424456376e-01       4.953223393297e+02 
       4.313708035863e-01       4.601514520383e+02 
       4.467893782977e-01       4.284538507097e+02 
       4.629654199664e-01       3.984409115958e+02 
       4.799783501994e-01       3.689040075300e+02 
       4.979227319373e-01       3.408949474629e+02 
       5.169121270864e-01       3.151303732877e+02 
       5.370841404489e-01       2.904744128053e+02 
       5.586070464571e-01       2.667377451971e+02 
       5.816885094930e-01       2.444322673636e+02 
       6.065870144995e-01       2.231821198948e+02 
       6.336266468475e-01       2.028157889277e+02 
       6.632156059511e-01       1.834754353606e+02 
       6.958678639263e-01       1.649416226355e+02 
       7.322247985589e-01       1.472722035127e+02 
       7.730680195114e-01       1.303996163413e+02 
       8.193049553677e-01       1.143861603575e+02 
       8.718988016039e-01       9.930586036826e+01 
       9.317218031082e-01       8.530918336208e+01 
       9.993660908989e-01       7.257315033820e+01 
       1.075037110174e+00       6.124145625131e+01 
       1.158653485707e+00       5.137204612255e+01 
       1.250099157308e+00       4.292064748538e+01 
       1.349432401273e+00       3.575795480353e+01 
       1.456947457397e+00       2.972545772175e+01 
       1.573135111331e+00       2.466146130602e+01 
       1.698621895592e+00       2.041923748533e+01 
       1.834127512934e+00       1.687098872274e+01 
       1.980444934528e+00       1.390674791874e+01 
       2.138435191726e+00       1.143368714274e+01 
       2.309029199186e+00       9.372955721284e+00 
       2.493232377687e+00       7.658205764873e+00 
       2.692130395285e+00       6.233219651797e+00 
       2.906895534573e+00       5.051019791426e+00 
       3.138793597714e+00       4.071890953817e+00 
       3.389191366484e+00       3.262664536134e+00 
       3.659564657905e+00       2.595510333394e+00 
       3.951507022538e+00       2.047166144534e+00 
       4.266739136701e+00       1.598207636289e+00 
       4.607118943941e+00       1.232423116048e+00 
       4.974652605557e+00       9.362727139151e-01 
       5.371506324689e+00       6.984475689140e-01 
       5.800019113685e+00       5.094525551141e-01 
       6.262716579983e+00       3.613201630585e-01 
       6.762325811764e+00       2.472742230537e-01 
       7.301791451110e+00       1.615597439084e-01 
       7.884293049406e+00       9.916156148357e-02 
       8.513263807261e+00       5.571165893914e-02 
       9.192410809424e+00       2.733802536074e-02 
       9.925736873929e+00       1.058779433661e-02 
       1.071756414427e+01       2.383666922454e-03 
       1.157255956364e+01       1.054692965113e-05 
       1.249576238137e+01       1.137115846731e-03 
       1.349261385375e+01       3.851353209308e-03 
       1.456898931416e+01       6.703754483000e-03 
       1.573123280165e+01       8.736640353468e-03 
       1.698619445202e+01       9.481251908452e-03 
       1.834127087176e+01       8.907965798196e-03 
       1.980444873285e+01       7.325163509077e-03 
       2.138435184532e+01       5.233639207717e-03 
       2.309029198506e+01       3.161476102796e-03 
       2.493232377636e+01       1.515649262472e-03 
       2.692130395282e+01       4.905673402428e-04 
       2.906895534573e+01       5.485376947221e-05 
       3.138793597714e+01       1.682064455637e-05 
       3.389191366484e+01       1.359406357456e-04 
       3.659564657905e+01       2.288957413207e-04 
       3.951507022538e+01       2.237923654670e-04 
       4.266739136701e+01       1.463260361122e-04 
       4.607118943941e+01       6.067755617442e-05 
       4.974652605557e+01       1.108136300262e-05 
       5.371506324689e+01       5.525708762323e-08 
       5.800019113685e+01       5.316248880186e-06 
       6.262716579983e+01       7.989112412877e-06 
       6.762325811764e+01       4.849047153442e-06 
