# Matter power spectrum P(k) at redshift z=0
# for k=1.04775e-05 to 134.926 h/Mpc,
# number of wavenumbers equal to 255
#    1:k (h/Mpc)              2:P (Mpc/h)^3        
       1.047750691338e-05       5.020963906805e+01 
       1.131335172818e-05       5.407048937147e+01 
       1.221587619877e-05       5.822820724030e+01 
       1.319039970550e-05       6.270562047243e+01 
       1.424266598317e-05       6.752731476098e+01 
       1.537887697396e-05       7.271975715396e+01 
       1.660572938097e-05       7.831147101243e+01 
       1.793045413791e-05       8.433312302128e+01 
       1.936085902737e-05       9.081780130647e+01 
       2.090537469909e-05       9.780107459422e+01 
       2.257310435923e-05       1.053212938596e+02 
       2.437387742372e-05       1.134197268469e+02 
       2.631830745176e-05       1.221408285621e+02 
       2.841785470091e-05       1.315324590474e+02 
       3.068489367268e-05       1.416461671360e+02 
       3.313278604643e-05       1.525374478883e+02 
       3.577595943165e-05       1.642660517274e+02 
       3.862999240274e-05       1.768963429384e+02 
       4.171170631739e-05       1.904975997807e+02 
       4.503926445983e-05       2.051444243233e+02 
       4.863227909323e-05       2.209171412048e+02 
       5.251192705226e-05       2.379022266147e+02 
       5.670107455699e-05       2.561927841247e+02 
       6.122441198393e-05       2.758890479929e+02 
       6.610859938837e-05       2.970989214000e+02 
       7.138242363583e-05       3.199385559927e+02 
       7.707696806873e-05       3.445329727001e+02 
       8.322579570814e-05       3.710167324000e+02 
       8.986514707061e-05       3.995346444114e+02 
       9.703415376577e-05       4.302425389340e+02 
       1.047750691338e-04       4.633080773444e+02 
       1.131335172818e-04       4.989116273824e+02 
       1.221587619877e-04       5.372471938752e+02 
       1.319039970550e-04       5.785234116689e+02 
       1.424266598317e-04       6.229645933422e+02 
       1.537887697396e-04       6.708118487337e+02 
       1.660572938097e-04       7.223242657804e+02 
       1.793045413791e-04       7.777801571045e+02 
       1.936085902737e-04       8.374783640609e+02 
       2.090537469909e-04       9.017396299492e+02 
       2.257310435923e-04       9.709080297515e+02 
       2.437387742372e-04       1.045352453354e+03 
       2.631830745176e-04       1.125468127187e+03 
       2.841785470091e-04       1.211678185903e+03 
       3.068489367268e-04       1.304435256026e+03 
       3.313278604643e-04       1.404223062879e+03 
       3.577595943165e-04       1.511558029523e+03 
       3.862999240274e-04       1.626990852487e+03 
       4.171170631739e-04       1.751108045516e+03 
       4.503926445983e-04       1.884533404646e+03 
       4.863227909323e-04       2.027929406820e+03 
       5.251192705226e-04       2.181998483742e+03 
       5.670107455699e-04       2.347484145851e+03 
       6.122441198393e-04       2.525171924926e+03 
       6.610859938837e-04       2.715890054640e+03 
       7.138242363583e-04       2.920509778895e+03 
       7.707696806873e-04       3.139945207517e+03 
       8.322579570814e-04       3.375152476347e+03 
       8.986514707061e-04       3.627128019619e+03 
       9.703415376577e-04       3.896905668446e+03 
       1.047750691338e-03       4.185552451283e+03 
       1.131335172818e-03       4.494162773901e+03 
       1.221587619877e-03       4.823851148495e+03 
       1.319039970550e-03       5.175743276074e+03 
       1.424266598317e-03       5.551020295288e+03 
       1.537887697396e-03       5.950789181025e+03 
       1.660572938097e-03       6.376124144341e+03 
       1.793045413791e-03       6.828075229198e+03 
       1.936085902737e-03       7.307627041500e+03 
       2.090537469909e-03       7.815673946713e+03 
       2.257310435923e-03       8.352992907045e+03 
       2.437387742372e-03       8.920214285751e+03 
       2.631830745176e-03       9.517787140073e+03 
       2.841785470091e-03       1.014594127219e+04 
       3.068489367268e-03       1.080465132000e+04 
       3.313278604643e-03       1.149358233452e+04 
       3.577595943165e-03       1.221204579270e+04 
       3.862999240274e-03       1.295893775537e+04 
       4.171170631739e-03       1.373267486910e+04 
       4.503926445983e-03       1.453113577700e+04 
       4.863227909323e-03       1.535156665054e+04 
       5.251192705226e-03       1.619062613654e+04 
       5.670107455699e-03       1.704432875615e+04 
       6.122441198393e-03       1.790758923735e+04 
       6.610859938837e-03       1.877464217418e+04 
       7.138242363583e-03       1.963872743964e+04 
       7.707696806873e-03       2.049211138759e+04 
       8.322579570814e-03       2.132607874697e+04 
       8.986514707061e-03       2.213060159843e+04 
       9.703415376577e-03       2.289442045661e+04 
       1.047750691338e-02       2.360555434442e+04 
       1.131335172818e-02       2.425019578469e+04 
       1.221587619877e-02       2.481361024584e+04 
       1.319039970550e-02       2.528216996043e+04 
       1.424266598317e-02       2.563821335612e+04 
       1.537887697392e-02       2.586590448814e+04 
       1.660572938023e-02       2.594995528493e+04 
       1.793045412706e-02       2.587602980940e+04 
       1.936085890181e-02       2.563218238504e+04 
       2.090537352463e-02       2.520917343663e+04 
       2.257309535333e-02       2.460420484703e+04 
       2.437382002918e-02       2.382063507226e+04 
       2.631799944462e-02       2.287020340514e+04 
       2.841644545389e-02       2.177405831445e+04 
       3.067933355377e-02       2.056507777531e+04 
       3.311368470740e-02       1.928670768167e+04 
       3.571840443502e-02       1.799333114673e+04 
       3.847720348444e-02       1.674600598604e+04 
       4.135335538431e-02       1.560363376033e+04 
       4.429361667738e-02       1.460921767298e+04 
       4.724366439141e-02       1.377926707149e+04 
       5.016480835311e-02       1.310357546184e+04 
       5.303989620246e-02       1.255545963650e+04 
       5.586870669566e-02       1.210234028838e+04 
       5.866042680613e-02       1.171256951970e+04 
       6.142798932958e-02       1.135813564241e+04 
       6.418496440164e-02       1.101593868494e+04 
       6.694418833788e-02       1.066777532987e+04 
       6.971731106057e-02       1.030035783758e+04 
       7.251476155766e-02       9.905509001502e+03 
       7.534587671527e-02       9.479919238502e+03 
       7.821907666265e-02       9.025317799444e+03 
       8.114203772912e-02       8.547812576780e+03 
       8.412184535029e-02       8.057065636236e+03 
       8.716512279304e-02       7.565539843723e+03 
       9.027813695930e-02       7.086891928924e+03 
       9.346688431697e-02       6.634515321802e+03 
       9.673716028276e-02       6.220298347069e+03 
       1.000946150830e-01       5.853135774373e+03 
       1.035447986537e-01       5.537999294823e+03 
       1.070931966762e-01       5.275439191087e+03 
       1.107452594425e-01       5.061177750279e+03 
       1.145064249153e-01       4.886449316780e+03 
       1.183821370918e-01       4.738466535164e+03 
       1.223778605862e-01       4.601696359527e+03 
       1.264990921987e-01       4.459882577064e+03 
       1.307513701367e-01       4.298840268600e+03 
       1.351402814784e-01       4.109197395415e+03 
       1.396714684203e-01       3.889173512238e+03 
       1.443506338194e-01       3.645045600847e+03 
       1.491835465229e-01       3.390197180751e+03 
       1.541760469708e-01       3.141675506228e+03 
       1.593340535561e-01       2.916226340503e+03 
       1.646635702297e-01       2.725845448389e+03 
       1.701706958456e-01       2.574850545380e+03 
       1.758616357459e-01       2.458857730287e+03 
       1.817427160982e-01       2.365717075210e+03 
       1.878204015065e-01       2.279740713018e+03 
       1.941013164283e-01       2.183974562077e+03 
       2.005922709503e-01       2.067903946307e+03 
       2.073002914972e-01       1.932496223957e+03 
       2.142326570816e-01       1.789212936181e+03 
       2.213969417533e-01       1.653284784192e+03 
       2.288010639706e-01       1.536742889064e+03 
       2.364533437147e-01       1.444326292317e+03 
       2.443625682930e-01       1.371740362576e+03 
       2.525380679504e-01       1.307134158215e+03 
       2.609898026346e-01       1.238139567741e+03 
       2.697284615565e-01       1.159240238974e+03 
       2.787655775689e-01       1.073917782525e+03 
       2.881136588829e-01       9.920765276315e+02 
       2.977863412677e-01       9.223830228699e+02 
       3.077985646929e-01       8.653392136358e+02 
       3.181667794071e-01       8.147746294939e+02 
       3.289091877812e-01       7.631757945208e+02 
       3.400460299658e-01       7.078727308685e+02 
       3.515999236474e-01       6.529553233643e+02 
       3.635962711085e-01       6.035631129392e+02 
       3.760637506334e-01       5.609388377180e+02 
       3.890349143879e-01       5.212291897470e+02 
       4.025469216825e-01       4.812501509567e+02 
       4.166424456376e-01       4.415635145225e+02 
       4.313708035863e-01       4.048264889650e+02 
       4.467893782977e-01       3.714866573110e+02 
       4.629654199664e-01       3.398509949705e+02 
       4.799783501994e-01       3.087989084967e+02 
       4.979227319373e-01       2.793165124601e+02 
       5.169121270864e-01       2.520566987041e+02 
       5.370841404489e-01       2.259921210314e+02 
       5.586070464571e-01       2.009607254322e+02 
       5.816885094930e-01       1.774306821391e+02 
       6.065870144995e-01       1.550896311131e+02 
       6.336266468475e-01       1.338152587033e+02 
       6.632156059511e-01       1.137653122607e+02 
       6.958678639263e-01       9.481261939053e+01 
       7.322247985589e-01       7.708112684005e+01 
       7.730680195114e-01       6.062693264656e+01 
       8.193049553677e-01       4.564954678779e+01 
       8.718988016039e-01       3.239724288054e+01 
       9.317218031082e-01       2.118784152603e+01 
       9.993660908989e-01       1.232095986214e+01 
       1.075037110174e+00       5.962806526068e+00 
       1.158653485707e+00       2.045408442487e+00 
       1.250099157308e+00       2.552684706334e-01 
       1.349432401273e+00       9.453160009506e-02 
       1.456947457397e+00       9.731876032328e-01 
       1.573135111331e+00       2.290811063476e+00 
       1.698621895592e+00       3.516932098076e+00 
       1.834127512934e+00       4.257318414809e+00 
       1.980444934528e+00       4.315552170113e+00 
       2.138435191726e+00       3.716277224810e+00 
       2.309029199186e+00       2.678681311437e+00 
       2.493232377687e+00       1.537351318308e+00 
       2.692130395285e+00       6.172010610726e-01 
       2.906895534573e+00       1.080857909302e-01 
       3.138793597714e+00       5.398303186151e-03 
       3.389191366484e+00       1.373365880786e-01 
       3.659564657905e+00       2.811802321177e-01 
       3.951507022538e+00       2.963603539565e-01 
       4.266739136701e+00       1.891731836424e-01 
       4.607118943941e+00       6.286298861624e-02 
       4.974652605557e+00       2.913502235966e-03 
       5.371506324689e+00       9.099313938895e-03 
       5.800019113685e+00       2.554971312793e-02 
       6.262716579983e+00       1.995498479532e-02 
       6.762325811764e+00       4.836109790759e-03 
       7.301791451110e+00       4.724798476513e-05 
       7.884293049406e+00       2.187253638813e-03 
       8.513263807261e+00       1.802300862199e-03 
       9.192410809424e+00       1.795047180462e-04 
       9.925736873929e+00       9.716455169997e-05 
       1.071756414427e+01       1.763666757051e-04 
       1.157255956364e+01       1.009472823032e-05 
       1.249576238137e+01       2.198509168467e-05 
       1.349261385375e+01       1.672346402425e-05 
       1.456898931416e+01       1.646545434825e-07 
       1.573123280165e+01       3.067079504013e-06 
       1.698619445202e+01       1.559818558397e-06 
       1.834127087176e+01       5.726402753939e-07 
       1.980444873285e+01       1.090620431286e-06 
       2.138435184532e+01       3.237232888678e-11 
       2.309029198506e+01       2.243746466711e-09 
       2.493232377636e+01       4.233249740084e-07 
       2.692130395282e+01       2.366622621033e-07 
       2.906895534573e+01       5.529411741561e-07 
       3.138793597714e+01       5.372270534747e-10 
       3.389191366484e+01       4.005619576419e-09 
       3.659564657905e+01       7.935791754323e-08 
       3.951507022538e+01       1.259542493403e-06 
       4.266739136701e+01       1.397944364291e-06 
       4.607118943941e+01       1.594606727959e-07 
       4.974652605557e+01       3.258155645943e-10 
       5.371506324689e+01       1.225020974553e-07 
       5.800019113685e+01       7.990497148470e-07 
       6.262716579983e+01       1.067730293065e-07 
       6.762325811764e+01       1.442180071660e-07 
       7.301791451110e+01       5.985710059371e-09 
       7.884293049406e+01       2.670948993687e-09 
       8.513263807261e+01       2.695296635184e-09 
       9.192410809424e+01       1.156063721700e-09 
       9.925736873929e+01       9.345694334788e-08 
       1.071756414427e+02       1.739659879951e-07 
       1.157255956364e+02       2.948758048704e-11 
       1.249576238137e+02       1.215583929483e-12 
       1.349261385375e+02       2.624689917291e-09 
