# Matter power spectrum P(k) at redshift z=0
# for k=1.04775e-05 to 134.926 h/Mpc,
# number of wavenumbers equal to 255
#    1:k (h/Mpc)              2:P (Mpc/h)^3        
       1.047750691338e-05       5.020963906814e+01 
       1.131335172818e-05       5.407048937087e+01 
       1.221587619877e-05       5.822820724055e+01 
       1.319039970550e-05       6.270562046763e+01 
       1.424266598317e-05       6.752731476042e+01 
       1.537887697396e-05       7.271975715449e+01 
       1.660572938097e-05       7.831147100772e+01 
       1.793045413791e-05       8.433312564168e+01 
       1.936085902737e-05       9.081780130686e+01 
       2.090537469909e-05       9.780108044121e+01 
       2.257310435923e-05       1.053212938603e+02 
       2.437387742372e-05       1.134197268469e+02 
       2.631830745176e-05       1.221408285672e+02 
       2.841785470091e-05       1.315324605566e+02 
       3.068489367268e-05       1.416461671030e+02 
       3.313278604643e-05       1.525374478826e+02 
       3.577595943165e-05       1.642660517612e+02 
       3.862999240274e-05       1.768963429626e+02 
       4.171170631739e-05       1.904975997817e+02 
       4.503926445983e-05       2.051444243227e+02 
       4.863227909323e-05       2.209171412035e+02 
       5.251192705226e-05       2.379022265987e+02 
       5.670107455699e-05       2.561927841176e+02 
       6.122441198393e-05       2.758890478447e+02 
       6.610859938837e-05       2.970989214352e+02 
       7.138242363583e-05       3.199385566835e+02 
       7.707696806873e-05       3.445329726984e+02 
       8.322579570814e-05       3.710167323827e+02 
       8.986514707061e-05       3.995346444066e+02 
       9.703415376577e-05       4.302425394630e+02 
       1.047750691338e-04       4.633080773284e+02 
       1.131335172818e-04       4.989116273770e+02 
       1.221587619877e-04       5.372471938626e+02 
       1.319039970550e-04       5.785234122759e+02 
       1.424266598317e-04       6.229645932232e+02 
       1.537887697396e-04       6.708118485274e+02 
       1.660572938097e-04       7.223242662035e+02 
       1.793045413791e-04       7.777801579473e+02 
       1.936085902737e-04       8.374783636287e+02 
       2.090537469909e-04       9.017396285822e+02 
       2.257310435923e-04       9.709080296523e+02 
       2.437387742372e-04       1.045352452771e+03 
       2.631830745176e-04       1.125468126985e+03 
       2.841785470091e-04       1.211678185219e+03 
       3.068489367268e-04       1.304435253679e+03 
       3.313278604643e-04       1.404223062056e+03 
       3.577595943165e-04       1.511558029034e+03 
       3.862999240274e-04       1.626990851865e+03 
       4.171170631739e-04       1.751108044725e+03 
       4.503926445983e-04       1.884533403648e+03 
       4.863227909323e-04       2.027929405581e+03 
       5.251192705226e-04       2.181998482171e+03 
       5.670107455699e-04       2.347484143888e+03 
       6.122441198393e-04       2.525171922438e+03 
       6.610859938837e-04       2.715890051503e+03 
       7.138242363583e-04       2.920509774956e+03 
       7.707696806873e-04       3.139945202533e+03 
       8.322579570814e-04       3.375152470055e+03 
       8.986514707061e-04       3.627128011680e+03 
       9.703415376577e-04       3.896905658449e+03 
       1.047750691338e-03       4.185552438626e+03 
       1.131335172818e-03       4.494162757879e+03 
       1.221587619877e-03       4.823851128200e+03 
       1.319039970550e-03       5.175743250362e+03 
       1.424266598317e-03       5.551020261567e+03 
       1.537887697396e-03       5.950789136045e+03 
       1.660572938097e-03       6.376124084029e+03 
       1.793045413791e-03       6.828075147961e+03 
       1.936085902737e-03       7.307626931465e+03 
       2.090537469909e-03       7.815673809952e+03 
       2.257310435923e-03       8.352992713894e+03 
       2.437387742372e-03       8.920213987727e+03 
       2.631830745176e-03       9.517786772594e+03 
       2.841785470091e-03       1.014594065025e+04 
       3.068489367268e-03       1.080465059346e+04 
       3.313278604643e-03       1.149358108526e+04 
       3.577595943165e-03       1.221204414183e+04 
       3.862999240274e-03       1.295893501535e+04 
       4.171170631739e-03       1.373267128734e+04 
       4.503926445983e-03       1.453113082265e+04 
       4.863227909323e-03       1.535155176957e+04 
       5.251192705226e-03       1.619058626917e+04 
       5.670107455699e-03       1.704431013855e+04 
       6.122441198393e-03       1.790758111677e+04 
       6.610859938837e-03       1.877449660630e+04 
       7.138242363583e-03       1.963867476000e+04 
       7.707696806873e-03       2.049202809260e+04 
       8.322579570814e-03       2.132598040928e+04 
       8.986514707061e-03       2.213041525053e+04 
       9.703415376577e-03       2.289422212320e+04 
       1.047750691338e-02       2.360518446024e+04 
       1.131335172818e-02       2.424984082223e+04 
       1.221587619877e-02       2.481363505519e+04 
       1.319039970550e-02       2.528158769632e+04 
       1.424266598317e-02       2.563714025757e+04 
       1.537887697392e-02       2.586483642725e+04 
       1.660572938023e-02       2.594853461228e+04 
       1.793045412706e-02       2.587404551833e+04 
       1.936085890181e-02       2.562918376246e+04 
       2.090537352463e-02       2.520541456336e+04 
       2.257309535333e-02       2.459933397300e+04 
       2.437382002918e-02       2.381428535104e+04 
       2.631799944462e-02       2.286196748741e+04 
       2.841644545389e-02       2.176381647362e+04 
       3.067933355377e-02       2.055212070153e+04 
       3.311368470740e-02       1.927056259381e+04 
       3.571840443502e-02       1.797352554016e+04 
       3.847720348444e-02       1.672186173744e+04 
       4.135335538431e-02       1.557466977565e+04 
       4.429361667738e-02       1.457505932152e+04 
       4.724366439141e-02       1.373948063892e+04 
       5.016480835311e-02       1.305785572392e+04 
       5.303989620246e-02       1.250364569427e+04 
       5.586870669566e-02       1.204412990981e+04 
       5.866042680613e-02       1.164772825342e+04 
       6.142798932958e-02       1.128636408132e+04 
       6.418496440164e-02       1.093696529934e+04 
       6.694418833788e-02       1.058131777542e+04 
       6.971731106057e-02       1.020607928089e+04 
       7.251476155766e-02       9.803107140488e+03 
       7.534587671527e-02       9.369154408788e+03 
       7.821907666265e-02       8.905932348786e+03 
       8.114203772912e-02       8.419477233510e+03 
       8.412184535029e-02       7.919790556548e+03 
       8.716512279304e-02       7.419025362955e+03 
       9.027813695930e-02       6.931004710699e+03 
       9.346688431697e-02       6.469065990697e+03 
       9.673716028276e-02       6.044872344235e+03 
       1.000946150830e-01       5.667347171164e+03 
       1.035447986537e-01       5.341325282832e+03 
       1.070931966762e-01       5.067202145557e+03 
       1.107452594425e-01       4.840631677568e+03 
       1.145064249153e-01       4.652737695673e+03 
       1.183821370918e-01       4.490890563999e+03 
       1.223778605862e-01       4.339779353018e+03 
       1.264990921987e-01       4.183395401485e+03 
       1.307513701367e-01       4.007849065456e+03 
       1.351402814784e-01       3.804184403415e+03 
       1.396714684203e-01       3.570758664081e+03 
       1.443506338194e-01       3.313851912846e+03 
       1.491835465229e-01       3.047099299807e+03 
       1.541760469708e-01       2.786788304785e+03 
       1.593340535561e-01       2.549140330865e+03 
       1.646635702297e-01       2.345449911668e+03 
       1.701706958456e-01       2.179578626527e+03 
       1.758616357459e-01       2.047088120985e+03 
       1.817427160982e-01       1.936363135122e+03 
       1.878204015065e-01       1.832842763083e+03 
       1.941013164283e-01       1.721079393961e+03 
       2.005922709503e-01       1.591759926048e+03 
       2.073002914972e-01       1.446203204747e+03 
       2.142326570816e-01       1.295125736199e+03 
       2.213969417533e-01       1.152205719640e+03 
       2.288010639706e-01       1.027792437446e+03 
       2.364533437147e-01       9.256392888258e+02 
       2.443625682930e-01       8.417313970021e+02 
       2.525380679504e-01       7.662900320016e+02 
       2.609898026346e-01       6.895312983439e+02 
       2.697284615565e-01       6.076112481813e+02 
       2.787655775689e-01       5.235712701751e+02 
       2.881136588829e-01       4.450346359441e+02 
       2.977863412677e-01       3.780484735131e+02 
       3.077985646929e-01       3.225784219325e+02 
       3.181667794071e-01       2.743526474551e+02 
       3.289091877812e-01       2.287451432906e+02 
       3.400460299658e-01       1.844797072117e+02 
       3.515999236474e-01       1.440273046313e+02 
       3.635962711085e-01       1.099929763797e+02 
       3.760637506334e-01       8.260003547121e+01 
       3.890349143879e-01       5.988676847569e+01 
       4.025469216825e-01       4.059174765523e+01 
       4.166424456376e-01       2.492990718010e+01 
       4.313708035863e-01       1.347565251340e+01 
       4.467893782977e-01       5.914643886889e+00 
       4.629654199664e-01       1.557036860559e+00 
       4.799783501994e-01       8.344295975884e-03 
       4.979227319373e-01       1.008678471328e+00 
       5.169121270864e-01       4.021681103728e+00 
       5.370841404489e-01       8.568392349340e+00 
       5.586070464571e-01       1.417983167974e+01 
       5.816885094930e-01       2.015165089222e+01 
       6.065870144995e-01       2.589486031184e+01 
       6.336266468475e-01       3.081023105298e+01 
       6.632156059511e-01       3.416286773665e+01 
       6.958678639263e-01       3.544727917813e+01 
       7.322247985589e-01       3.415341493780e+01 
       7.730680195114e-01       3.014609118518e+01 
       8.193049553677e-01       2.372795417741e+01 
       8.718988016039e-01       1.588137432413e+01 
       9.317218031082e-01       8.237805916357e+00 
       9.993660908989e-01       2.614975124280e+00 
       1.075037110174e+00       1.447122696730e-01 
       1.158653485707e+00       4.423027327730e-01 
       1.250099157308e+00       1.860907850706e+00 
       1.349432401273e+00       2.648284655097e+00 
       1.456947457397e+00       2.162782216346e+00 
       1.573135111331e+00       1.010004167009e+00 
       1.698621895592e+00       1.617412159236e-01 
       1.834127512934e+00       1.678936521073e-02 
       1.980444934528e+00       1.945227484913e-01 
       2.138435191726e+00       2.272193146837e-01 
       2.309029199186e+00       8.543488849263e-02 
       2.493232377687e+00       2.795271185243e-03 
       2.692130395285e+00       1.499783582407e-02 
       2.906895534573e+00       1.849339108729e-02 
       3.138793597714e+00       5.090281648719e-03 
       3.389191366484e+00       4.319689899012e-04 
       3.659564657905e+00       3.152867402364e-03 
       3.951507022538e+00       5.895096052584e-04 
       4.266739136701e+00       7.451494697171e-05 
       4.607118943941e+00       3.654349208678e-04 
       4.974652605557e+00       5.683433546687e-06 
       5.371506324689e+00       3.676938309654e-05 
       5.800019113685e+00       7.454940476017e-06 
       6.262716579983e+00       3.493739923892e-07 
       6.762325811764e+00       1.827927062879e-05 
       7.301791451110e+00       9.539218175582e-07 
       7.884293049406e+00       5.349499381789e-06 
       8.513263807261e+00       1.834287113565e-06 
       9.192410809424e+00       1.511048222420e-07 
       9.925736873929e+00       3.078745215310e-08 
       1.071756414427e+01       2.523985863138e-12 
       1.157255956364e+01       1.423885655060e-07 
       1.249576238137e+01       1.658550072827e-07 
       1.349261385375e+01       2.300498405079e-06 
       1.456898931416e+01       6.020830628370e-07 
       1.573123280165e+01       4.497898875130e-07 
       1.698619445202e+01       3.631383733103e-08 
       1.834127087176e+01       2.270509373619e-14 
       1.980444873285e+01       2.311530789193e-08 
       2.138435184532e+01       7.096476983646e-10 
       2.309029198506e+01       1.832121828561e-07 
       2.493232377636e+01       1.082413468574e-06 
       2.692130395282e+01       3.604011242179e-07 
       2.906895534573e+01       8.137548354077e-09 
       3.138793597714e+01       3.234793107148e-10 
       3.389191366484e+01       1.033789215168e-09 
       3.659564657905e+01       1.891184837761e-11 
       3.951507022538e+01       1.483185208014e-07 
       4.266739136701e+01       1.308769333129e-08 
       4.607118943941e+01       4.848125977204e-09 
       4.974652605557e+01       1.446698254331e-10 
       5.371506324689e+01       2.734786562227e-10 
       5.800019113685e+01       6.284943471289e-09 
       6.262716579983e+01       1.626883013829e-09 
       6.762325811764e+01       6.012362606763e-11 
       7.301791451110e+01       6.665058530373e-12 
       7.884293049406e+01       8.017415433016e-13 
       8.513263807261e+01       3.361870605693e-10 
       9.192410809424e+01       2.026686092500e-09 
       9.925736873929e+01       1.656218142433e-10 
       1.071756414427e+02       1.051315981260e-11 
       1.157255956364e+02       4.517593093451e-10 
       1.249576238137e+02       2.773455640440e-10 
       1.349261385375e+02       1.304733594224e-11 
