# Matter power spectrum P(k) at redshift z=0
# for k=1.04775e-05 to 67.6233 h/Mpc,
# number of wavenumbers equal to 246
#    1:k (h/Mpc)              2:P (Mpc/h)^3        
       1.047750691338e-05       5.020964806751e+01 
       1.131335172818e-05       5.407048206554e+01 
       1.221587619877e-05       5.822819063672e+01 
       1.319039970550e-05       6.270562589682e+01 
       1.424266598317e-05       6.752731788102e+01 
       1.537887697396e-05       7.271977200258e+01 
       1.660572938097e-05       7.831147241542e+01 
       1.793045413791e-05       8.433311815128e+01 
       1.936085902737e-05       9.081778242446e+01 
       2.090537469909e-05       9.780108061340e+01 
       2.257310435923e-05       1.053213197032e+02 
       2.437387742372e-05       1.134197377001e+02 
       2.631830745176e-05       1.221408202816e+02 
       2.841785470091e-05       1.315324720916e+02 
       3.068489367268e-05       1.416462093731e+02 
       3.313278604643e-05       1.525374500691e+02 
       3.577595943165e-05       1.642660687078e+02 
       3.862999240274e-05       1.768963504868e+02 
       4.171170631739e-05       1.904975992460e+02 
       4.503926445983e-05       2.051444490305e+02 
       4.863227909323e-05       2.209171463752e+02 
       5.251192705226e-05       2.379022222314e+02 
       5.670107455699e-05       2.561927925462e+02 
       6.122441198393e-05       2.758890441792e+02 
       6.610859938837e-05       2.970989225466e+02 
       7.138242363583e-05       3.199385558200e+02 
       7.707696806873e-05       3.445329780878e+02 
       8.322579570814e-05       3.710167315928e+02 
       8.986514707061e-05       3.995346440954e+02 
       9.703415376577e-05       4.302425403884e+02 
       1.047750691338e-04       4.633080762974e+02 
       1.131335172818e-04       4.989116267507e+02 
       1.221587619877e-04       5.372471946561e+02 
       1.319039970550e-04       5.785234124635e+02 
       1.424266598317e-04       6.229645930980e+02 
       1.537887697396e-04       6.708118484951e+02 
       1.660572938097e-04       7.223242660220e+02 
       1.793045413791e-04       7.777801564439e+02 
       1.936085902737e-04       8.374783607333e+02 
       2.090537469909e-04       9.017396264495e+02 
       2.257310435923e-04       9.709080260152e+02 
       2.437387742372e-04       1.045352448644e+03 
       2.631830745176e-04       1.125468122836e+03 
       2.841785470091e-04       1.211678179511e+03 
       3.068489367268e-04       1.304435249091e+03 
       3.313278604643e-04       1.404223052541e+03 
       3.577595943165e-04       1.511558013390e+03 
       3.862999240274e-04       1.626990836492e+03 
       4.171170631739e-04       1.751108027371e+03 
       4.503926445983e-04       1.884533381345e+03 
       4.863227909323e-04       2.027929376471e+03 
       5.251192705226e-04       2.181998446368e+03 
       5.670107455699e-04       2.347484100857e+03 
       6.122441198393e-04       2.525171869334e+03 
       6.610859938837e-04       2.715889981402e+03 
       7.138242363583e-04       2.920509686089e+03 
       7.707696806873e-04       3.139945097710e+03 
       8.322579570814e-04       3.375152334396e+03 
       8.986514707061e-04       3.627127828231e+03 
       9.703415376577e-04       3.896905450016e+03 
       1.047750691338e-03       4.185552170962e+03 
       1.131335172818e-03       4.494162426791e+03 
       1.221587619877e-03       4.823850702671e+03 
       1.319039970550e-03       5.175742734649e+03 
       1.424266598317e-03       5.551019592529e+03 
       1.537887697396e-03       5.950788335882e+03 
       1.660572938097e-03       6.376123046807e+03 
       1.793045413791e-03       6.828073896121e+03 
       1.936085902737e-03       7.307625375386e+03 
       2.090537469909e-03       7.815671857998e+03 
       2.257310435923e-03       8.352990369398e+03 
       2.437387742372e-03       8.920211057534e+03 
       2.631830745176e-03       9.517783061888e+03 
       2.841785470091e-03       1.014593703671e+04 
       3.068489367268e-03       1.080464505731e+04 
       3.313278604643e-03       1.149357459465e+04 
       3.577595943165e-03       1.221203620825e+04 
       3.862999240274e-03       1.295892538504e+04 
       4.171170631739e-03       1.373266002272e+04 
       4.503926445983e-03       1.453111834593e+04 
       4.863227909323e-03       1.535154984220e+04 
       5.251192705226e-03       1.619063613410e+04 
       5.670107455699e-03       1.704431256579e+04 
       6.122441198393e-03       1.790755938457e+04 
       6.610859938837e-03       1.877460415669e+04 
       7.138242363583e-03       1.963872429120e+04 
       7.707696806873e-03       2.049215713394e+04 
       8.322579570814e-03       2.132607230739e+04 
       8.986514707061e-03       2.213054997976e+04 
       9.703415376577e-03       2.289445470891e+04 
       1.047750691338e-02       2.360548411863e+04 
       1.131335172818e-02       2.425023180812e+04 
       1.221587619877e-02       2.481423924537e+04 
       1.319039970550e-02       2.528218779732e+04 
       1.424266598317e-02       2.563813669261e+04 
       1.537887697392e-02       2.586607351143e+04 
       1.660572938023e-02       2.595027555949e+04 
       1.793045412706e-02       2.587633628711e+04 
       1.936085890181e-02       2.563220000518e+04 
       2.090537352463e-02       2.520934025797e+04 
       2.257309535333e-02       2.460447024458e+04 
       2.437382002918e-02       2.382088509531e+04 
       2.631799944462e-02       2.287043141870e+04 
       2.841644545389e-02       2.177448532488e+04 
       3.067933355377e-02       2.056559369479e+04 
       3.311368470740e-02       1.928732110157e+04 
       3.571840443502e-02       1.799400572198e+04 
       3.847720348444e-02       1.674683115033e+04 
       4.135335538431e-02       1.560463492696e+04 
       4.429361667738e-02       1.461037819185e+04 
       4.724366439141e-02       1.378053190134e+04 
       5.016480835311e-02       1.310509085419e+04 
       5.303989620246e-02       1.255717607586e+04 
       5.586870669566e-02       1.210423093355e+04 
       5.866042680613e-02       1.171464974705e+04 
       6.142798932958e-02       1.136047775435e+04 
       6.418496440164e-02       1.101856510309e+04 
       6.694418833788e-02       1.067067977787e+04 
       6.971731106057e-02       1.030357103884e+04 
       7.251476155766e-02       9.909013139312e+03 
       7.534587671527e-02       9.483776195624e+03 
       7.821907666265e-02       9.029495699846e+03 
       8.114203772912e-02       8.552312516716e+03 
       8.412184535029e-02       8.061919878083e+03 
       8.716512279304e-02       7.570785223866e+03 
       9.027813695930e-02       7.092464382557e+03 
       9.346688431697e-02       6.640516285778e+03 
       9.673716028276e-02       6.226704961717e+03 
       1.000946150830e-01       5.859949097973e+03 
       1.035447986537e-01       5.545245333041e+03 
       1.070931966762e-01       5.283150246144e+03 
       1.107452594425e-01       5.069403842491e+03 
       1.145064249153e-01       4.895259530529e+03 
       1.183821370918e-01       4.747855387494e+03 
       1.223778605862e-01       4.611728155491e+03 
       1.264990921987e-01       4.470609122490e+03 
       1.307513701367e-01       4.310273376597e+03 
       1.351402814784e-01       4.121380001832e+03 
       1.396714684203e-01       3.902056128931e+03 
       1.443506338194e-01       3.658655675824e+03 
       1.491835465229e-01       3.404484993853e+03 
       1.541760469708e-01       3.156669689793e+03 
       1.593340535561e-01       2.931977907838e+03 
       1.646635702297e-01       2.742370644733e+03 
       1.701706958456e-01       2.592254359213e+03 
       1.758616357459e-01       2.477244344283e+03 
       1.817427160982e-01       2.385185046250e+03 
       1.878204015065e-01       2.300352710155e+03 
       1.941013164283e-01       2.205761359843e+03 
       2.005922709503e-01       2.090821899963e+03 
       2.073002914972e-01       1.956468021953e+03 
       2.142326570816e-01       1.814193732788e+03 
       2.213969417533e-01       1.679292708416e+03 
       2.288010639706e-01       1.563845526148e+03 
       2.364533437147e-01       1.472688759289e+03 
       2.443625682930e-01       1.401511871499e+03 
       2.525380679504e-01       1.338411487369e+03 
       2.609898026346e-01       1.270900758010e+03 
       2.697284615565e-01       1.193380198248e+03 
       2.787655775689e-01       1.109340519067e+03 
       2.881136588829e-01       1.028768750557e+03 
       2.977863412677e-01       9.604798820144e+02 
       3.077985646929e-01       9.050241046953e+02 
       3.181667794071e-01       8.561428929170e+02 
       3.289091877812e-01       8.061894296422e+02 
       3.400460299658e-01       7.523901582983e+02 
       3.515999236474e-01       6.989205960124e+02 
       3.635962711085e-01       6.510646485878e+02 
       3.760637506334e-01       6.101228330854e+02 
       3.890349143879e-01       5.721314343539e+02 
       4.025469216825e-01       5.337790591056e+02 
       4.166424456376e-01       4.956292568481e+02 
       4.313708035863e-01       4.604674299286e+02 
       4.467893782977e-01       4.287777332660e+02 
       4.629654199664e-01       3.987715522392e+02 
       4.799783501994e-01       3.692400664991e+02 
       4.979227319373e-01       3.412382523397e+02 
       5.169121270864e-01       3.154822367284e+02 
       5.370841404489e-01       2.908344883549e+02 
       5.586070464571e-01       2.671053481922e+02 
       5.816885094930e-01       2.448073776896e+02 
       6.065870144995e-01       2.235658476267e+02 
       6.336266468475e-01       2.032088708802e+02 
       6.632156059511e-01       1.838771276917e+02 
       6.958678639263e-01       1.653521567912e+02 
       7.322247985589e-01       1.476935281310e+02 
       7.730680195114e-01       1.308317328144e+02 
       8.193049553677e-01       1.148290681652e+02 
       8.718988016039e-01       9.976068246562e+01 
       9.317218031082e-01       8.577563173528e+01 
       9.993660908989e-01       7.305244003514e+01 
       1.075037110174e+00       6.173339103146e+01 
       1.158653485707e+00       5.187676839728e+01 
       1.250099157308e+00       4.343778369091e+01 
       1.349432401273e+00       3.628687430172e+01 
       1.456947457397e+00       3.026540527949e+01 
       1.573135111331e+00       2.521184677404e+01 
       1.698621895592e+00       2.097927792943e+01 
       1.834127512934e+00       1.743957477619e+01 
       1.980444934528e+00       1.448280337112e+01 
       2.138435191726e+00       1.201601307378e+01 
       2.309029199186e+00       9.960188238086e+00 
       2.493232377687e+00       8.248784320780e+00 
       2.692130395285e+00       6.825554787475e+00 
       2.906895534573e+00       5.643176408789e+00 
       3.138793597714e+00       4.661773360862e+00 
       3.389191366484e+00       3.847929919447e+00 
       3.659564657905e+00       3.173729257919e+00 
       3.951507022538e+00       2.615662677862e+00 
       4.266739136701e+00       2.154088596444e+00 
       4.607118943941e+00       1.772644052887e+00 
       4.974652605557e+00       1.457686900791e+00 
       5.371506324689e+00       1.197807895677e+00 
       5.800019113685e+00       9.835272409672e-01 
       6.262716579983e+00       8.069827212115e-01 
       6.762325811764e+00       6.616267181884e-01 
       7.301791451110e+00       5.420324739605e-01 
       7.884293049406e+00       4.436930310237e-01 
       8.513263807261e+00       3.628843362522e-01 
       9.192410809424e+00       2.965252441705e-01 
       9.925736873929e+00       2.420622406591e-01 
       1.071756414427e+01       1.973900940832e-01 
       1.157255956364e+01       1.607703449735e-01 
       1.249576238137e+01       1.307701525120e-01 
       1.349261385375e+01       1.062075410676e-01 
       1.456898931416e+01       8.610925205438e-02 
       1.573123280165e+01       6.967644673595e-02 
       1.698619445202e+01       5.624807683390e-02 
       1.834127087176e+01       4.528355514891e-02 
       1.980444873285e+01       3.634004899768e-02 
       2.138435184532e+01       2.905177459218e-02 
       2.309029198506e+01       2.311991869737e-02 
       2.493232377636e+01       1.829995006714e-02 
       2.692130395282e+01       1.439100669197e-02 
       2.906895534573e+01       1.122892014724e-02 
       3.138793597714e+01       8.679540121221e-03 
       3.389191366484e+01       6.632521980801e-03 
       3.659564657905e+01       4.998217827817e-03 
       3.951507022538e+01       3.702784177772e-03 
       4.266739136701e+01       2.685681856345e-03 
       4.607118943941e+01       1.897060714007e-03 
       4.974652605557e+01       1.295658541237e-03 
       5.371506324689e+01       8.469690779688e-04 
       5.800019113685e+01       5.221052730214e-04 
       6.262716579983e+01       2.962990541774e-04 
       6.762325811764e+01       1.484160751504e-04 
