# Matter power spectrum P(k) at redshift z=99
# for k=1.04775e-05 to 67.6233 h/Mpc,
# number of wavenumbers equal to 246
#    1:k (h/Mpc)              2:P (Mpc/h)^3        
       1.047750691338e-05       7.261927673120e-03 
       1.131335172818e-05       7.820331745738e-03 
       1.221587619877e-05       8.421675986489e-03 
       1.319039970550e-05       9.069258192195e-03 
       1.424266598317e-05       9.766638404422e-03 
       1.537887697396e-05       1.051764069682e-02 
       1.660572938097e-05       1.132639105520e-02 
       1.793045413791e-05       1.219733231417e-02 
       1.936085902737e-05       1.313524224381e-02 
       2.090537469909e-05       1.414527121893e-02 
       2.257310435923e-05       1.523296272192e-02 
       2.437387742372e-05       1.640429444530e-02 
       2.631830745176e-05       1.766569582178e-02 
       2.841785470091e-05       1.902408601793e-02 
       3.068489367268e-05       2.048692970592e-02 
       3.313278604643e-05       2.206225513594e-02 
       3.577595943165e-05       2.375870704909e-02 
       3.862999240274e-05       2.558560727479e-02 
       4.171170631739e-05       2.755297763344e-02 
       4.503926445983e-05       2.967161927316e-02 
       4.863227909323e-05       3.195316450832e-02 
       5.251192705226e-05       3.441013519285e-02 
       5.670107455699e-05       3.705601722530e-02 
       6.122441198393e-05       3.990533413560e-02 
       6.610859938837e-05       4.297372168203e-02 
       7.138242363583e-05       4.627802141689e-02 
       7.707696806873e-05       4.983636194159e-02 
       8.322579570814e-05       5.366826847232e-02 
       8.986514707061e-05       5.779476394569e-02 
       9.703415376577e-05       6.223848243885e-02 
       1.047750691338e-04       6.702379865640e-02 
       1.131335172818e-04       7.217695153381e-02 
       1.221587619877e-04       7.772619073574e-02 
       1.319039970550e-04       8.370193432377e-02 
       1.424266598317e-04       9.013692507549e-02 
       1.537887697396e-04       9.706641242571e-02 
       1.660572938097e-04       1.045283354272e-01 
       1.793045413791e-04       1.125635349068e-01 
       1.936085902737e-04       1.212159614968e-01 
       2.090537469909e-04       1.305329132715e-01 
       2.257310435923e-04       1.405652846215e-01 
       2.437387742372e-04       1.513678302540e-01 
       2.631830745176e-04       1.629994504871e-01 
       2.841785470091e-04       1.755234921225e-01 
       3.068489367268e-04       1.890080670413e-01 
       3.313278604643e-04       2.035264002435e-01 
       3.577595943165e-04       2.191571803681e-01 
       3.862999240274e-04       2.359849437592e-01 
       4.171170631739e-04       2.541004741539e-01 
       4.503926445983e-04       2.736012080278e-01 
       4.863227909323e-04       2.945916790965e-01 
       5.251192705226e-04       3.171839525183e-01 
       5.670107455699e-04       3.414980764002e-01 
       6.122441198393e-04       3.676625413101e-01 
       6.610859938837e-04       3.958147252304e-01 
       7.138242363583e-04       4.261013284917e-01 
       7.707696806873e-04       4.586787792352e-01 
       8.322579570814e-04       4.937136001345e-01 
       8.986514707061e-04       5.313826801402e-01 
       9.703415376577e-04       5.718734972158e-01 
       1.047750691338e-03       6.153841629506e-01 
       1.131335172818e-03       6.621233239466e-01 
       1.221587619877e-03       7.123098220421e-01 
       1.319039970550e-03       7.661720584622e-01 
       1.424266598317e-03       8.239546297728e-01 
       1.537887697396e-03       8.859011173467e-01 
       1.660572938097e-03       9.522588006421e-01 
       1.793045413791e-03       1.023280099819e+00 
       1.936085902737e-03       1.099216304579e+00 
       2.090537469909e-03       1.180312990454e+00 
       2.257310435923e-03       1.266804115851e+00 
       2.437387742372e-03       1.358904853405e+00 
       2.631830745176e-03       1.456802683156e+00 
       2.841785470091e-03       1.560646890521e+00 
       3.068489367268e-03       1.670536062498e+00 
       3.313278604643e-03       1.786503852158e+00 
       3.577595943165e-03       1.908502930786e+00 
       3.862999240274e-03       2.036387730707e+00 
       4.171170631739e-03       2.169896178831e+00 
       4.503926445983e-03       2.308631878990e+00 
       4.863227909323e-03       2.452047290956e+00 
       5.251192705226e-03       2.599430628080e+00 
       5.670107455699e-03       2.749896931803e+00 
       6.122441198393e-03       2.902386513369e+00 
       6.610859938837e-03       3.055668698893e+00 
       7.138242363583e-03       3.208356461515e+00 
       7.707696806873e-03       3.358923892713e+00 
       8.322579570814e-03       3.505725595323e+00 
       8.986514707061e-03       3.647009688236e+00 
       9.703415376577e-03       3.780923304194e+00 
       1.047750691338e-02       3.905491047096e+00 
       1.131335172818e-02       4.018587631199e+00 
       1.221587619877e-02       4.117901589409e+00 
       1.319039970550e-02       4.200915338312e+00 
       1.424266598317e-02       4.264941345166e+00 
       1.537887697392e-02       4.307219315517e+00 
       1.660572938023e-02       4.325063136073e+00 
       1.793045412706e-02       4.316057193853e+00 
       1.936085890181e-02       4.278228934905e+00 
       2.090537352463e-02       4.210200679806e+00 
       2.257309535333e-02       4.111421062024e+00 
       2.437382002918e-02       3.982420249169e+00 
       2.631799944462e-02       3.825165562258e+00 
       2.841644545389e-02       3.643278431209e+00 
       3.067933355377e-02       3.442202608001e+00 
       3.311368470740e-02       3.229241616875e+00 
       3.571840443502e-02       3.013513028130e+00 
       3.847720348444e-02       2.805281748436e+00 
       4.135335538431e-02       2.614415497583e+00 
       4.429361667738e-02       2.448132163537e+00 
       4.724366439141e-02       2.309235923519e+00 
       5.016480835311e-02       2.196115555843e+00 
       5.303989620246e-02       2.104368662212e+00 
       5.586870669566e-02       2.028459200666e+00 
       5.866042680613e-02       1.963152148330e+00 
       6.142798932958e-02       1.903781886272e+00 
       6.418496440164e-02       1.846479762374e+00 
       6.694418833788e-02       1.788195886056e+00 
       6.971731106057e-02       1.726716568598e+00 
       7.251476155766e-02       1.660654156665e+00 
       7.534587671527e-02       1.589470276900e+00 
       7.821907666265e-02       1.513438035785e+00 
       8.114203772912e-02       1.433566898702e+00 
       8.412184535029e-02       1.351494246067e+00 
       8.716512279304e-02       1.269275774215e+00 
       9.027813695930e-02       1.189191285806e+00 
       9.346688431697e-02       1.113500986202e+00 
       9.673716028276e-02       1.044175193687e+00 
       1.000946150830e-01       9.827053939999e-01 
       1.035447986537e-01       9.299377861453e-01 
       1.070931966762e-01       8.859612030759e-01 
       1.107452594425e-01       8.500695016223e-01 
       1.145064249153e-01       8.208028248027e-01 
       1.183821370918e-01       7.960276983087e-01 
       1.223778605862e-01       7.731463741445e-01 
       1.264990921987e-01       7.494506344133e-01 
       1.307513701367e-01       7.225579969919e-01 
       1.351402814784e-01       6.909084111880e-01 
       1.396714684203e-01       6.541819675061e-01 
       1.443506338194e-01       6.134253221105e-01 
       1.491835465229e-01       5.708684053312e-01 
       1.541760469708e-01       5.293631099831e-01 
       1.593340535561e-01       4.917106357293e-01 
       1.646635702297e-01       4.599201537331e-01 
       1.701706958456e-01       4.347279555568e-01 
       1.758616357459e-01       4.154081087777e-01 
       1.817427160982e-01       3.999372328739e-01 
       1.878204015065e-01       3.856814436599e-01 
       1.941013164283e-01       3.698097962984e-01 
       2.005922709503e-01       3.505466703443e-01 
       2.073002914972e-01       3.280433854191e-01 
       2.142326570816e-01       3.042139987879e-01 
       2.213969417533e-01       2.816114394543e-01 
       2.288010639706e-01       2.622566872074e-01 
       2.364533437147e-01       2.469622440119e-01 
       2.443625682930e-01       2.350127565708e-01 
       2.525380679504e-01       2.244172727920e-01 
       2.609898026346e-01       2.130933489785e-01 
       2.697284615565e-01       2.001010930562e-01 
       2.787655775689e-01       1.860199225191e-01 
       2.881136588829e-01       1.725169475433e-01 
       2.977863412677e-01       1.610658272631e-01 
       3.077985646929e-01       1.517610357513e-01 
       3.181667794071e-01       1.435588628903e-01 
       3.289091877812e-01       1.351816396547e-01 
       3.400460299658e-01       1.261641166532e-01 
       3.515999236474e-01       1.172015373088e-01 
       3.635962711085e-01       1.091770328054e-01 
       3.760637506334e-01       1.023094240665e-01 
       3.890349143879e-01       9.593747388875e-02 
       4.025469216825e-01       8.950723067643e-02 
       4.166424456376e-01       8.311136637326e-02 
       4.313708035863e-01       7.721532110203e-02 
       4.467893782977e-01       7.190071607770e-02 
       4.629654199664e-01       6.686875076091e-02 
       4.799783501994e-01       6.191726839331e-02 
       4.979227319373e-01       5.722193345346e-02 
       5.169121270864e-01       5.290263541807e-02 
       5.370841404489e-01       4.876959716861e-02 
       5.586070464571e-01       4.479061213312e-02 
       5.816885094930e-01       4.105147975971e-02 
       6.065870144995e-01       3.748957346024e-02 
       6.336266468475e-01       3.407599984941e-02 
       6.632156059511e-01       3.083425588849e-02 
       6.958678639263e-01       2.772788538717e-02 
       7.322247985589e-01       2.476672814902e-02 
       7.730680195114e-01       2.193921593935e-02 
       8.193049553677e-01       1.925574389958e-02 
       8.718988016039e-01       1.672893962194e-02 
       9.317218031082e-01       1.438379522826e-02 
       9.993660908989e-01       1.225024707192e-02 
       1.075037110174e+00       1.035215656359e-02 
       1.158653485707e+00       8.699286927304e-03 
       1.250099157308e+00       7.284159618450e-03 
       1.349432401273e+00       6.085005324007e-03 
       1.456947457397e+00       5.075271785250e-03 
       1.573135111331e+00       4.227835176769e-03 
       1.698621895592e+00       3.518070180539e-03 
       1.834127512934e+00       2.924494811193e-03 
       1.980444934528e+00       2.428669947319e-03 
       2.138435191726e+00       2.015010420931e-03 
       2.309029199186e+00       1.670265095722e-03 
       2.493232377687e+00       1.383276823169e-03 
       2.692130395285e+00       1.144611449680e-03 
       2.906895534573e+00       9.463360864278e-04 
       3.138793597714e+00       7.817619487918e-04 
       3.389191366484e+00       6.452859243842e-04 
       3.659564657905e+00       5.322277485249e-04 
       3.951507022538e+00       4.386432905718e-04 
       4.266739136701e+00       3.612403900596e-04 
       4.607118943941e+00       2.972744314074e-04 
       4.974652605557e+00       2.444576543918e-04 
       5.371506324689e+00       2.008773705840e-04 
       5.800019113685e+00       1.649434409001e-04 
       6.262716579983e+00       1.353376998589e-04 
       6.762325811764e+00       1.109619634353e-04 
       7.301791451110e+00       9.090631950885e-05 
       7.884293049406e+00       7.441499783388e-05 
       8.513263807261e+00       6.086345999421e-05 
       9.192410809424e+00       4.973502090096e-05 
       9.925736873929e+00       4.060143980530e-05 
       1.071756414427e+01       3.310977058118e-05 
       1.157255956364e+01       2.696849722433e-05 
       1.249576238137e+01       2.193721668127e-05 
       1.349261385375e+01       1.781778838787e-05 
       1.456898931416e+01       1.444703981341e-05 
       1.573123280165e+01       1.169094006161e-05 
       1.698619445202e+01       9.438695820472e-06 
       1.834127087176e+01       7.599650620343e-06 
       1.980444873285e+01       6.099492797829e-06 
       2.138435184532e+01       4.876928332735e-06 
       2.309029198506e+01       3.881827746945e-06 
       2.493232377636e+01       3.073173395489e-06 
       2.692130395282e+01       2.417308234682e-06 
       2.906895534573e+01       1.886683570986e-06 
       3.138793597714e+01       1.458802143475e-06 
       3.389191366484e+01       1.115170686240e-06 
       3.659564657905e+01       8.407516956780e-07 
       3.951507022538e+01       6.231631218021e-07 
       4.266739136701e+01       4.522561293135e-07 
       4.607118943941e+01       3.196772469937e-07 
       4.974652605557e+01       2.185089853645e-07 
       5.371506324689e+01       1.429771879965e-07 
       5.800019113685e+01       8.823037914985e-08 
       6.262716579983e+01       5.013613487956e-08 
       6.762325811764e+01       2.515036227721e-08 
