# Matter power spectrum P(k) at redshift z=99
# for k=1.04775e-05 to 134.926 h/Mpc,
# number of wavenumbers equal to 255
#    1:k (h/Mpc)              2:P (Mpc/h)^3        
       1.047750691338e-05       7.261927096163e-03 
       1.131335172818e-05       7.820332151701e-03 
       1.221587619877e-05       8.421675383348e-03 
       1.319039970550e-05       9.069257739099e-03 
       1.424266598317e-05       9.766636452306e-03 
       1.537887697396e-05       1.051763973768e-02 
       1.660572938097e-05       1.132639250889e-02 
       1.793045413791e-05       1.219733201656e-02 
       1.936085902737e-05       1.313524187362e-02 
       2.090537469909e-05       1.414527085149e-02 
       2.257310435923e-05       1.523296544677e-02 
       2.437387742372e-05       1.640429654840e-02 
       2.631830745176e-05       1.766569603502e-02 
       2.841785470091e-05       1.902408711395e-02 
       3.068489367268e-05       2.048692967695e-02 
       3.313278604643e-05       2.206225467819e-02 
       3.577595943165e-05       2.375870884143e-02 
       3.862999240274e-05       2.558560670136e-02 
       4.171170631739e-05       2.755297672846e-02 
       4.503926445983e-05       2.967161933777e-02 
       4.863227909323e-05       3.195316456048e-02 
       5.251192705226e-05       3.441013466557e-02 
       5.670107455699e-05       3.705601742158e-02 
       6.122441198393e-05       3.990533413326e-02 
       6.610859938837e-05       4.297372243059e-02 
       7.138242363583e-05       4.627802055418e-02 
       7.707696806873e-05       4.983636160499e-02 
       8.322579570814e-05       5.366826787590e-02 
       8.986514707061e-05       5.779476320441e-02 
       9.703415376577e-05       6.223848222597e-02 
       1.047750691338e-04       6.702379825841e-02 
       1.131335172818e-04       7.217695031962e-02 
       1.221587619877e-04       7.772619031312e-02 
       1.319039970550e-04       8.370193381062e-02 
       1.424266598317e-04       9.013692507767e-02 
       1.537887697396e-04       9.706641131583e-02 
       1.660572938097e-04       1.045283343238e-01 
       1.793045413791e-04       1.125635329322e-01 
       1.936085902737e-04       1.212159592457e-01 
       2.090537469909e-04       1.305329107594e-01 
       2.257310435923e-04       1.405652819531e-01 
       2.437387742372e-04       1.513678275259e-01 
       2.631830745176e-04       1.629994475330e-01 
       2.841785470091e-04       1.755234890690e-01 
       3.068489367268e-04       1.890080645526e-01 
       3.313278604643e-04       2.035263977674e-01 
       3.577595943165e-04       2.191571778304e-01 
       3.862999240274e-04       2.359849423538e-01 
       4.171170631739e-04       2.541004713298e-01 
       4.503926445983e-04       2.736012061474e-01 
       4.863227909323e-04       2.945916774977e-01 
       5.251192705226e-04       3.171839508217e-01 
       5.670107455699e-04       3.414980769480e-01 
       6.122441198393e-04       3.676625416692e-01 
       6.610859938837e-04       3.958147273273e-01 
       7.138242363583e-04       4.261013332488e-01 
       7.707696806873e-04       4.586787881285e-01 
       8.322579570814e-04       4.937136113264e-01 
       8.986514707061e-04       5.313826962522e-01 
       9.703415376577e-04       5.718735177243e-01 
       1.047750691338e-03       6.153841926671e-01 
       1.131335172818e-03       6.621233623512e-01 
       1.221587619877e-03       7.123098743992e-01 
       1.319039970550e-03       7.661721264049e-01 
       1.424266598317e-03       8.239547181434e-01 
       1.537887697396e-03       8.859012282755e-01 
       1.660572938097e-03       9.522589495425e-01 
       1.793045413791e-03       1.023280284668e+00 
       1.936085902737e-03       1.099216542011e+00 
       2.090537469909e-03       1.180313284881e+00 
       2.257310435923e-03       1.266804486574e+00 
       2.437387742372e-03       1.358905328126e+00 
       2.631830745176e-03       1.456803285479e+00 
       2.841785470091e-03       1.560647662395e+00 
       3.068489367268e-03       1.670537009715e+00 
       3.313278604643e-03       1.786505038497e+00 
       3.577595943165e-03       1.908504408621e+00 
       3.862999240274e-03       2.036389466810e+00 
       4.171170631739e-03       2.169898250284e+00 
       4.503926445983e-03       2.308634488733e+00 
       4.863227909323e-03       2.452050670638e+00 
       5.251192705226e-03       2.599434675867e+00 
       5.670107455699e-03       2.749901119792e+00 
       6.122441198393e-03       2.902390049907e+00 
       6.610859938837e-03       3.055671259241e+00 
       7.138242363583e-03       3.208360109586e+00 
       7.707696806873e-03       3.358926634815e+00 
       8.322579570814e-03       3.505726869294e+00 
       8.986514707061e-03       3.647012412373e+00 
       9.703415376577e-03       3.780926147907e+00 
       1.047750691338e-02       3.905492842036e+00 
       1.131335172818e-02       4.018589778688e+00 
       1.221587619877e-02       4.117902830978e+00 
       1.319039970550e-02       4.200917630070e+00 
       1.424266598317e-02       4.264943653803e+00 
       1.537887697392e-02       4.307219566971e+00 
       1.660572938023e-02       4.325062334498e+00 
       1.793045412706e-02       4.316060244594e+00 
       1.936085890181e-02       4.278228756426e+00 
       2.090537352463e-02       4.210204264400e+00 
       2.257309535333e-02       4.111418501487e+00 
       2.437382002918e-02       3.982420645970e+00 
       2.631799944462e-02       3.825168345053e+00 
       2.841644545389e-02       3.643281853395e+00 
       3.067933355377e-02       3.442198247572e+00 
       3.311368470740e-02       3.229241065975e+00 
       3.571840443502e-02       3.013515736019e+00 
       3.847720348444e-02       2.805283268541e+00 
       4.135335538431e-02       2.614409912075e+00 
       4.429361667738e-02       2.448131343662e+00 
       4.724366439141e-02       2.309239720367e+00 
       5.016480835311e-02       2.196114177323e+00 
       5.303989620246e-02       2.104368750060e+00 
       5.586870669566e-02       2.028461391243e+00 
       5.866042680613e-02       1.963154015431e+00 
       6.142798932958e-02       1.903778318204e+00 
       6.418496440164e-02       1.846477722631e+00 
       6.694418833788e-02       1.788195893529e+00 
       6.971731106057e-02       1.726713998795e+00 
       7.251476155766e-02       1.660652612780e+00 
       7.534587671527e-02       1.589467982617e+00 
       7.821907666265e-02       1.513434615532e+00 
       8.114203772912e-02       1.433566720574e+00 
       8.412184535029e-02       1.351490139350e+00 
       8.716512279304e-02       1.269271540614e+00 
       9.027813695930e-02       1.189190905600e+00 
       9.346688431697e-02       1.113498682480e+00 
       9.673716028276e-02       1.044172040959e+00 
       1.000946150830e-01       9.827034917037e-01 
       1.035447986537e-01       9.299381132147e-01 
       1.070931966762e-01       8.859558069273e-01 
       1.107452594425e-01       8.500682710041e-01 
       1.145064249153e-01       8.208003747122e-01 
       1.183821370918e-01       7.960211403520e-01 
       1.223778605862e-01       7.731423951416e-01 
       1.264990921987e-01       7.494487044685e-01 
       1.307513701367e-01       7.225539858940e-01 
       1.351402814784e-01       6.909058993114e-01 
       1.396714684203e-01       6.541785918398e-01 
       1.443506338194e-01       6.134239568685e-01 
       1.491835465229e-01       5.708645396199e-01 
       1.541760469708e-01       5.293597673224e-01 
       1.593340535561e-01       4.917062231388e-01 
       1.646635702297e-01       4.599152197696e-01 
       1.701706958456e-01       4.347230289263e-01 
       1.758616357459e-01       4.154027603823e-01 
       1.817427160982e-01       3.999309819189e-01 
       1.878204015065e-01       3.856803555192e-01 
       1.941013164283e-01       3.698084721430e-01 
       2.005922709503e-01       3.505457198574e-01 
       2.073002914972e-01       3.280405316211e-01 
       2.142326570816e-01       3.042073669286e-01 
       2.213969417533e-01       2.816054286740e-01 
       2.288010639706e-01       2.622505362579e-01 
       2.364533437147e-01       2.469553622198e-01 
       2.443625682930e-01       2.350063085651e-01 
       2.525380679504e-01       2.244135307041e-01 
       2.609898026346e-01       2.130890611678e-01 
       2.697284615565e-01       2.000954450933e-01 
       2.787655775689e-01       1.860125372374e-01 
       2.881136588829e-01       1.725096727399e-01 
       2.977863412677e-01       1.610584198429e-01 
       3.077985646929e-01       1.517528233300e-01 
       3.181667794071e-01       1.435515443050e-01 
       3.289091877812e-01       1.351738008553e-01 
       3.400460299658e-01       1.261556698194e-01 
       3.515999236474e-01       1.171934910261e-01 
       3.635962711085e-01       1.091683555136e-01 
       3.760637506334e-01       1.023007153888e-01 
       3.890349143879e-01       9.592868200133e-02 
       4.025469216825e-01       8.949858217105e-02 
       4.166424456376e-01       8.310237155465e-02 
       4.313708035863e-01       7.720604401314e-02 
       4.467893782977e-01       7.189095386002e-02 
       4.629654199664e-01       6.685934837681e-02 
       4.799783501994e-01       6.190768587875e-02 
       4.979227319373e-01       5.721222678495e-02 
       5.169121270864e-01       5.289269946680e-02 
       5.370841404489e-01       4.875940077454e-02 
       5.586070464571e-01       4.478032092535e-02 
       5.816885094930e-01       4.104120455376e-02 
       6.065870144995e-01       3.747904034338e-02 
       6.336266468475e-01       3.406524761604e-02 
       6.632156059511e-01       3.082334225528e-02 
       6.958678639263e-01       2.771686466892e-02 
       7.322247985589e-01       2.475539118866e-02 
       7.730680195114e-01       2.192771896740e-02 
       8.193049553677e-01       1.924404745412e-02 
       8.718988016039e-01       1.671702422597e-02 
       9.317218031082e-01       1.437165404496e-02 
       9.993660908989e-01       1.223784297385e-02 
       1.075037110174e+00       1.033949299382e-02 
       1.158653485707e+00       8.686313939640e-03 
       1.250099157308e+00       7.270898618664e-03 
       1.349432401273e+00       6.071443435258e-03 
       1.456947457397e+00       5.061429295119e-03 
       1.573135111331e+00       4.213721464156e-03 
       1.698621895592e+00       3.503668776021e-03 
       1.834127512934e+00       2.909797383401e-03 
       1.980444934528e+00       2.413667471604e-03 
       2.138435191726e+00       1.999706917415e-03 
       2.309029199186e+00       1.654649967405e-03 
       2.493232377687e+00       1.367351956901e-03 
       2.692130395285e+00       1.128374627024e-03 
       2.906895534573e+00       9.297762695549e-04 
       3.138793597714e+00       7.648890112702e-04 
       3.389191366484e+00       6.281046798256e-04 
       3.659564657905e+00       5.147355170598e-04 
       3.951507022538e+00       4.208468861397e-04 
       4.266739136701e+00       3.431617697923e-04 
       4.607118943941e+00       2.789324504300e-04 
       4.974652605557e+00       2.258762424506e-04 
       5.371506324689e+00       1.820972552035e-04 
       5.800019113685e+00       1.460123593010e-04 
       6.262716579983e+00       1.163145601170e-04 
       6.762325811764e+00       9.191997050095e-05 
       7.301791451110e+00       7.193539169643e-05 
       7.884293049406e+00       5.562130667462e-05 
       8.513263807261e+00       4.236748304082e-05 
       9.192410809424e+00       3.167657926857e-05 
       9.925736873929e+00       2.313552806891e-05 
       1.071756414427e+01       1.640124663671e-05 
       1.157255956364e+01       1.118910151429e-05 
       1.249576238137e+01       7.256867875265e-06 
       1.349261385375e+01       4.393941279431e-06 
       1.456898931416e+01       2.412381268634e-06 
       1.573123280165e+01       1.139290284194e-06 
       1.698619445202e+01       4.124941138001e-07 
       1.834127087176e+01       7.952832189416e-08 
       1.980444873285e+01       8.422772653455e-11 
       2.138435184532e+01       5.199971592050e-08 
       2.309029198506e+01       1.392508660720e-07 
       2.493232377636e+01       1.990671154204e-07 
       2.692130395282e+01       2.051967228070e-07 
       2.906895534573e+01       1.635594253042e-07 
       3.138793597714e+01       1.000194468667e-07 
       3.389191366484e+01       4.341940002510e-08 
       3.659564657905e+01       1.044961176368e-08 
       3.951507022538e+01       2.993038102762e-10 
       4.266739136701e+01       1.104021519716e-09 
       4.607118943941e+01       2.135472079519e-09 
       4.974652605557e+01       8.829819051982e-10 
       5.371506324689e+01       2.294116018671e-13 
       5.800019113685e+01       5.352591812058e-10 
       6.262716579983e+01       8.551101565913e-10 
       6.762325811764e+01       3.432398513447e-10 
       7.301791451110e+01       5.715185684997e-12 
       7.884293049406e+01       4.432034493614e-11 
       8.513263807261e+01       1.798503225637e-11 
       9.192410809424e+01       4.415757811995e-12 
       9.925736873929e+01       1.141489347036e-11 
       1.071756414427e+02       8.070289291237e-14 
       1.157255956364e+02       1.887313962372e-12 
       1.249576238137e+02       5.965792922768e-15 
       1.349261385375e+02       4.424280585908e-13 
