# Matter power spectrum P(k) at redshift z=0
# for k=1.04775e-05 to 67.6233 h/Mpc,
# number of wavenumbers equal to 246
#    1:k (h/Mpc)              2:P (Mpc/h)^3        
       1.047750691338e-05       5.020964806749e+01 
       1.131335172818e-05       5.407048206553e+01 
       1.221587619877e-05       5.822819063695e+01 
       1.319039970550e-05       6.270562589672e+01 
       1.424266598317e-05       6.752731788102e+01 
       1.537887697396e-05       7.271977200258e+01 
       1.660572938097e-05       7.831147241541e+01 
       1.793045413791e-05       8.433311815128e+01 
       1.936085902737e-05       9.081778242446e+01 
       2.090537469909e-05       9.780108061340e+01 
       2.257310435923e-05       1.053213197032e+02 
       2.437387742372e-05       1.134197377001e+02 
       2.631830745176e-05       1.221408202816e+02 
       2.841785470091e-05       1.315324720916e+02 
       3.068489367268e-05       1.416462093729e+02 
       3.313278604643e-05       1.525374500691e+02 
       3.577595943165e-05       1.642660687078e+02 
       3.862999240274e-05       1.768963504868e+02 
       4.171170631739e-05       1.904975992460e+02 
       4.503926445983e-05       2.051444490305e+02 
       4.863227909323e-05       2.209171463752e+02 
       5.251192705226e-05       2.379022222314e+02 
       5.670107455699e-05       2.561927925429e+02 
       6.122441198393e-05       2.758890441791e+02 
       6.610859938837e-05       2.970989225466e+02 
       7.138242363583e-05       3.199385558200e+02 
       7.707696806873e-05       3.445329780878e+02 
       8.322579570814e-05       3.710167315928e+02 
       8.986514707061e-05       3.995346440954e+02 
       9.703415376577e-05       4.302425403884e+02 
       1.047750691338e-04       4.633080762974e+02 
       1.131335172818e-04       4.989116267507e+02 
       1.221587619877e-04       5.372471946561e+02 
       1.319039970550e-04       5.785234124630e+02 
       1.424266598317e-04       6.229645930980e+02 
       1.537887697396e-04       6.708118484951e+02 
       1.660572938097e-04       7.223242660220e+02 
       1.793045413791e-04       7.777801552840e+02 
       1.936085902737e-04       8.374783607333e+02 
       2.090537469909e-04       9.017396264495e+02 
       2.257310435923e-04       9.709080260152e+02 
       2.437387742372e-04       1.045352448644e+03 
       2.631830745176e-04       1.125468122835e+03 
       2.841785470091e-04       1.211678179511e+03 
       3.068489367268e-04       1.304435249091e+03 
       3.313278604643e-04       1.404223052541e+03 
       3.577595943165e-04       1.511558013390e+03 
       3.862999240274e-04       1.626990836483e+03 
       4.171170631739e-04       1.751108027370e+03 
       4.503926445983e-04       1.884533381345e+03 
       4.863227909323e-04       2.027929376471e+03 
       5.251192705226e-04       2.181998446367e+03 
       5.670107455699e-04       2.347484100857e+03 
       6.122441198393e-04       2.525171869336e+03 
       6.610859938837e-04       2.715889981401e+03 
       7.138242363583e-04       2.920509686092e+03 
       7.707696806873e-04       3.139945097711e+03 
       8.322579570814e-04       3.375152334397e+03 
       8.986514707061e-04       3.627127828231e+03 
       9.703415376577e-04       3.896905450016e+03 
       1.047750691338e-03       4.185552170959e+03 
       1.131335172818e-03       4.494162426791e+03 
       1.221587619877e-03       4.823850702668e+03 
       1.319039970550e-03       5.175742739281e+03 
       1.424266598317e-03       5.551019592524e+03 
       1.537887697396e-03       5.950788335877e+03 
       1.660572938097e-03       6.376123046807e+03 
       1.793045413791e-03       6.828073896123e+03 
       1.936085902737e-03       7.307625375386e+03 
       2.090537469909e-03       7.815671860187e+03 
       2.257310435923e-03       8.352990369397e+03 
       2.437387742372e-03       8.920211057532e+03 
       2.631830745176e-03       9.517783061890e+03 
       2.841785470091e-03       1.014593703671e+04 
       3.068489367268e-03       1.080464505750e+04 
       3.313278604643e-03       1.149357459544e+04 
       3.577595943165e-03       1.221203620827e+04 
       3.862999240274e-03       1.295892538505e+04 
       4.171170631739e-03       1.373266002337e+04 
       4.503926445983e-03       1.453111834595e+04 
       4.863227909323e-03       1.535154984227e+04 
       5.251192705226e-03       1.619063613436e+04 
       5.670107455699e-03       1.704431256612e+04 
       6.122441198393e-03       1.790755938457e+04 
       6.610859938837e-03       1.877460423248e+04 
       7.138242363583e-03       1.963872429096e+04 
       7.707696806873e-03       2.049215713418e+04 
       8.322579570814e-03       2.132607114813e+04 
       8.986514707061e-03       2.213055076810e+04 
       9.703415376577e-03       2.289445470792e+04 
       1.047750691338e-02       2.360548080782e+04 
       1.131335172818e-02       2.425023267587e+04 
       1.221587619877e-02       2.481423923398e+04 
       1.319039970550e-02       2.528218775136e+04 
       1.424266598317e-02       2.563814423809e+04 
       1.537887697392e-02       2.586605817342e+04 
       1.660572938023e-02       2.595027388832e+04 
       1.793045412706e-02       2.587634557229e+04 
       1.936085890181e-02       2.563218544710e+04 
       2.090537352463e-02       2.520935239294e+04 
       2.257309535333e-02       2.460443298822e+04 
       2.437382002918e-02       2.382091125537e+04 
       2.631799944462e-02       2.287042740225e+04 
       2.841644545389e-02       2.177449810208e+04 
       3.067933355377e-02       2.056556480542e+04 
       3.311368470740e-02       1.928731512921e+04 
       3.571840443502e-02       1.799399469052e+04 
       3.847720348444e-02       1.674686433445e+04 
       4.135335538431e-02       1.560460725432e+04 
       4.429361667738e-02       1.461042008211e+04 
       4.724366439141e-02       1.378052607145e+04 
       5.016480835311e-02       1.310506427760e+04 
       5.303989620246e-02       1.255715032739e+04 
       5.586870669566e-02       1.210424832235e+04 
       5.866042680613e-02       1.171463082213e+04 
       6.142798932958e-02       1.136046722672e+04 
       6.418496440164e-02       1.101858044350e+04 
       6.694418833788e-02       1.067069651358e+04 
       6.971731106057e-02       1.030359480706e+04 
       7.251476155766e-02       9.908992736850e+03 
       7.534587671527e-02       9.483787431367e+03 
       7.821907666265e-02       9.029500372692e+03 
       8.114203772912e-02       8.552346761500e+03 
       8.412184535029e-02       8.061955549246e+03 
       8.716512279304e-02       7.570766521129e+03 
       9.027813695930e-02       7.092495891669e+03 
       9.346688431697e-02       6.640520514213e+03 
       9.673716028276e-02       6.226722387465e+03 
       1.000946150830e-01       5.859936098195e+03 
       1.035447986537e-01       5.545243359980e+03 
       1.070931966762e-01       5.283133030102e+03 
       1.107452594425e-01       5.069423804669e+03 
       1.145064249153e-01       4.895255545232e+03 
       1.183821370918e-01       4.747847677582e+03 
       1.223778605862e-01       4.611735903925e+03 
       1.264990921987e-01       4.470627397379e+03 
       1.307513701367e-01       4.310269806185e+03 
       1.351402814784e-01       4.121397944226e+03 
       1.396714684203e-01       3.902072355928e+03 
       1.443506338194e-01       3.658635759493e+03 
       1.491835465229e-01       3.404483605729e+03 
       1.541760469708e-01       3.156664784822e+03 
       1.593340535561e-01       2.931976067982e+03 
       1.646635702297e-01       2.742367983413e+03 
       1.701706958456e-01       2.592258564394e+03 
       1.758616357459e-01       2.477239264771e+03 
       1.817427160982e-01       2.385176110197e+03 
       1.878204015065e-01       2.300361487067e+03 
       1.941013164283e-01       2.205760204830e+03 
       2.005922709503e-01       2.090812784144e+03 
       2.073002914972e-01       1.956462974139e+03 
       2.142326570816e-01       1.814196193654e+03 
       2.213969417533e-01       1.679297925012e+03 
       2.288010639706e-01       1.563848583335e+03 
       2.364533437147e-01       1.472687096918e+03 
       2.443625682930e-01       1.401512153683e+03 
       2.525380679504e-01       1.338410987760e+03 
       2.609898026346e-01       1.270902665623e+03 
       2.697284615565e-01       1.193382763974e+03 
       2.787655775689e-01       1.109336996235e+03 
       2.881136588829e-01       1.028773017267e+03 
       2.977863412677e-01       9.604796313740e+02 
       3.077985646929e-01       9.050281393127e+02 
       3.181667794071e-01       8.561455098327e+02 
       3.289091877812e-01       8.061891572726e+02 
       3.400460299658e-01       7.523916517867e+02 
       3.515999236474e-01       6.989238854568e+02 
       3.635962711085e-01       6.510646954491e+02 
       3.760637506334e-01       6.101238732973e+02 
       3.890349143879e-01       5.721331788097e+02 
       4.025469216825e-01       5.337818689305e+02 
       4.166424456376e-01       4.956325480801e+02 
       4.313708035863e-01       4.604691875951e+02 
       4.467893782977e-01       4.287789198423e+02 
       4.629654199664e-01       3.987737147986e+02 
       4.799783501994e-01       3.692432067952e+02 
       4.979227319373e-01       3.412407067209e+02 
       5.169121270864e-01       3.154837568207e+02 
       5.370841404489e-01       2.908363782260e+02 
       5.586070464571e-01       2.671070327844e+02 
       5.816885094930e-01       2.448098145850e+02 
       6.065870144995e-01       2.235683070261e+02 
       6.336266468475e-01       2.032107128033e+02 
       6.632156059511e-01       1.838788095140e+02 
       6.958678639263e-01       1.653548878674e+02 
       7.322247985589e-01       1.476960856103e+02 
       7.730680195114e-01       1.308342586611e+02 
       8.193049553677e-01       1.148317433534e+02 
       8.718988016039e-01       9.976272849632e+01 
       9.317218031082e-01       8.577816791138e+01 
       9.993660908989e-01       7.305496818456e+01 
       1.075037110174e+00       6.173598364913e+01 
       1.158653485707e+00       5.187943809925e+01 
       1.250099157308e+00       4.344047958089e+01 
       1.349432401273e+00       3.628956525947e+01 
       1.456947457397e+00       3.026817743567e+01 
       1.573135111331e+00       2.521461415216e+01 
       1.698621895592e+00       2.098201238847e+01 
       1.834127512934e+00       1.744252880252e+01 
       1.980444934528e+00       1.448571359516e+01 
       2.138435191726e+00       1.201902909940e+01 
       2.309029199186e+00       9.963197950625e+00 
       2.493232377687e+00       8.251855067135e+00 
       2.692130395285e+00       6.828661497916e+00 
       2.906895534573e+00       5.646285985240e+00 
       3.138793597714e+00       4.664878797861e+00 
       3.389191366484e+00       3.851117493046e+00 
       3.659564657905e+00       3.176956016995e+00 
       3.951507022538e+00       2.618890992928e+00 
       4.266739136701e+00       2.157346462777e+00 
       4.607118943941e+00       1.775936115992e+00 
       4.974652605557e+00       1.460995107369e+00 
       5.371506324689e+00       1.201127113006e+00 
       5.800019113685e+00       9.868742467600e-01 
       6.262716579983e+00       8.103554791261e-01 
       6.762325811764e+00       6.650082044322e-01 
       7.301791451110e+00       5.454304604321e-01 
       7.884293049406e+00       4.471010971583e-01 
       8.513263807261e+00       3.663022400274e-01 
       9.192410809424e+00       2.999430588262e-01 
       9.925736873929e+00       2.454803822046e-01 
       1.071756414427e+01       2.008065039322e-01 
       1.157255956364e+01       1.641850863869e-01 
       1.249576238137e+01       1.341767969333e-01 
       1.349261385375e+01       1.096026778603e-01 
       1.456898931416e+01       8.948954943016e-02 
       1.573123280165e+01       7.303355193209e-02 
       1.698619445202e+01       5.957794761071e-02 
       1.834127087176e+01       4.858127123826e-02 
       1.980444873285e+01       3.959704415792e-02 
       2.138435184532e+01       3.226103737769e-02 
       2.309029198506e+01       2.627362384120e-02 
       2.493232377636e+01       2.138829664721e-02 
       2.692130395282e+01       1.740468278240e-02 
       2.906895534573e+01       1.415734448939e-02 
       3.138793597714e+01       1.151117893511e-02 
       3.389191366484e+01       9.356043719990e-03 
       3.659564657905e+01       7.601162190314e-03 
       3.951507022538e+01       6.173003997693e-03 
       4.266739136701e+01       5.011028864513e-03 
       4.607118943941e+01       4.066062656627e-03 
       4.974652605557e+01       3.297901895177e-03 
       5.371506324689e+01       2.673641946526e-03 
       5.800019113685e+01       2.166456850747e-03 
       6.262716579983e+01       1.754643411712e-03 
       6.762325811764e+01       1.420365559496e-03 
