# Matter power spectrum P(k) at redshift z=99
# for k=1.04775e-05 to 134.926 h/Mpc,
# number of wavenumbers equal to 255
#    1:k (h/Mpc)              2:P (Mpc/h)^3        
       1.047750691338e-05       7.261927095222e-03 
       1.131335172818e-05       7.820332150687e-03 
       1.221587619877e-05       8.421675382257e-03 
       1.319039970550e-05       9.069257737924e-03 
       1.424266598317e-05       9.766636451041e-03 
       1.537887697396e-05       1.051763973632e-02 
       1.660572938097e-05       1.132639250742e-02 
       1.793045413791e-05       1.219733201498e-02 
       1.936085902737e-05       1.313524187192e-02 
       2.090537469909e-05       1.414527084966e-02 
       2.257310435923e-05       1.523296544480e-02 
       2.437387742372e-05       1.640429654628e-02 
       2.631830745176e-05       1.766569603273e-02 
       2.841785470091e-05       1.902408711148e-02 
       3.068489367268e-05       2.048692967429e-02 
       3.313278604643e-05       2.206225467533e-02 
       3.577595943165e-05       2.375870883836e-02 
       3.862999240274e-05       2.558560669804e-02 
       4.171170631739e-05       2.755297672489e-02 
       4.503926445983e-05       2.967161933393e-02 
       4.863227909323e-05       3.195316455634e-02 
       5.251192705226e-05       3.441013466111e-02 
       5.670107455699e-05       3.705601741677e-02 
       6.122441198393e-05       3.990533412809e-02 
       6.610859938837e-05       4.297372242502e-02 
       7.138242363583e-05       4.627802054820e-02 
       7.707696806873e-05       4.983636159853e-02 
       8.322579570814e-05       5.366826786897e-02 
       8.986514707061e-05       5.779476319694e-02 
       9.703415376577e-05       6.223848221794e-02 
       1.047750691338e-04       6.702379824976e-02 
       1.131335172818e-04       7.217695031031e-02 
       1.221587619877e-04       7.772619030310e-02 
       1.319039970550e-04       8.370193379986e-02 
       1.424266598317e-04       9.013692506609e-02 
       1.537887697396e-04       9.706641130337e-02 
       1.660572938097e-04       1.045283343104e-01 
       1.793045413791e-04       1.125635329179e-01 
       1.936085902737e-04       1.212159592302e-01 
       2.090537469909e-04       1.305329107428e-01 
       2.257310435923e-04       1.405652819353e-01 
       2.437387742372e-04       1.513678275068e-01 
       2.631830745176e-04       1.629994475125e-01 
       2.841785470091e-04       1.755234890470e-01 
       3.068489367268e-04       1.890080645291e-01 
       3.313278604643e-04       2.035263977423e-01 
       3.577595943165e-04       2.191571778036e-01 
       3.862999240274e-04       2.359849423251e-01 
       4.171170631739e-04       2.541004712993e-01 
       4.503926445983e-04       2.736012061149e-01 
       4.863227909323e-04       2.945916774633e-01 
       5.251192705226e-04       3.171839507854e-01 
       5.670107455699e-04       3.414980769098e-01 
       6.122441198393e-04       3.676625416290e-01 
       6.610859938837e-04       3.958147272854e-01 
       7.138242363583e-04       4.261013332054e-01 
       7.707696806873e-04       4.586787880839e-01 
       8.322579570814e-04       4.937136112811e-01 
       8.986514707061e-04       5.313826962067e-01 
       9.703415376577e-04       5.718735176795e-01 
       1.047750691338e-03       6.153841926242e-01 
       1.131335172818e-03       6.621233623116e-01 
       1.221587619877e-03       7.123098743649e-01 
       1.319039970550e-03       7.661721263785e-01 
       1.424266598317e-03       8.239547181303e-01 
       1.537887697396e-03       8.859012282822e-01 
       1.660572938097e-03       9.522589495762e-01 
       1.793045413791e-03       1.023280284738e+00 
       1.936085902737e-03       1.099216542130e+00 
       2.090537469909e-03       1.180313285064e+00 
       2.257310435923e-03       1.266804486839e+00 
       2.437387742372e-03       1.358905328499e+00 
       2.631830745176e-03       1.456803285991e+00 
       2.841785470091e-03       1.560647663084e+00 
       3.068489367268e-03       1.670537010631e+00 
       3.313278604643e-03       1.786505039701e+00 
       3.577595943165e-03       1.908504410189e+00 
       3.862999240274e-03       2.036389468839e+00 
       4.171170631739e-03       2.169898252894e+00 
       4.503926445983e-03       2.308634492071e+00 
       4.863227909323e-03       2.452050674888e+00 
       5.251192705226e-03       2.599434681255e+00 
       5.670107455699e-03       2.749901126594e+00 
       6.122441198393e-03       2.902390058465e+00 
       6.610859938837e-03       3.055671269972e+00 
       7.138242363583e-03       3.208360122992e+00 
       7.707696806873e-03       3.358926651510e+00 
       8.322579570814e-03       3.505726890025e+00 
       8.986514707061e-03       3.647012438012e+00 
       9.703415376577e-03       3.780926179521e+00 
       1.047750691338e-02       3.905492880872e+00 
       1.131335172818e-02       4.018589826232e+00 
       1.221587619877e-02       4.117902888971e+00 
       1.319039970550e-02       4.200917700522e+00 
       1.424266598317e-02       4.264943704345e+00 
       1.537887697392e-02       4.307219700498e+00 
       1.660572938023e-02       4.325062389301e+00 
       1.793045412706e-02       4.316060355486e+00 
       1.936085890181e-02       4.278228805983e+00 
       2.090537352463e-02       4.210204469295e+00 
       2.257309535333e-02       4.111418741453e+00 
       2.437382002918e-02       3.982420925107e+00 
       2.631799944462e-02       3.825168667574e+00 
       2.841644545389e-02       3.643282220141e+00 
       3.067933355377e-02       3.442198669121e+00 
       3.311368470740e-02       3.229241551695e+00 
       3.571840443502e-02       3.013516273017e+00 
       3.847720348444e-02       2.805283868305e+00 
       4.135335538431e-02       2.614410577086e+00 
       4.429361667738e-02       2.448132080400e+00 
       4.724366439141e-02       2.309240529967e+00 
       5.016480835311e-02       2.196115063184e+00 
       5.303989620246e-02       2.104369714954e+00 
       5.586870669566e-02       2.028462438469e+00 
       5.866042680613e-02       1.963155151543e+00 
       6.142798932958e-02       1.903779518145e+00 
       6.418496440164e-02       1.846479550086e+00 
       6.694418833788e-02       1.788198002425e+00 
       6.971731106057e-02       1.726716137450e+00 
       7.251476155766e-02       1.660654792098e+00 
       7.534587671527e-02       1.589470325133e+00 
       7.821907666265e-02       1.513437109756e+00 
       8.114203772912e-02       1.433569286111e+00 
       8.412184535029e-02       1.351492676307e+00 
       8.716512279304e-02       1.269273399365e+00 
       9.027813695930e-02       1.189192838500e+00 
       9.346688431697e-02       1.113500765702e+00 
       9.673716028276e-02       1.044174078219e+00 
       1.000946150830e-01       9.827055824947e-01 
       1.035447986537e-01       9.299370505517e-01 
       1.070931966762e-01       8.859580370715e-01 
       1.107452594425e-01       8.500706835263e-01 
       1.145064249153e-01       8.208028906575e-01 
       1.183821370918e-01       7.960237281879e-01 
       1.223778605862e-01       7.731450381911e-01 
       1.264990921987e-01       7.494512973535e-01 
       1.307513701367e-01       7.225563075501e-01 
       1.351402814784e-01       6.909076091617e-01 
       1.396714684203e-01       6.541798274774e-01 
       1.443506338194e-01       6.134253393633e-01 
       1.491835465229e-01       5.708664726311e-01 
       1.541760469708e-01       5.293630991748e-01 
       1.593340535561e-01       4.917096161350e-01 
       1.646635702297e-01       4.599184718535e-01 
       1.701706958456e-01       4.347264700264e-01 
       1.758616357459e-01       4.154066566660e-01 
       1.817427160982e-01       3.999353234185e-01 
       1.878204015065e-01       3.856808048750e-01 
       1.941013164283e-01       3.698073873148e-01 
       2.005922709503e-01       3.505443824659e-01 
       2.073002914972e-01       3.280409543206e-01 
       2.142326570816e-01       3.042113379340e-01 
       2.213969417533e-01       2.816100329038e-01 
       2.288010639706e-01       2.622546833453e-01 
       2.364533437147e-01       2.469595469022e-01 
       2.443625682930e-01       2.350103605819e-01 
       2.525380679504e-01       2.244150254219e-01 
       2.609898026346e-01       2.130909754153e-01 
       2.697284615565e-01       2.000988322382e-01 
       2.787655775689e-01       1.860169420337e-01 
       2.881136588829e-01       1.725141812216e-01 
       2.977863412677e-01       1.610626387089e-01 
       3.077985646929e-01       1.517576714763e-01 
       3.181667794071e-01       1.435558790532e-01 
       3.289091877812e-01       1.351779426361e-01 
       3.400460299658e-01       1.261603444552e-01 
       3.515999236474e-01       1.171977749467e-01 
       3.635962711085e-01       1.091730300403e-01 
       3.760637506334e-01       1.023054734734e-01 
       3.890349143879e-01       9.593334677052e-02 
       4.025469216825e-01       8.950310782704e-02 
       4.166424456376e-01       8.310711846067e-02 
       4.313708035863e-01       7.721086161275e-02 
       4.467893782977e-01       7.189572124311e-02 
       4.629654199664e-01       6.686402496359e-02 
       4.799783501994e-01       6.191229883949e-02 
       4.979227319373e-01       5.721680591293e-02 
       5.169121270864e-01       5.289728815916e-02 
       5.370841404489e-01       4.876395881538e-02 
       5.586070464571e-01       4.478484399790e-02 
       5.816885094930e-01       4.104569276190e-02 
       6.065870144995e-01       3.748350613555e-02 
       6.336266468475e-01       3.406966178822e-02 
       6.632156059511e-01       3.082770705544e-02 
       6.958678639263e-01       2.772114289007e-02 
       7.322247985589e-01       2.475965893414e-02 
       7.730680195114e-01       2.193175020156e-02 
       8.193049553677e-01       1.924800198767e-02 
       8.718988016039e-01       1.672072102770e-02 
       9.317218031082e-01       1.437523403023e-02 
       9.993660908989e-01       1.224122645095e-02 
       1.075037110174e+00       1.034262734216e-02 
       1.158653485707e+00       8.689204190635e-03 
       1.250099157308e+00       7.273467648039e-03 
       1.349432401273e+00       6.073723837350e-03 
       1.456947457397e+00       5.063384305879e-03 
       1.573135111331e+00       4.215311488033e-03 
       1.698621895592e+00       3.504875703917e-03 
       1.834127512934e+00       2.910617648787e-03 
       1.980444934528e+00       2.414097929957e-03 
       2.138435191726e+00       1.999715209341e-03 
       2.309029199186e+00       1.654239008188e-03 
       2.493232377687e+00       1.366512926863e-03 
       2.692130395285e+00       1.127094351269e-03 
       2.906895534573e+00       9.280672845555e-04 
       3.138793597714e+00       7.627468968973e-04 
       3.389191366484e+00       6.255448568242e-04 
       3.659564657905e+00       5.117685207948e-04 
       3.951507022538e+00       4.174953234311e-04 
       4.266739136701e+00       3.394457049837e-04 
       4.607118943941e+00       2.748898854459e-04 
       4.974652605557e+00       2.215465425362e-04 
       5.371506324689e+00       1.775247716576e-04 
       5.800019113685e+00       1.412531794407e-04 
       6.262716579983e+00       1.114304103181e-04 
       6.762325811764e+00       8.697981050702e-05 
       7.301791451110e+00       6.701523486676e-05 
       7.884293049406e+00       5.080027677767e-05 
       8.513263807261e+00       3.773304257136e-05 
       9.192410809424e+00       2.730938131706e-05 
       9.925736873929e+00       1.911667787280e-05 
       1.071756414427e+01       1.280646586638e-05 
       1.157255956364e+01       8.080952269960e-06 
       1.249576238137e+01       4.682559866286e-06 
       1.349261385375e+01       2.380313317522e-06 
       1.456898931416e+01       9.630149037864e-07 
       1.573123280165e+01       2.327014554493e-07 
       1.698619445202e+01       2.466959981643e-09 
       1.834127087176e+01       9.771657704147e-08 
       1.980444873285e+01       3.607185209320e-07 
       2.138435184532e+01       6.577738601761e-07 
       2.309029198506e+01       8.880320062571e-07 
       2.493232377636e+01       9.910367757823e-07 
       2.692130395282e+01       9.499208293256e-07 
       2.906895534573e+01       7.882955998009e-07 
       3.138793597714e+01       5.586152215356e-07 
       3.389191366484e+01       3.245188549420e-07 
       3.659564657905e+01       1.400061741294e-07 
       3.951507022538e+01       3.314917922373e-08 
       4.266739136701e+01       1.894591559283e-10 
       4.607118943941e+01       1.293328660253e-08 
       4.974652605557e+01       3.598922465405e-08 
       5.371506324689e+01       4.492596966615e-08 
       5.800019113685e+01       3.511611856294e-08 
       6.262716579983e+01       1.714930353271e-08 
       6.762325811764e+01       3.895606808917e-09 
       7.301791451110e+01       1.856305592903e-12 
       7.884293049406e+01       1.435068694686e-09 
       8.513263807261e+01       2.509217646466e-09 
       9.192410809424e+01       1.585620130521e-09 
       9.925736873929e+01       3.412275522781e-10 
       1.071756414427e+02       1.717343760668e-12 
       1.157255956364e+02       1.285318163393e-10 
       1.249576238137e+02       1.142495285050e-10 
       1.349261385375e+02       1.908719323119e-11 
