# Matter power spectrum P(k) at redshift z=99
# for k=1.04775e-05 to 134.926 h/Mpc,
# number of wavenumbers equal to 255
#    1:k (h/Mpc)              2:P (Mpc/h)^3        
       1.047750691338e-05       7.261927095260e-03 
       1.131335172818e-05       7.820332150728e-03 
       1.221587619877e-05       8.421675382301e-03 
       1.319039970550e-05       9.069257737971e-03 
       1.424266598317e-05       9.766636451092e-03 
       1.537887697396e-05       1.051763973637e-02 
       1.660572938097e-05       1.132639250748e-02 
       1.793045413791e-05       1.219733201504e-02 
       1.936085902737e-05       1.313524187199e-02 
       2.090537469909e-05       1.414527084973e-02 
       2.257310435923e-05       1.523296544488e-02 
       2.437387742372e-05       1.640429654636e-02 
       2.631830745176e-05       1.766569603282e-02 
       2.841785470091e-05       1.902408711158e-02 
       3.068489367268e-05       2.048692967440e-02 
       3.313278604643e-05       2.206225467544e-02 
       3.577595943165e-05       2.375870883848e-02 
       3.862999240274e-05       2.558560669818e-02 
       4.171170631739e-05       2.755297672503e-02 
       4.503926445983e-05       2.967161933408e-02 
       4.863227909323e-05       3.195316455651e-02 
       5.251192705226e-05       3.441013466129e-02 
       5.670107455699e-05       3.705601741697e-02 
       6.122441198393e-05       3.990533412830e-02 
       6.610859938837e-05       4.297372242525e-02 
       7.138242363583e-05       4.627802054849e-02 
       7.707696806873e-05       4.983636159879e-02 
       8.322579570814e-05       5.366826786925e-02 
       8.986514707061e-05       5.779476319724e-02 
       9.703415376577e-05       6.223848221826e-02 
       1.047750691338e-04       6.702379825011e-02 
       1.131335172818e-04       7.217695031066e-02 
       1.221587619877e-04       7.772619030350e-02 
       1.319039970550e-04       8.370193380034e-02 
       1.424266598317e-04       9.013692506655e-02 
       1.537887697396e-04       9.706641130387e-02 
       1.660572938097e-04       1.045283343110e-01 
       1.793045413791e-04       1.125635329184e-01 
       1.936085902737e-04       1.212159592309e-01 
       2.090537469909e-04       1.305329107435e-01 
       2.257310435923e-04       1.405652819360e-01 
       2.437387742372e-04       1.513678275076e-01 
       2.631830745176e-04       1.629994475133e-01 
       2.841785470091e-04       1.755234890479e-01 
       3.068489367268e-04       1.890080645300e-01 
       3.313278604643e-04       2.035263977433e-01 
       3.577595943165e-04       2.191571778047e-01 
       3.862999240274e-04       2.359849423263e-01 
       4.171170631739e-04       2.541004713005e-01 
       4.503926445983e-04       2.736012061163e-01 
       4.863227909323e-04       2.945916774648e-01 
       5.251192705226e-04       3.171839507869e-01 
       5.670107455699e-04       3.414980769114e-01 
       6.122441198393e-04       3.676625416307e-01 
       6.610859938837e-04       3.958147272872e-01 
       7.138242363583e-04       4.261013332073e-01 
       7.707696806873e-04       4.586787880859e-01 
       8.322579570814e-04       4.937136112832e-01 
       8.986514707061e-04       5.313826962088e-01 
       9.703415376577e-04       5.718735176817e-01 
       1.047750691338e-03       6.153841926265e-01 
       1.131335172818e-03       6.621233623139e-01 
       1.221587619877e-03       7.123098743671e-01 
       1.319039970550e-03       7.661721263805e-01 
       1.424266598317e-03       8.239547181322e-01 
       1.537887697396e-03       8.859012282837e-01 
       1.660572938097e-03       9.522589495771e-01 
       1.793045413791e-03       1.023280284738e+00 
       1.936085902737e-03       1.099216542128e+00 
       2.090537469909e-03       1.180313285060e+00 
       2.257310435923e-03       1.266804486832e+00 
       2.437387742372e-03       1.358905328487e+00 
       2.631830745176e-03       1.456803285973e+00 
       2.841785470091e-03       1.560647663057e+00 
       3.068489367268e-03       1.670537010591e+00 
       3.313278604643e-03       1.786505039643e+00 
       3.577595943165e-03       1.908504410107e+00 
       3.862999240274e-03       2.036389468723e+00 
       4.171170631739e-03       2.169898252731e+00 
       4.503926445983e-03       2.308634491844e+00 
       4.863227909323e-03       2.452050674568e+00 
       5.251192705226e-03       2.599434680812e+00 
       5.670107455699e-03       2.749901125971e+00 
       6.122441198393e-03       2.902390057602e+00 
       6.610859938837e-03       3.055671268784e+00 
       7.138242363583e-03       3.208360196296e+00 
       7.707696806873e-03       3.358926634186e+00 
       8.322579570814e-03       3.505728057541e+00 
       8.986514707061e-03       3.647012777976e+00 
       9.703415376577e-03       3.780926135134e+00 
       1.047750691338e-02       3.905492866528e+00 
       1.131335172818e-02       4.018589856005e+00 
       1.221587619877e-02       4.117902877757e+00 
       1.319039970550e-02       4.200917673637e+00 
       1.424266598317e-02       4.264943705885e+00 
       1.537887697392e-02       4.307219593581e+00 
       1.660572938023e-02       4.325062336805e+00 
       1.793045412706e-02       4.316060296092e+00 
       1.936085890181e-02       4.278228763714e+00 
       2.090537352463e-02       4.210204410920e+00 
       2.257309535333e-02       4.111418605767e+00 
       2.437382002918e-02       3.982420735782e+00 
       2.631799944462e-02       3.825168415729e+00 
       2.841644545389e-02       3.643281909627e+00 
       3.067933355377e-02       3.442198275694e+00 
       3.311368470740e-02       3.229241059263e+00 
       3.571840443502e-02       3.013515667344e+00 
       3.847720348444e-02       2.805283130812e+00 
       4.135335538431e-02       2.614409690374e+00 
       4.429361667738e-02       2.448131031945e+00 
       4.724366439141e-02       2.309239308003e+00 
       5.016480835311e-02       2.196113658999e+00 
       5.303989620246e-02       2.104368121252e+00 
       5.586870669566e-02       2.028460615725e+00 
       5.866042680613e-02       1.963153090327e+00 
       6.142798932958e-02       1.903777246592e+00 
       6.418496440164e-02       1.846476505348e+00 
       6.694418833788e-02       1.788194525707e+00 
       6.971731106057e-02       1.726713182968e+00 
       7.251476155766e-02       1.660651601244e+00 
       7.534587671527e-02       1.589466890536e+00 
       7.821907666265e-02       1.513433424741e+00 
       8.114203772912e-02       1.433565346649e+00 
       8.412184535029e-02       1.351488474823e+00 
       8.716512279304e-02       1.269268964359e+00 
       9.027813695930e-02       1.189188148756e+00 
       9.346688431697e-02       1.113495732992e+00 
       9.673716028276e-02       1.044168841226e+00 
       1.000946150830e-01       9.827000447397e-01 
       1.035447986537e-01       9.299358476625e-01 
       1.070931966762e-01       8.859518803175e-01 
       1.107452594425e-01       8.500641024501e-01 
       1.145064249153e-01       8.207958715585e-01 
       1.183821370918e-01       7.960162593145e-01 
       1.223778605862e-01       7.731370967934e-01 
       1.264990921987e-01       7.494431146974e-01 
       1.307513701367e-01       7.225473768287e-01 
       1.351402814784e-01       6.908981819375e-01 
       1.396714684203e-01       6.541699158923e-01 
       1.443506338194e-01       6.134149045119e-01 
       1.491835465229e-01       5.708556658144e-01 
       1.541760469708e-01       5.293506131864e-01 
       1.593340535561e-01       4.916978307361e-01 
       1.646635702297e-01       4.599061719788e-01 
       1.701706958456e-01       4.347135812872e-01 
       1.758616357459e-01       4.153931053085e-01 
       1.817427160982e-01       3.999209429647e-01 
       1.878204015065e-01       3.856656967107e-01 
       1.941013164283e-01       3.697915054400e-01 
       2.005922709503e-01       3.505277857503e-01 
       2.073002914972e-01       3.280236735024e-01 
       2.142326570816e-01       3.041937249543e-01 
       2.213969417533e-01       2.815915322873e-01 
       2.288010639706e-01       2.622354500168e-01 
       2.364533437147e-01       2.469395245708e-01 
       2.443625682930e-01       2.349893991667e-01 
       2.525380679504e-01       2.243932468205e-01 
       2.609898026346e-01       2.130680184337e-01 
       2.697284615565e-01       2.000749241667e-01 
       2.787655775689e-01       1.859922460369e-01 
       2.881136588829e-01       1.724887066350e-01 
       2.977863412677e-01       1.610364432419e-01 
       3.077985646929e-01       1.517301021249e-01 
       3.181667794071e-01       1.435273173761e-01 
       3.289091877812e-01       1.351482035818e-01 
       3.400460299658e-01       1.261298924078e-01 
       3.515999236474e-01       1.171662359131e-01 
       3.635962711085e-01       1.091400379243e-01 
       3.760637506334e-01       1.022713027289e-01 
       3.890349143879e-01       9.589799237496e-02 
       4.025469216825e-01       8.946654482294e-02 
       4.166424456376e-01       8.306922147875e-02 
       4.313708035863e-01       7.717158674865e-02 
       4.467893782977e-01       7.185500626908e-02 
       4.629654199664e-01       6.682193858760e-02 
       4.799783501994e-01       6.186880234992e-02 
       4.979227319373e-01       5.717191805667e-02 
       5.169121270864e-01       5.285064916802e-02 
       5.370841404489e-01       4.871562280999e-02 
       5.586070464571e-01       4.473475856109e-02 
       5.816885094930e-01       4.099365515363e-02 
       6.065870144995e-01       3.742946700053e-02 
       6.336266468475e-01       3.401345534925e-02 
       6.632156059511e-01       3.076922821972e-02 
       6.958678639263e-01       2.766020627452e-02 
       7.322247985589e-01       2.469604906221e-02 
       7.730680195114e-01       2.186527050813e-02 
       8.193049553677e-01       1.917821695972e-02 
       8.718988016039e-01       1.664741243416e-02 
       9.317218031082e-01       1.429797930682e-02 
       9.993660908989e-01       1.215974299399e-02 
       1.075037110174e+00       1.025666146997e-02 
       1.158653485707e+00       8.598489762048e-03 
       1.250099157308e+00       7.177927214707e-03 
       1.349432401273e+00       5.973263400123e-03 
       1.456947457397e+00       4.957929567534e-03 
       1.573135111331e+00       4.104910989395e-03 
       1.698621895592e+00       3.389639801630e-03 
       1.834127512934e+00       2.790682024138e-03 
       1.980444934528e+00       2.289671143545e-03 
       2.138435191726e+00       1.871098200390e-03 
       2.309029199186e+00       1.521821452636e-03 
       2.493232377687e+00       1.230804825150e-03 
       2.692130395285e+00       9.887042146950e-04 
       2.906895534573e+00       7.877570857381e-04 
       3.138793597714e+00       6.214017788154e-04 
       3.389191366484e+00       4.842238526559e-04 
       3.659564657905e+00       3.716607093207e-04 
       3.951507022538e+00       2.799397350197e-04 
       4.266739136701e+00       2.059149306398e-04 
       4.607118943941e+00       1.469476755936e-04 
       4.974652605557e+00       1.008146395860e-04 
       5.371506324689e+00       6.561843841654e-05 
       5.800019113685e+00       3.968919312697e-05 
       6.262716579983e+00       2.154037101536e-05 
       6.762325811764e+00       9.792336814869e-06 
       7.301791451110e+00       3.140078724398e-06 
       7.884293049406e+00       3.364187327456e-07 
       8.513263807261e+00       1.892981936135e-07 
       9.192410809424e+00       1.591882380395e-06 
       9.925736873929e+00       3.570521309766e-06 
       1.071756414427e+01       5.346330757339e-06 
       1.157255956364e+01       6.395081321111e-06 
       1.249576238137e+01       6.483678676625e-06 
       1.349261385375e+01       5.674157778228e-06 
       1.456898931416e+01       4.263444441485e-06 
       1.573123280165e+01       2.667776278059e-06 
       1.698619445202e+01       1.291946691908e-06 
       1.834127087176e+01       3.963948262377e-07 
       1.980444873285e+01       2.799706025734e-08 
       2.138435184532e+01       4.070374689685e-08 
       2.309029198506e+01       1.966225109279e-07 
       2.493232377636e+01       2.961734565666e-07 
       2.692130395282e+01       2.649928422549e-07 
       2.906895534573e+01       1.508615619594e-07 
       3.138793597714e+01       4.589530539878e-08 
       3.389191366484e+01       2.035931444710e-09 
       3.659564657905e+01       5.782268852759e-09 
       3.951507022538e+01       1.637034958187e-08 
       4.266739136701e+01       1.331893356779e-08 
       4.607118943941e+01       4.150658147179e-09 
       4.974652605557e+01       7.722647226453e-11 
       5.371506324689e+01       6.502401324349e-10 
       5.800019113685e+01       9.369080668682e-10 
       6.262716579983e+01       2.689662145909e-10 
       6.762325811764e+01       1.405928645564e-13 
       7.301791451110e+01       6.035660761673e-11 
       7.884293049406e+01       3.084086882345e-11 
       8.513263807261e+01       6.960880962722e-14 
       9.192410809424e+01       3.502153526079e-12 
       9.925736873929e+01       5.863286020672e-13 
       1.071756414427e+02       2.863750204447e-13 
       1.157255956364e+02       3.309849543007e-13 
       1.249576238137e+02       7.441164240576e-14 
       1.349261385375e+02       6.925316433548e-14 
