# Matter power spectrum P(k) at redshift z=0
# for k=1.04775e-05 to 134.926 h/Mpc,
# number of wavenumbers equal to 255
#    1:k (h/Mpc)              2:P (Mpc/h)^3        
       1.047750691338e-05       5.020963906805e+01 
       1.131335172818e-05       5.407048937141e+01 
       1.221587619877e-05       5.822820724051e+01 
       1.319039970550e-05       6.270562047204e+01 
       1.424266598317e-05       6.752731476078e+01 
       1.537887697396e-05       7.271975715413e+01 
       1.660572938097e-05       7.831147101153e+01 
       1.793045413791e-05       8.433312301958e+01 
       1.936085902737e-05       9.081780130657e+01 
       2.090537469909e-05       9.780107477921e+01 
       2.257310435923e-05       1.053212938598e+02 
       2.437387742372e-05       1.134197268470e+02 
       2.631830745176e-05       1.221408285763e+02 
       2.841785470091e-05       1.315324590476e+02 
       3.068489367268e-05       1.416461664195e+02 
       3.313278604643e-05       1.525374478560e+02 
       3.577595943165e-05       1.642660517999e+02 
       3.862999240274e-05       1.768963429068e+02 
       4.171170631739e-05       1.904975997713e+02 
       4.503926445983e-05       2.051444243235e+02 
       4.863227909323e-05       2.209171412012e+02 
       5.251192705226e-05       2.379022266251e+02 
       5.670107455699e-05       2.561927841741e+02 
       6.122441198393e-05       2.758890478448e+02 
       6.610859938837e-05       2.970989214423e+02 
       7.138242363583e-05       3.199385559933e+02 
       7.707696806873e-05       3.445329727000e+02 
       8.322579570814e-05       3.710167323880e+02 
       8.986514707061e-05       3.995346444184e+02 
       9.703415376577e-05       4.302425389353e+02 
       1.047750691338e-04       4.633080773480e+02 
       1.131335172818e-04       4.989116272697e+02 
       1.221587619877e-04       5.372471939118e+02 
       1.319039970550e-04       5.785234123014e+02 
       1.424266598317e-04       6.229645932079e+02 
       1.537887697396e-04       6.708118490687e+02 
       1.660572938097e-04       7.223242658894e+02 
       1.793045413791e-04       7.777801568313e+02 
       1.936085902737e-04       8.374783640816e+02 
       2.090537469909e-04       9.017396288387e+02 
       2.257310435923e-04       9.709080297682e+02 
       2.437387742372e-04       1.045352453260e+03 
       2.631830745176e-04       1.125468127738e+03 
       2.841785470091e-04       1.211678185951e+03 
       3.068489367268e-04       1.304435256025e+03 
       3.313278604643e-04       1.404223062840e+03 
       3.577595943165e-04       1.511558029576e+03 
       3.862999240274e-04       1.626990852551e+03 
       4.171170631739e-04       1.751108045589e+03 
       4.503926445983e-04       1.884533404727e+03 
       4.863227909323e-04       2.027929406951e+03 
       5.251192705226e-04       2.181998483889e+03 
       5.670107455699e-04       2.347484146049e+03 
       6.122441198393e-04       2.525171925149e+03 
       6.610859938837e-04       2.715890054910e+03 
       7.138242363583e-04       2.920509779235e+03 
       7.707696806873e-04       3.139945207911e+03 
       8.322579570814e-04       3.375152476809e+03 
       8.986514707061e-04       3.627128020170e+03 
       9.703415376577e-04       3.896905669171e+03 
       1.047750691338e-03       4.185552452027e+03 
       1.131335172818e-03       4.494162774706e+03 
       1.221587619877e-03       4.823851149354e+03 
       1.319039970550e-03       5.175743276941e+03 
       1.424266598317e-03       5.551020296008e+03 
       1.537887697396e-03       5.950789181320e+03 
       1.660572938097e-03       6.376124143771e+03 
       1.793045413791e-03       6.828075227079e+03 
       1.936085902737e-03       7.307627036776e+03 
       2.090537469909e-03       7.815673937752e+03 
       2.257310435923e-03       8.352992891405e+03 
       2.437387742372e-03       8.920214259362e+03 
       2.631830745176e-03       9.517787098521e+03 
       2.841785470091e-03       1.014594120707e+04 
       3.068489367268e-03       1.080465125091e+04 
       3.313278604643e-03       1.149358207647e+04 
       3.577595943165e-03       1.221204568530e+04 
       3.862999240274e-03       1.295893692044e+04 
       4.171170631739e-03       1.373267439199e+04 
       4.503926445983e-03       1.453113554745e+04 
       4.863227909323e-03       1.535157006265e+04 
       5.251192705226e-03       1.619066081061e+04 
       5.670107455699e-03       1.704433548578e+04 
       6.122441198393e-03       1.790757791903e+04 
       6.610859938837e-03       1.877461947655e+04 
       7.138242363583e-03       1.963873773940e+04 
       7.707696806873e-03       2.049216411481e+04 
       8.322579570814e-03       2.132607519038e+04 
       8.986514707061e-03       2.213055197902e+04 
       9.703415376577e-03       2.289444871797e+04 
       1.047750691338e-02       2.360546330081e+04 
       1.131335172818e-02       2.425019857845e+04 
       1.221587619877e-02       2.481418951690e+04 
       1.319039970550e-02       2.528212231196e+04 
       1.424266598317e-02       2.563804775556e+04 
       1.537887697392e-02       2.586593829057e+04 
       1.660572938023e-02       2.595008877863e+04 
       1.793045412706e-02       2.587611533844e+04 
       1.936085890181e-02       2.563188520785e+04 
       2.090537352463e-02       2.520895249726e+04 
       2.257309535333e-02       2.460392669920e+04 
       2.437382002918e-02       2.382021109970e+04 
       2.631799944462e-02       2.286958789000e+04 
       2.841644545389e-02       2.177342177080e+04 
       3.067933355377e-02       2.056421463904e+04 
       3.311368470740e-02       1.928561478037e+04 
       3.571840443502e-02       1.799193903768e+04 
       3.847720348444e-02       1.674437785591e+04 
       4.135335538431e-02       1.560170616835e+04 
       4.429361667738e-02       1.460693571431e+04 
       4.724366439141e-02       1.377654698828e+04 
       5.016480835311e-02       1.310057379735e+04 
       5.303989620246e-02       1.255212043422e+04 
       5.586870669566e-02       1.209862357314e+04 
       5.866042680613e-02       1.170846840726e+04 
       6.142798932958e-02       1.135369298839e+04 
       6.418496440164e-02       1.101123098222e+04 
       6.694418833788e-02       1.066280614590e+04 
       6.971731106057e-02       1.029508648359e+04 
       7.251476155766e-02       9.899931116994e+03 
       7.534587671527e-02       9.474120380561e+03 
       7.821907666265e-02       9.019262896074e+03 
       8.114203772912e-02       8.541509530626e+03 
       8.412184535029e-02       8.050540136857e+03 
       8.716512279304e-02       7.558802263541e+03 
       9.027813695930e-02       7.079949725617e+03 
       9.346688431697e-02       6.627366284992e+03 
       9.673716028276e-02       6.212924006843e+03 
       1.000946150830e-01       5.845512910301e+03 
       1.035447986537e-01       5.530105112474e+03 
       1.070931966762e-01       5.267253273608e+03 
       1.107452594425e-01       5.052712177808e+03 
       1.145064249153e-01       4.877696372698e+03 
       1.183821370918e-01       4.729420090615e+03 
       1.223778605862e-01       4.592351591528e+03 
       1.264990921987e-01       4.450310917469e+03 
       1.307513701367e-01       4.289056183100e+03 
       1.351402814784e-01       4.099371735416e+03 
       1.396714684203e-01       3.879285343209e+03 
       1.443506338194e-01       3.635160957959e+03 
       1.491835465229e-01       3.380357945534e+03 
       1.541760469708e-01       3.131907425380e+03 
       1.593340535561e-01       2.906531134305e+03 
       1.646635702297e-01       2.716150720884e+03 
       1.701706958456e-01       2.565126862398e+03 
       1.758616357459e-01       2.449068952614e+03 
       1.817427160982e-01       2.355880190272e+03 
       1.878204015065e-01       2.269912771043e+03 
       1.941013164283e-01       2.174248411116e+03 
       2.005922709503e-01       2.058398140513e+03 
       2.073002914972e-01       1.923317696302e+03 
       2.142326570816e-01       1.780421241724e+03 
       2.213969417533e-01       1.644908103505e+03 
       2.288010639706e-01       1.528730623401e+03 
       2.364533437147e-01       1.436661379766e+03 
       2.443625682930e-01       1.364414722994e+03 
       2.525380679504e-01       1.300206898985e+03 
       2.609898026346e-01       1.231703627762e+03 
       2.697284615565e-01       1.153403875318e+03 
       2.787655775689e-01       1.068760327900e+03 
       2.881136588829e-01       9.876248748060e+02 
       2.977863412677e-01       9.186338888540e+02 
       3.077985646929e-01       8.623023148949e+02 
       3.181667794071e-01       8.124999567006e+02 
       3.289091877812e-01       7.617346057234e+02 
       3.400460299658e-01       7.073335597803e+02 
       3.515999236474e-01       6.533596619743e+02 
       3.635962711085e-01       6.049348924017e+02 
       3.760637506334e-01       5.633110766076e+02 
       3.890349143879e-01       5.246465791896e+02 
       4.025469216825e-01       4.857601647878e+02 
       4.166424456376e-01       4.471934118078e+02 
       4.313708035863e-01       4.116074147778e+02 
       4.467893782977e-01       3.794523864278e+02 
       4.629654199664e-01       3.490314290224e+02 
       4.799783501994e-01       3.192068472004e+02 
       4.979227319373e-01       2.909640371550e+02 
       5.169121270864e-01       2.649662506131e+02 
       5.370841404489e-01       2.401594605301e+02 
       5.586070464571e-01       2.163708821687e+02 
       5.816885094930e-01       1.940697773828e+02 
       6.065870144995e-01       1.729157180585e+02 
       6.336266468475e-01       1.527649838539e+02 
       6.632156059511e-01       1.337505521865e+02 
       6.958678639263e-01       1.156982421873e+02 
       7.322247985589e-01       9.868073901072e+01 
       7.730680195114e-01       8.267527660386e+01 
       8.193049553677e-01       6.778222137965e+01 
       8.718988016039e-01       5.412452286942e+01 
       9.317218031082e-01       4.189215712488e+01 
       9.993660908989e-01       3.128318115831e+01 
       1.075037110174e+00       2.243313229471e+01 
       1.158653485707e+00       1.535938595444e+01 
       1.250099157308e+00       9.953026945497e+00 
       1.349432401273e+00       6.010364217167e+00 
       1.456947457397e+00       3.291586513273e+00 
       1.573135111331e+00       1.551871504573e+00 
       1.698621895592e+00       5.593855082878e-01 
       1.834127512934e+00       1.039643411279e-01 
       1.980444934528e+00       8.887153341444e-04 
       2.138435191726e+00       9.520283428543e-02 
       2.309029199186e+00       2.651806009082e-01 
       2.493232377687e+00       4.241666945438e-01 
       2.692130395285e+00       5.210452077467e-01 
       2.906895534573e+00       5.371300943462e-01 
       3.138793597714e+00       4.799871529571e-01 
       3.389191366484e+00       3.744472609742e-01 
       3.659564657905e+00       2.521803309520e-01 
       3.951507022538e+00       1.417417346865e-01 
       4.266739136701e+00       6.150482390490e-02 
       4.607118943941e+00       1.660047120669e-02 
       4.974652605557e+00       8.470840573902e-04 
       5.371506324689e+00       1.958436128701e-03 
       5.800019113685e+00       7.775208321878e-03 
       6.262716579983e+00       1.077478855471e-02 
       6.762325811764e+00       9.230016498456e-03 
       7.301791451110e+00       5.292614482491e-03 
       7.884293049406e+00       1.833834343139e-03 
       8.513263807261e+00       2.130908012455e-04 
       9.192410809424e+00       3.712616002288e-05 
       9.925736873929e+00       2.648709566225e-04 
       1.071756414427e+01       2.938130291962e-04 
       1.157255956364e+01       1.419977051773e-04 
       1.249576238137e+01       2.241716889460e-05 
       1.349261385375e+01       5.191075624910e-07 
       1.456898931416e+01       9.141309933677e-06 
       1.573123280165e+01       7.122887760961e-06 
       1.698619445202e+01       1.631825595350e-06 
       1.834127087176e+01       1.068705540156e-07 
       1.980444873285e+01       4.621567729464e-07 
       2.138435184532e+01       6.115115139062e-07 
       2.309029198506e+01       1.812597301231e-08 
       2.493232377636e+01       9.865422761752e-09 
       2.692130395282e+01       5.741409931458e-08 
       2.906895534573e+01       2.037870876851e-07 
       3.138793597714e+01       8.129326009619e-07 
       3.389191366484e+01       2.756445426343e-08 
       3.659564657905e+01       2.737394641432e-08 
       3.951507022538e+01       3.925910568406e-07 
       4.266739136701e+01       3.077765658681e-06 
       4.607118943941e+01       2.670411573644e-07 
       4.974652605557e+01       1.717804140304e-07 
       5.371506324689e+01       1.272816705156e-06 
       5.800019113685e+01       2.332543833099e-06 
       6.262716579983e+01       5.434242945710e-07 
       6.762325811764e+01       1.370454617270e-06 
       7.301791451110e+01       5.576651007598e-08 
       7.884293049406e+01       1.865068955520e-07 
       8.513263807261e+01       2.502521081301e-06 
       9.192410809424e+01       5.659813661936e-06 
       9.925736873929e+01       2.769272333715e-07 
       1.071756414427e+02       1.336113093381e-07 
       1.157255956364e+02       3.361104119893e-07 
       1.249576238137e+02       1.297031240890e-06 
       1.349261385375e+02       1.960319763242e-06 
