# Matter power spectrum P(k) at redshift z=99
# for k=1.04775e-05 to 134.926 h/Mpc,
# number of wavenumbers equal to 255
#    1:k (h/Mpc)              2:P (Mpc/h)^3        
       1.047750691338e-05       7.261927095261e-03 
       1.131335172818e-05       7.820332150730e-03 
       1.221587619877e-05       8.421675382302e-03 
       1.319039970550e-05       9.069257737973e-03 
       1.424266598317e-05       9.766636451094e-03 
       1.537887697396e-05       1.051763973638e-02 
       1.660572938097e-05       1.132639250748e-02 
       1.793045413791e-05       1.219733201505e-02 
       1.936085902737e-05       1.313524187199e-02 
       2.090537469909e-05       1.414527084974e-02 
       2.257310435923e-05       1.523296544488e-02 
       2.437387742372e-05       1.640429654637e-02 
       2.631830745176e-05       1.766569603282e-02 
       2.841785470091e-05       1.902408711159e-02 
       3.068489367268e-05       2.048692967440e-02 
       3.313278604643e-05       2.206225467545e-02 
       3.577595943165e-05       2.375870883848e-02 
       3.862999240274e-05       2.558560669818e-02 
       4.171170631739e-05       2.755297672504e-02 
       4.503926445983e-05       2.967161933409e-02 
       4.863227909323e-05       3.195316455652e-02 
       5.251192705226e-05       3.441013466130e-02 
       5.670107455699e-05       3.705601741697e-02 
       6.122441198393e-05       3.990533412830e-02 
       6.610859938837e-05       4.297372242525e-02 
       7.138242363583e-05       4.627802054844e-02 
       7.707696806873e-05       4.983636159880e-02 
       8.322579570814e-05       5.366826786926e-02 
       8.986514707061e-05       5.779476319725e-02 
       9.703415376577e-05       6.223848221828e-02 
       1.047750691338e-04       6.702379825013e-02 
       1.131335172818e-04       7.217695031070e-02 
       1.221587619877e-04       7.772619030353e-02 
       1.319039970550e-04       8.370193380031e-02 
       1.424266598317e-04       9.013692506658e-02 
       1.537887697396e-04       9.706641130390e-02 
       1.660572938097e-04       1.045283343110e-01 
       1.793045413791e-04       1.125635329185e-01 
       1.936085902737e-04       1.212159592309e-01 
       2.090537469909e-04       1.305329107435e-01 
       2.257310435923e-04       1.405652819360e-01 
       2.437387742372e-04       1.513678275076e-01 
       2.631830745176e-04       1.629994475134e-01 
       2.841785470091e-04       1.755234890479e-01 
       3.068489367268e-04       1.890080645300e-01 
       3.313278604643e-04       2.035263977433e-01 
       3.577595943165e-04       2.191571778047e-01 
       3.862999240274e-04       2.359849423263e-01 
       4.171170631739e-04       2.541004713005e-01 
       4.503926445983e-04       2.736012061163e-01 
       4.863227909323e-04       2.945916774648e-01 
       5.251192705226e-04       3.171839507869e-01 
       5.670107455699e-04       3.414980769114e-01 
       6.122441198393e-04       3.676625416307e-01 
       6.610859938837e-04       3.958147272871e-01 
       7.138242363583e-04       4.261013332072e-01 
       7.707696806873e-04       4.586787880857e-01 
       8.322579570814e-04       4.937136112829e-01 
       8.986514707061e-04       5.313826962085e-01 
       9.703415376577e-04       5.718735176813e-01 
       1.047750691338e-03       6.153841926260e-01 
       1.131335172818e-03       6.621233623132e-01 
       1.221587619877e-03       7.123098743662e-01 
       1.319039970550e-03       7.661721263794e-01 
       1.424266598317e-03       8.239547181306e-01 
       1.537887697396e-03       8.859012282816e-01 
       1.660572938097e-03       9.522589495744e-01 
       1.793045413791e-03       1.023280284735e+00 
       1.936085902737e-03       1.099216542124e+00 
       2.090537469909e-03       1.180313285055e+00 
       2.257310435923e-03       1.266804486828e+00 
       2.437387742372e-03       1.358905328483e+00 
       2.631830745176e-03       1.456803285969e+00 
       2.841785470091e-03       1.560647663055e+00 
       3.068489367268e-03       1.670537010593e+00 
       3.313278604643e-03       1.786505039652e+00 
       3.577595943165e-03       1.908504410126e+00 
       3.862999240274e-03       2.036389468759e+00 
       4.171170631739e-03       2.169898252793e+00 
       4.503926445983e-03       2.308634491946e+00 
       4.863227909323e-03       2.452050674732e+00 
       5.251192705226e-03       2.599434681064e+00 
       5.670107455699e-03       2.749901126363e+00 
       6.122441198393e-03       2.902390058186e+00 
       6.610859938837e-03       3.055671269640e+00 
       7.138242363583e-03       3.208360122604e+00 
       7.707696806873e-03       3.358926651062e+00 
       8.322579570814e-03       3.505726889509e+00 
       8.986514707061e-03       3.647012437449e+00 
       9.703415376577e-03       3.780926178915e+00 
       1.047750691338e-02       3.905492880258e+00 
       1.131335172818e-02       4.018589825651e+00 
       1.221587619877e-02       4.117902888488e+00 
       1.319039970550e-02       4.200917700241e+00 
       1.424266598317e-02       4.264943739097e+00 
       1.537887697392e-02       4.307219670245e+00 
       1.660572938023e-02       4.325062458998e+00 
       1.793045412706e-02       4.316060393992e+00 
       1.936085890181e-02       4.278228934700e+00 
       2.090537352463e-02       4.210204476300e+00 
       2.257309535333e-02       4.111418751783e+00 
       2.437382002918e-02       3.982420939872e+00 
       2.631799944462e-02       3.825168688067e+00 
       2.841644545389e-02       3.643282248053e+00 
       3.067933355377e-02       3.442198706051e+00 
       3.311368470740e-02       3.229241598661e+00 
       3.571840443502e-02       3.013516334227e+00 
       3.847720348444e-02       2.805283945094e+00 
       4.135335538431e-02       2.614410671585e+00 
       4.429361667738e-02       2.448132193418e+00 
       4.724366439141e-02       2.309240663412e+00 
       5.016480835311e-02       2.196115217614e+00 
       5.303989620246e-02       2.104369890981e+00 
       5.586870669566e-02       2.028462635786e+00 
       5.866042680613e-02       1.963155366217e+00 
       6.142798932958e-02       1.903779777239e+00 
       6.418496440164e-02       1.846479291126e+00 
       6.694418833788e-02       1.788197571653e+00 
       6.971731106057e-02       1.726715785542e+00 
       7.251476155766e-02       1.660654505906e+00 
       7.534587671527e-02       1.589469978701e+00 
       7.821907666265e-02       1.513436710140e+00 
       8.114203772912e-02       1.433568908697e+00 
       8.412184535029e-02       1.351492415834e+00 
       8.716512279304e-02       1.269273901035e+00 
       9.027813695930e-02       1.189193346785e+00 
       9.346688431697e-02       1.113501294726e+00 
       9.673716028276e-02       1.044174643247e+00 
       1.000946150830e-01       9.827061802548e-01 
       1.035447986537e-01       9.299363830387e-01 
       1.070931966762e-01       8.859586953732e-01 
       1.107452594425e-01       8.500712731970e-01 
       1.145064249153e-01       8.208035124611e-01 
       1.183821370918e-01       7.960244210992e-01 
       1.223778605862e-01       7.731458264157e-01 
       1.264990921987e-01       7.494522326687e-01 
       1.307513701367e-01       7.225577178132e-01 
       1.351402814784e-01       6.909097679137e-01 
       1.396714684203e-01       6.541825808566e-01 
       1.443506338194e-01       6.134280484857e-01 
       1.491835465229e-01       5.708687267836e-01 
       1.541760469708e-01       5.293640261034e-01 
       1.593340535561e-01       4.917105664892e-01 
       1.646635702297e-01       4.599196606813e-01 
       1.701706958456e-01       4.347275930719e-01 
       1.758616357459e-01       4.154074755336e-01 
       1.817427160982e-01       3.999358701518e-01 
       1.878204015065e-01       3.856854271268e-01 
       1.941013164283e-01       3.698137162355e-01 
       2.005922709503e-01       3.505511025241e-01 
       2.073002914972e-01       3.280460356542e-01 
       2.142326570816e-01       3.042129633738e-01 
       2.213969417533e-01       2.816111106171e-01 
       2.288010639706e-01       2.622563169252e-01 
       2.364533437147e-01       2.469612548924e-01 
       2.443625682930e-01       2.350123809975e-01 
       2.525380679504e-01       2.244197829362e-01 
       2.609898026346e-01       2.130953709725e-01 
       2.697284615565e-01       2.001019783428e-01 
       2.787655775689e-01       1.860191836692e-01 
       2.881136588829e-01       1.725164089998e-01 
       2.977863412677e-01       1.610652576054e-01 
       3.077985646929e-01       1.517597972569e-01 
       3.181667794071e-01       1.435586876054e-01 
       3.289091877812e-01       1.351810603531e-01 
       3.400460299658e-01       1.261633331426e-01 
       3.515999236474e-01       1.172010601538e-01 
       3.635962711085e-01       1.091758081617e-01 
       3.760637506334e-01       1.023084554785e-01 
       3.890349143879e-01       9.593662940709e-02 
       4.025469216825e-01       8.950662466827e-02 
       4.166424456376e-01       8.311066296591e-02 
       4.313708035863e-01       7.721433648133e-02 
       4.467893782977e-01       7.189933933770e-02 
       4.629654199664e-01       6.686778108082e-02 
       4.799783501994e-01       6.191625724315e-02 
       4.979227319373e-01       5.722097177163e-02 
       5.169121270864e-01       5.290160462712e-02 
       5.370841404489e-01       4.876844135825e-02 
       5.586070464571e-01       4.478942408601e-02 
       5.816885094930e-01       4.105043230718e-02 
       6.065870144995e-01       3.748840014809e-02 
       6.336266468475e-01       3.407474683886e-02 
       6.632156059511e-01       3.083297593400e-02 
       6.958678639263e-01       2.772663956739e-02 
       7.322247985589e-01       2.476535106817e-02 
       7.730680195114e-01       2.193771679372e-02 
       8.193049553677e-01       1.925416585202e-02 
       8.718988016039e-01       1.672719246089e-02 
       9.317218031082e-01       1.438203454950e-02 
       9.993660908989e-01       1.224835457102e-02 
       1.075037110174e+00       1.035010836834e-02 
       1.158653485707e+00       8.697040141285e-03 
       1.250099157308e+00       7.281738148047e-03 
       1.349432401273e+00       6.082403288203e-03 
       1.456947457397e+00       5.072421208397e-03 
       1.573135111331e+00       4.224795937246e-03 
       1.698621895592e+00       3.514787394149e-03 
       1.834127512934e+00       2.920961417768e-03 
       1.980444934528e+00       2.424859138556e-03 
       2.138435191726e+00       2.010916086816e-03 
       2.309029199186e+00       1.665874052570e-03 
       2.493232377687e+00       1.378573152417e-03 
       2.692130395285e+00       1.139572814248e-03 
       2.906895534573e+00       9.409458950336e-04 
       3.138793597714e+00       7.760118568783e-04 
       3.389191366484e+00       6.391705652007e-04 
       3.659564657905e+00       5.257260052836e-04 
       3.951507022538e+00       4.317413594158e-04 
       4.266739136701e+00       3.539433561486e-04 
       4.607118943941e+00       2.895728652779e-04 
       4.974652605557e+00       2.363502188843e-04 
       5.371506324689e+00       1.923710433824e-04 
       5.800019113685e+00       1.560492573421e-04 
       6.262716579983e+00       1.260731393255e-04 
       6.762325811764e+00       1.013509026811e-04 
       7.301791451110e+00       8.098322185017e-05 
       7.884293049406e+00       6.422431788869e-05 
       8.513263807261e+00       5.046088860934e-05 
       9.192410809424e+00       3.918873601187e-05 
       9.925736873929e+00       2.999394126958e-05 
       1.071756414427e+01       2.253638033478e-05 
       1.157255956364e+01       1.653839834364e-05 
       1.249576238137e+01       1.177192983474e-05 
       1.349261385375e+01       8.048213715003e-06 
       1.456898931416e+01       5.209236010467e-06 
       1.573123280165e+01       3.120040854297e-06 
       1.698619445202e+01       1.662115157929e-06 
       1.834127087176e+01       7.266128242149e-07 
       1.980444873285e+01       2.100343008750e-07 
       2.138435184532e+01       1.218334595060e-08 
       2.309029198506e+01       3.503780251087e-08 
       2.493232377636e+01       1.848801319987e-07 
       2.692130395282e+01       3.766772059002e-07 
       2.906895534573e+01       5.409769430835e-07 
       3.138793597714e+01       6.297910947030e-07 
       3.389191366484e+01       6.230420196936e-07 
       3.659564657905e+01       5.293339530799e-07 
       3.951507022538e+01       3.807366271709e-07 
       4.266739136701e+01       2.219662649645e-07 
       4.607118943941e+01       9.399506700314e-08 
       4.974652605557e+01       2.039911606410e-08 
       5.371506324689e+01       4.497532824279e-13 
       5.800019113685e+01       1.152028227187e-08 
       6.262716579983e+01       2.778665989255e-08 
       6.762325811764e+01       3.131718683435e-08 
       7.301791451110e+01       2.135109098885e-08 
       7.884293049406e+01       8.165569476835e-09 
       8.513263807261e+01       9.078861043404e-10 
       9.192410809424e+01       2.581231824130e-10 
       9.925736873929e+01       1.425355509992e-09 
       1.071756414427e+02       1.245075521058e-09 
       1.157255956364e+02       3.554134547016e-10 
       1.249576238137e+02       3.122901168269e-12 
       1.349261385375e+02       4.707768760399e-11 
