# Matter power spectrum P(k) at redshift z=99
# for k=1.04775e-05 to 134.926 h/Mpc,
# number of wavenumbers equal to 255
#    1:k (h/Mpc)              2:P (Mpc/h)^3        
       1.047750691338e-05       7.261950332460e-03 
       1.131335172818e-05       7.820357172846e-03 
       1.221587619877e-05       8.421703160131e-03 
       1.319039970550e-05       9.069286701251e-03 
       1.424266598317e-05       9.766667619215e-03 
       1.537887697396e-05       1.051767341620e-02 
       1.660572938097e-05       1.132642869464e-02 
       1.793045413791e-05       1.219737105679e-02 
       1.936085902737e-05       1.313528369161e-02 
       2.090537469909e-05       1.414531622927e-02 
       2.257310435923e-05       1.523301418845e-02 
       2.437387742372e-05       1.640434903800e-02 
       2.631830745176e-05       1.766575264891e-02 
       2.841785470091e-05       1.902414797167e-02 
       3.068489367268e-05       2.048699578840e-02 
       3.313278604643e-05       2.206232493451e-02 
       3.577595943165e-05       2.375878464790e-02 
       3.862999240274e-05       2.558568818155e-02 
       4.171170631739e-05       2.755306442407e-02 
       4.503926445983e-05       2.967171410841e-02 
       4.863227909323e-05       3.195326614564e-02 
       5.251192705226e-05       3.441024493283e-02 
       5.670107455699e-05       3.705613607945e-02 
       6.122441198393e-05       3.990546156069e-02 
       6.610859938837e-05       4.297385987142e-02 
       7.138242363583e-05       4.627816876550e-02 
       7.707696806873e-05       4.983652092468e-02 
       8.322579570814e-05       5.366843929009e-02 
       8.986514707061e-05       5.779494789403e-02 
       9.703415376577e-05       6.223868116610e-02 
       1.047750691338e-04       6.702401206574e-02 
       1.131335172818e-04       7.217717964569e-02 
       1.221587619877e-04       7.772643781658e-02 
       1.319039970550e-04       8.370220031802e-02 
       1.424266598317e-04       9.013721182752e-02 
       1.537887697396e-04       9.706671974404e-02 
       1.660572938097e-04       1.045286660935e-01 
       1.793045413791e-04       1.125638898173e-01 
       1.936085902737e-04       1.212163432156e-01 
       2.090537469909e-04       1.305333233477e-01 
       2.257310435923e-04       1.405657253116e-01 
       2.437387742372e-04       1.513683037945e-01 
       2.631830745176e-04       1.629999589628e-01 
       2.841785470091e-04       1.755240375246e-01 
       3.068489367268e-04       1.890086533960e-01 
       3.313278604643e-04       2.035270289327e-01 
       3.577595943165e-04       2.191578538631e-01 
       3.862999240274e-04       2.359856657692e-01 
       4.171170631739e-04       2.541012445977e-01 
       4.503926445983e-04       2.736020316972e-01 
       4.863227909323e-04       2.945925574470e-01 
       5.251192705226e-04       3.171848866941e-01 
       5.670107455699e-04       3.414990705075e-01 
       6.122441198393e-04       3.676635932079e-01 
       6.610859938837e-04       3.958158369066e-01 
       7.138242363583e-04       4.261024988541e-01 
       7.707696806873e-04       4.586800063480e-01 
       8.322579570814e-04       4.937148770352e-01 
       8.986514707061e-04       5.313840000459e-01 
       9.703415376577e-04       5.718748497015e-01 
       1.047750691338e-03       6.153855300911e-01 
       1.131335172818e-03       6.621246835817e-01 
       1.221587619877e-03       7.123111434880e-01 
       1.319039970550e-03       7.661732987971e-01 
       1.424266598317e-03       8.239557930437e-01 
       1.537887697396e-03       8.859020731104e-01 
       1.660572938097e-03       9.522593110413e-01 
       1.793045413791e-03       1.023279830850e+00 
       1.936085902737e-03       1.099214825408e+00 
       2.090537469909e-03       1.180309741954e+00 
       2.257310435923e-03       1.266798370935e+00 
       2.437387742372e-03       1.358895659383e+00 
       2.631830745176e-03       1.456788775463e+00 
       2.841785470091e-03       1.560626561858e+00 
       3.068489367268e-03       1.670507000271e+00 
       3.313278604643e-03       1.786462885897e+00 
       3.577595943165e-03       1.908445848994e+00 
       3.862999240274e-03       2.036308739019e+00 
       4.171170631739e-03       2.169787295919e+00 
       4.503926445983e-03       2.308482277962e+00 
       4.863227909323e-03       2.451842133630e+00 
       5.251192705226e-03       2.599149837419e+00 
       5.670107455699e-03       2.749511918822e+00 
       6.122441198393e-03       2.901859356503e+00 
       6.610859938837e-03       3.054949089025e+00 
       7.138242363583e-03       3.207376252824e+00 
       7.707696806873e-03       3.357590776308e+00 
       8.322579570814e-03       3.503917687819e+00 
       8.986514707061e-03       3.644564904113e+00 
       9.703415376577e-03       3.777625264868e+00 
       1.047750691338e-02       3.901056447880e+00 
       1.131335172818e-02       4.012647094792e+00 
       1.221587619877e-02       4.109970737870e+00 
       1.319039970550e-02       4.190370673466e+00 
       1.424266598317e-02       4.250975659410e+00 
       1.537887697392e-02       4.288800809841e+00 
       1.660572938023e-02       4.300883756839e+00 
       1.793045412706e-02       4.284478119898e+00 
       1.936085890181e-02       4.237203628155e+00 
       2.090537352463e-02       4.157233678388e+00 
       2.257309535333e-02       4.043474492432e+00 
       2.437382002918e-02       3.895908292042e+00 
       2.631799944462e-02       3.715893263091e+00 
       2.841644545389e-02       3.506494515851e+00 
       3.067933355377e-02       3.272651182270e+00 
       3.311368470740e-02       3.021354334673e+00 
       3.571840443502e-02       2.761746126575e+00 
       3.847720348444e-02       2.504575492445e+00 
       4.135335538431e-02       2.260811709512e+00 
       4.429361667738e-02       2.039269402910e+00 
       4.724366439141e-02       1.844455475310e+00 
       5.016480835311e-02       1.676144209072e+00 
       5.303989620246e-02       1.530902460261e+00 
       5.586870669566e-02       1.403874373963e+00 
       5.866042680613e-02       1.290313637076e+00 
       6.142798932958e-02       1.186040693284e+00 
       6.418496440164e-02       1.087641845606e+00 
       6.694418833788e-02       9.925696125811e-01 
       6.971731106057e-02       8.990482943262e-01 
       7.251476155766e-02       8.061365160082e-01 
       7.534587671527e-02       7.135989868471e-01 
       7.821907666265e-02       6.218813998303e-01 
       8.114203772912e-02       5.320475173667e-01 
       8.412184535029e-02       4.455387513833e-01 
       8.716512279304e-02       3.640901807091e-01 
       9.027813695930e-02       2.894169725764e-01 
       9.346688431697e-02       2.230186134758e-01 
       9.673716028276e-02       1.659643716764e-01 
       1.000946150830e-01       1.187650091411e-01 
       1.035447986537e-01       8.125232894000e-02 
       1.070931966762e-01       5.273835924650e-02 
       1.107452594425e-01       3.205050113700e-02 
       1.145064249153e-01       1.780410591840e-02 
       1.183821370918e-01       8.586553555106e-03 
       1.223778605862e-01       3.148470453750e-03 
       1.264990921987e-01       5.208851080945e-04 
       1.307513701367e-01       6.893082956649e-05 
       1.351402814784e-01       1.474513826640e-03 
       1.396714684203e-01       4.648734211069e-03 
       1.443506338194e-01       9.587853827765e-03 
       1.491835465229e-01       1.618909027996e-02 
       1.541760469708e-01       2.402626767745e-02 
       1.593340535561e-01       3.228690932098e-02 
       1.646635702297e-01       3.981601701100e-02 
       1.701706958456e-01       4.536430800693e-02 
       1.758616357459e-01       4.800145686682e-02 
       1.817427160982e-01       4.752727715397e-02 
       1.878204015065e-01       4.433863924624e-02 
       1.941013164283e-01       3.942701608327e-02 
       2.005922709503e-01       3.389923693385e-02 
       2.073002914972e-01       2.845091114840e-02 
       2.142326570816e-01       2.336773567509e-02 
       2.213969417533e-01       1.857026457015e-02 
       2.288010639706e-01       1.393416013972e-02 
       2.364533437147e-01       9.470222776827e-03 
       2.443625682930e-01       5.456730754128e-03 
       2.525380679504e-01       2.376885864413e-03 
       2.609898026346e-01       5.686568508701e-04 
       2.697284615565e-01       1.494340854260e-06 
       2.787655775689e-01       3.145129116106e-04 
       2.881136588829e-01       1.072171777660e-03 
       2.977863412677e-01       1.998162997288e-03 
       3.077985646929e-01       2.917600742025e-03 
       3.181667794071e-01       3.703984655628e-03 
       3.289091877812e-01       4.147319205209e-03 
       3.400460299658e-01       4.070527655438e-03 
       3.515999236474e-01       3.492185724584e-03 
       3.635962711085e-01       2.628599173581e-03 
       3.760637506334e-01       1.734623778688e-03 
       3.890349143879e-01       9.604014066893e-04 
       4.025469216825e-01       3.893262145584e-04 
       4.166424456376e-01       6.783124742158e-05 
       4.313708035863e-01       6.231949140038e-06 
       4.467893782977e-01       1.262378044217e-04 
       4.629654199664e-01       3.033047971510e-04 
       4.799783501994e-01       4.352194469013e-04 
       4.979227319373e-01       4.676759504541e-04 
       5.169121270864e-01       3.799102288096e-04 
       5.370841404489e-01       2.285501293801e-04 
       5.586070464571e-01       8.638985689399e-05 
       5.816885094930e-01       9.159937560542e-06 
       6.065870144995e-01       6.905219965445e-06 
       6.336266468475e-01       4.050886370440e-05 
       6.632156059511e-01       5.920026724420e-05 
       6.958678639263e-01       4.138526896445e-05 
       7.322247985589e-01       1.067765943768e-05 
       7.730680195114e-01       1.351745511216e-07 
       8.193049553677e-01       6.772418524815e-06 
       8.718988016039e-01       6.113089910947e-06 
       9.317218031082e-01       3.577403318321e-07 
       9.993660908989e-01       8.718467708262e-07 
       1.075037110174e+00       4.718968888769e-07 
       1.158653485707e+00       2.961742098798e-08 
       1.250099157308e+00       1.251910724853e-07 
       1.349432401273e+00       3.293473392973e-10 
       1.456947457397e+00       8.360934547685e-09 
       1.573135111331e+00       8.116572707313e-10 
       1.698621895592e+00       3.220502234975e-09 
       1.834127512934e+00       2.362255229262e-11 
       1.980444934528e+00       1.256122617854e-09 
       2.138435191726e+00       1.556016364171e-10 
       2.309029199186e+00       1.644269745797e-10 
       2.493232377687e+00       1.138701761670e-10 
       2.692130395285e+00       4.041410962248e-10 
       2.906895534573e+00       1.778575445832e-12 
       3.138793597714e+00       9.605227884925e-11 
       3.389191366484e+00       5.290407597229e-11 
       3.659564657905e+00       4.927468388506e-14 
       3.951507022538e+00       1.383489252405e-09 
       4.266739136701e+00       2.189324116117e-10 
       4.607118943941e+00       7.316326873878e-10 
       4.974652605557e+00       3.806683907826e-11 
       5.371506324689e+00       2.909432297885e-12 
       5.800019113685e+00       1.073516308516e-11 
       6.262716579983e+00       1.758760269956e-12 
       6.762325811764e+00       8.276988666545e-11 
       7.301791451110e+00       1.778495748581e-11 
       7.884293049406e+00       2.109295564656e-12 
       8.513263807261e+00       9.229642160399e-13 
       9.192410809424e+00       4.577825174813e-13 
       9.925736873929e+00       1.263935300630e-12 
       1.071756414427e+01       2.649770980885e-12 
       1.157255956364e+01       9.419874731114e-12 
       1.249576238137e+01       2.282611115791e-14 
       1.349261385375e+01       7.634841438714e-14 
       1.456898931416e+01       2.303605716175e-11 
       1.573123280165e+01       1.178369318254e-11 
       1.698619445202e+01       1.118686184683e-11 
       1.834127087176e+01       7.883298841339e-13 
       1.980444873285e+01       5.944380471929e-12 
       2.138435184532e+01       9.851566666090e-13 
       2.309029198506e+01       8.241101264981e-13 
       2.493232377636e+01       2.116601170177e-16 
       2.692130395282e+01       1.092332681957e-11 
       2.906895534573e+01       8.489714704708e-14 
       3.138793597714e+01       4.998217623444e-15 
       3.389191366484e+01       7.987106470884e-15 
       3.659564657905e+01       1.028548278543e-12 
       3.951507022538e+01       9.412352373202e-13 
       4.266739136701e+01       9.968040816389e-12 
       4.607118943941e+01       2.342305450502e-14 
       4.974652605557e+01       2.805390259878e-16 
       5.371506324689e+01       3.159531036706e-14 
       5.800019113685e+01       2.278321563315e-14 
       6.262716579983e+01       1.615747796344e-12 
       6.762325811764e+01       2.832974095203e-14 
       7.301791451110e+01       1.653056978553e-13 
       7.884293049406e+01       5.657002159730e-13 
       8.513263807261e+01       3.562671566363e-16 
       9.192410809424e+01       1.425315506037e-14 
       9.925736873929e+01       1.290275781006e-12 
       1.071756414427e+02       6.575356347546e-15 
       1.157255956364e+02       1.946581437702e-13 
       1.249576238137e+02       4.255817510889e-13 
       1.349261385375e+02       1.045293323313e-13 
