# Matter power spectrum P(k) at redshift z=0
# for k=1.04775e-05 to 67.6233 h/Mpc,
# number of wavenumbers equal to 246
#    1:k (h/Mpc)              2:P (Mpc/h)^3        
       1.047750691338e-05       5.020964806755e+01 
       1.131335172818e-05       5.407048206553e+01 
       1.221587619877e-05       5.822819063968e+01 
       1.319039970550e-05       6.270562589684e+01 
       1.424266598317e-05       6.752731788102e+01 
       1.537887697396e-05       7.271977200258e+01 
       1.660572938097e-05       7.831147241542e+01 
       1.793045413791e-05       8.433311815128e+01 
       1.936085902737e-05       9.081778242446e+01 
       2.090537469909e-05       9.780108061340e+01 
       2.257310435923e-05       1.053213197032e+02 
       2.437387742372e-05       1.134197377001e+02 
       2.631830745176e-05       1.221408202816e+02 
       2.841785470091e-05       1.315324720916e+02 
       3.068489367268e-05       1.416462093729e+02 
       3.313278604643e-05       1.525374500691e+02 
       3.577595943165e-05       1.642660687078e+02 
       3.862999240274e-05       1.768963504868e+02 
       4.171170631739e-05       1.904975992460e+02 
       4.503926445983e-05       2.051444490305e+02 
       4.863227909323e-05       2.209171463752e+02 
       5.251192705226e-05       2.379022222314e+02 
       5.670107455699e-05       2.561927925964e+02 
       6.122441198393e-05       2.758890441791e+02 
       6.610859938837e-05       2.970989225464e+02 
       7.138242363583e-05       3.199385558200e+02 
       7.707696806873e-05       3.445329780878e+02 
       8.322579570814e-05       3.710167315928e+02 
       8.986514707061e-05       3.995346440954e+02 
       9.703415376577e-05       4.302425403884e+02 
       1.047750691338e-04       4.633080762974e+02 
       1.131335172818e-04       4.989116267507e+02 
       1.221587619877e-04       5.372471946561e+02 
       1.319039970550e-04       5.785234124633e+02 
       1.424266598317e-04       6.229645930980e+02 
       1.537887697396e-04       6.708118484951e+02 
       1.660572938097e-04       7.223242660220e+02 
       1.793045413791e-04       7.777801552702e+02 
       1.936085902737e-04       8.374783607333e+02 
       2.090537469909e-04       9.017396264495e+02 
       2.257310435923e-04       9.709080260152e+02 
       2.437387742372e-04       1.045352448644e+03 
       2.631830745176e-04       1.125468122836e+03 
       2.841785470091e-04       1.211678179511e+03 
       3.068489367268e-04       1.304435249091e+03 
       3.313278604643e-04       1.404223052541e+03 
       3.577595943165e-04       1.511558013390e+03 
       3.862999240274e-04       1.626990836421e+03 
       4.171170631739e-04       1.751108027370e+03 
       4.503926445983e-04       1.884533381345e+03 
       4.863227909323e-04       2.027929376470e+03 
       5.251192705226e-04       2.181998446367e+03 
       5.670107455699e-04       2.347484100857e+03 
       6.122441198393e-04       2.525171869337e+03 
       6.610859938837e-04       2.715889981401e+03 
       7.138242363583e-04       2.920509686086e+03 
       7.707696806873e-04       3.139945097710e+03 
       8.322579570814e-04       3.375152334396e+03 
       8.986514707061e-04       3.627127828231e+03 
       9.703415376577e-04       3.896905450016e+03 
       1.047750691338e-03       4.185552170957e+03 
       1.131335172818e-03       4.494162426791e+03 
       1.221587619877e-03       4.823850702661e+03 
       1.319039970550e-03       5.175742738660e+03 
       1.424266598317e-03       5.551019592518e+03 
       1.537887697396e-03       5.950788335883e+03 
       1.660572938097e-03       6.376123046806e+03 
       1.793045413791e-03       6.828073896119e+03 
       1.936085902737e-03       7.307625375386e+03 
       2.090537469909e-03       7.815671908710e+03 
       2.257310435923e-03       8.352990369398e+03 
       2.437387742372e-03       8.920211057520e+03 
       2.631830745176e-03       9.517783061888e+03 
       2.841785470091e-03       1.014593703671e+04 
       3.068489367268e-03       1.080464505748e+04 
       3.313278604643e-03       1.149357459453e+04 
       3.577595943165e-03       1.221203620826e+04 
       3.862999240274e-03       1.295892538504e+04 
       4.171170631739e-03       1.373266002104e+04 
       4.503926445983e-03       1.453111834593e+04 
       4.863227909323e-03       1.535154984221e+04 
       5.251192705226e-03       1.619063613413e+04 
       5.670107455699e-03       1.704431256580e+04 
       6.122441198393e-03       1.790755938460e+04 
       6.610859938837e-03       1.877460415683e+04 
       7.138242363583e-03       1.963872429120e+04 
       7.707696806873e-03       2.049215713448e+04 
       8.322579570814e-03       2.132607230682e+04 
       8.986514707061e-03       2.213055234191e+04 
       9.703415376577e-03       2.289445470888e+04 
       1.047750691338e-02       2.360548865241e+04 
       1.131335172818e-02       2.425023012605e+04 
       1.221587619877e-02       2.481423922609e+04 
       1.319039970550e-02       2.528218638162e+04 
       1.424266598317e-02       2.563813998998e+04 
       1.537887697392e-02       2.586606594533e+04 
       1.660572938023e-02       2.595027255021e+04 
       1.793045412706e-02       2.587634159093e+04 
       1.936085890181e-02       2.563219773797e+04 
       2.090537352463e-02       2.520934383261e+04 
       2.257309535333e-02       2.460447341740e+04 
       2.437382002918e-02       2.382089581829e+04 
       2.631799944462e-02       2.287043980974e+04 
       2.841644545389e-02       2.177448213407e+04 
       3.067933355377e-02       2.056549458496e+04 
       3.311368470740e-02       1.928727972900e+04 
       3.571840443502e-02       1.799402351457e+04 
       3.847720348444e-02       1.674683776876e+04 
       4.135335538431e-02       1.560458903630e+04 
       4.429361667738e-02       1.461041303811e+04 
       4.724366439141e-02       1.378054078217e+04 
       5.016480835311e-02       1.310509492867e+04 
       5.303989620246e-02       1.255716000433e+04 
       5.586870669566e-02       1.210427302179e+04 
       5.866042680613e-02       1.171464616867e+04 
       6.142798932958e-02       1.136048813268e+04 
       6.418496440164e-02       1.101858207242e+04 
       6.694418833788e-02       1.067070298515e+04 
       6.971731106057e-02       1.030355842265e+04 
       7.251476155766e-02       9.909005996210e+03 
       7.534587671527e-02       9.483764914675e+03 
       7.821907666265e-02       9.029506438874e+03 
       8.114203772912e-02       8.552316103002e+03 
       8.412184535029e-02       8.061915890046e+03 
       8.716512279304e-02       7.570771162191e+03 
       9.027813695930e-02       7.092458046968e+03 
       9.346688431697e-02       6.640521414617e+03 
       9.673716028276e-02       6.226720802169e+03 
       1.000946150830e-01       5.859958225280e+03 
       1.035447986537e-01       5.545259852712e+03 
       1.070931966762e-01       5.283112661310e+03 
       1.107452594425e-01       5.069428042375e+03 
       1.145064249153e-01       4.895265163246e+03 
       1.183821370918e-01       4.747841579179e+03 
       1.223778605862e-01       4.611726962406e+03 
       1.264990921987e-01       4.470617952484e+03 
       1.307513701367e-01       4.310247108912e+03 
       1.351402814784e-01       4.121388985688e+03 
       1.396714684203e-01       3.902046412410e+03 
       1.443506338194e-01       3.658669284702e+03 
       1.491835465229e-01       3.404478298739e+03 
       1.541760469708e-01       3.156670778999e+03 
       1.593340535561e-01       2.931974985019e+03 
       1.646635702297e-01       2.742368820694e+03 
       1.701706958456e-01       2.592257267591e+03 
       1.758616357459e-01       2.477244696405e+03 
       1.817427160982e-01       2.385182670869e+03 
       1.878204015065e-01       2.300361208745e+03 
       1.941013164283e-01       2.205755303837e+03 
       2.005922709503e-01       2.090821787863e+03 
       2.073002914972e-01       1.956466811895e+03 
       2.142326570816e-01       1.814192293462e+03 
       2.213969417533e-01       1.679297586130e+03 
       2.288010639706e-01       1.563848618520e+03 
       2.364533437147e-01       1.472684599280e+03 
       2.443625682930e-01       1.401510391745e+03 
       2.525380679504e-01       1.338414219179e+03 
       2.609898026346e-01       1.270898433404e+03 
       2.697284615565e-01       1.193380514722e+03 
       2.787655775689e-01       1.109337311091e+03 
       2.881136588829e-01       1.028769250212e+03 
       2.977863412677e-01       9.604819260051e+02 
       3.077985646929e-01       9.050233415699e+02 
       3.181667794071e-01       8.561460842490e+02 
       3.289091877812e-01       8.061866986647e+02 
       3.400460299658e-01       7.523909803487e+02 
       3.515999236474e-01       6.989233215705e+02 
       3.635962711085e-01       6.510617319174e+02 
       3.760637506334e-01       6.101207115229e+02 
       3.890349143879e-01       5.721312011571e+02 
       4.025469216825e-01       5.337809976342e+02 
       4.166424456376e-01       4.956306952506e+02 
       4.313708035863e-01       4.604683711693e+02 
       4.467893782977e-01       4.287767575983e+02 
       4.629654199664e-01       3.987719644448e+02 
       4.799783501994e-01       3.692422264630e+02 
       4.979227319373e-01       3.412395357726e+02 
       5.169121270864e-01       3.154826110167e+02 
       5.370841404489e-01       2.908339776853e+02 
       5.586070464571e-01       2.671049907663e+02 
       5.816885094930e-01       2.448072806414e+02 
       6.065870144995e-01       2.235667663268e+02 
       6.336266468475e-01       2.032091285265e+02 
       6.632156059511e-01       1.838771068037e+02 
       6.958678639263e-01       1.653530339897e+02 
       7.322247985589e-01       1.476938313918e+02 
       7.730680195114e-01       1.308319858113e+02 
       8.193049553677e-01       1.148295756474e+02 
       8.718988016039e-01       9.976075443200e+01 
       9.317218031082e-01       8.577642648293e+01 
       9.993660908989e-01       7.305294259944e+01 
       1.075037110174e+00       6.173428804224e+01 
       1.158653485707e+00       5.187731712408e+01 
       1.250099157308e+00       4.343831770039e+01 
       1.349432401273e+00       3.628744510780e+01 
       1.456947457397e+00       3.026609202868e+01 
       1.573135111331e+00       2.521245173195e+01 
       1.698621895592e+00       2.097997182261e+01 
       1.834127512934e+00       1.744021387005e+01 
       1.980444934528e+00       1.448340114753e+01 
       2.138435191726e+00       1.201669320761e+01 
       2.309029199186e+00       9.960823727270e+00 
       2.493232377687e+00       8.249481151712e+00 
       2.692130395285e+00       6.826209265743e+00 
       2.906895534573e+00       5.643794570471e+00 
       3.138793597714e+00       4.662458555145e+00 
       3.389191366484e+00       3.848623964328e+00 
       3.659564657905e+00       3.174422173545e+00 
       3.951507022538e+00       2.616352480348e+00 
       4.266739136701e+00       2.154792534161e+00 
       4.607118943941e+00       1.773356233378e+00 
       4.974652605557e+00       1.458396515381e+00 
       5.371506324689e+00       1.198526340145e+00 
       5.800019113685e+00       9.842471036017e-01 
       6.262716579983e+00       8.077073728527e-01 
       6.762325811764e+00       6.623581668542e-01 
       7.301791451110e+00       5.427618382982e-01 
       7.884293049406e+00       4.444270742188e-01 
       8.513263807261e+00       3.636166951353e-01 
       9.192410809424e+00       2.972578406318e-01 
       9.925736873929e+00       2.427951303918e-01 
       1.071756414427e+01       1.981214818619e-01 
       1.157255956364e+01       1.615000729122e-01 
       1.249576238137e+01       1.314976873423e-01 
       1.349261385375e+01       1.069289032415e-01 
       1.456898931416e+01       8.682628588528e-02 
       1.573123280165e+01       7.038416086891e-02 
       1.698619445202e+01       5.694589542948e-02 
       1.834127087176e+01       4.597010507511e-02 
       1.980444873285e+01       3.701231319567e-02 
       2.138435184532e+01       2.970802639820e-02 
       2.309029198506e+01       2.375769051639e-02 
       2.493232377636e+01       1.891602332093e-02 
       2.692130395282e+01       1.498303969253e-02 
       2.906895534573e+01       1.179344434557e-02 
       3.138793597714e+01       9.213374474230e-03 
       3.389191366484e+01       7.132651780565e-03 
       3.659564657905e+01       5.461410592628e-03 
       3.951507022538e+01       4.126140607847e-03 
       4.266739136701e+01       3.066537820649e-03 
       4.607118943941e+01       2.233353672682e-03 
       4.974652605557e+01       1.585895180937e-03 
       5.371506324689e+01       1.090551270236e-03 
       5.800019113685e+01       7.194949014453e-04 
       6.262716579983e+01       4.491365223629e-04 
       6.762325811764e+01       2.596043139013e-04 
