# Matter power spectrum P(k) at redshift z=99
# for k=1.04775e-05 to 134.926 h/Mpc,
# number of wavenumbers equal to 255
#    1:k (h/Mpc)              2:P (Mpc/h)^3        
       1.047750691338e-05       7.261927095248e-03 
       1.131335172818e-05       7.820332150716e-03 
       1.221587619877e-05       8.421675382287e-03 
       1.319039970550e-05       9.069257737957e-03 
       1.424266598317e-05       9.766636451076e-03 
       1.537887697396e-05       1.051763973636e-02 
       1.660572938097e-05       1.132639250746e-02 
       1.793045413791e-05       1.219733201503e-02 
       1.936085902737e-05       1.313524187197e-02 
       2.090537469909e-05       1.414527084971e-02 
       2.257310435923e-05       1.523296544485e-02 
       2.437387742372e-05       1.640429654634e-02 
       2.631830745176e-05       1.766569603279e-02 
       2.841785470091e-05       1.902408711155e-02 
       3.068489367268e-05       2.048692967437e-02 
       3.313278604643e-05       2.206225467541e-02 
       3.577595943165e-05       2.375870883844e-02 
       3.862999240274e-05       2.558560669814e-02 
       4.171170631739e-05       2.755297672499e-02 
       4.503926445983e-05       2.967161933403e-02 
       4.863227909323e-05       3.195316455646e-02 
       5.251192705226e-05       3.441013466124e-02 
       5.670107455699e-05       3.705601741691e-02 
       6.122441198393e-05       3.990533412823e-02 
       6.610859938837e-05       4.297372242518e-02 
       7.138242363583e-05       4.627802054836e-02 
       7.707696806873e-05       4.983636159871e-02 
       8.322579570814e-05       5.366826786916e-02 
       8.986514707061e-05       5.779476319715e-02 
       9.703415376577e-05       6.223848221816e-02 
       1.047750691338e-04       6.702379825001e-02 
       1.131335172818e-04       7.217695031058e-02 
       1.221587619877e-04       7.772619030339e-02 
       1.319039970550e-04       8.370193380016e-02 
       1.424266598317e-04       9.013692506642e-02 
       1.537887697396e-04       9.706641130372e-02 
       1.660572938097e-04       1.045283343108e-01 
       1.793045413791e-04       1.125635329183e-01 
       1.936085902737e-04       1.212159592307e-01 
       2.090537469909e-04       1.305329107433e-01 
       2.257310435923e-04       1.405652819358e-01 
       2.437387742372e-04       1.513678275073e-01 
       2.631830745176e-04       1.629994475131e-01 
       2.841785470091e-04       1.755234890476e-01 
       3.068489367268e-04       1.890080645297e-01 
       3.313278604643e-04       2.035263977430e-01 
       3.577595943165e-04       2.191571778043e-01 
       3.862999240274e-04       2.359849423259e-01 
       4.171170631739e-04       2.541004713001e-01 
       4.503926445983e-04       2.736012061158e-01 
       4.863227909323e-04       2.945916774643e-01 
       5.251192705226e-04       3.171839507864e-01 
       5.670107455699e-04       3.414980769108e-01 
       6.122441198393e-04       3.676625416301e-01 
       6.610859938837e-04       3.958147272866e-01 
       7.138242363583e-04       4.261013332066e-01 
       7.707696806873e-04       4.586787880851e-01 
       8.322579570814e-04       4.937136112823e-01 
       8.986514707061e-04       5.313826962079e-01 
       9.703415376577e-04       5.718735176807e-01 
       1.047750691338e-03       6.153841926254e-01 
       1.131335172818e-03       6.621233623126e-01 
       1.221587619877e-03       7.123098743657e-01 
       1.319039970550e-03       7.661721263791e-01 
       1.424266598317e-03       8.239547181305e-01 
       1.537887697396e-03       8.859012282817e-01 
       1.660572938097e-03       9.522589495749e-01 
       1.793045413791e-03       1.023280284736e+00 
       1.936085902737e-03       1.099216542126e+00 
       2.090537469909e-03       1.180313285058e+00 
       2.257310435923e-03       1.266804486831e+00 
       2.437387742372e-03       1.358905328488e+00 
       2.631830745176e-03       1.456803285976e+00 
       2.841785470091e-03       1.560647663065e+00 
       3.068489367268e-03       1.670537010605e+00 
       3.313278604643e-03       1.786505039668e+00 
       3.577595943165e-03       1.908504410148e+00 
       3.862999240274e-03       2.036389468788e+00 
       4.171170631739e-03       2.169898252829e+00 
       4.503926445983e-03       2.308634491992e+00 
       4.863227909323e-03       2.452050674792e+00 
       5.251192705226e-03       2.599434681139e+00 
       5.670107455699e-03       2.749901126459e+00 
       6.122441198393e-03       2.902390058307e+00 
       6.610859938837e-03       3.055671269791e+00 
       7.138242363583e-03       3.208360122795e+00 
       7.707696806873e-03       3.358926651299e+00 
       8.322579570814e-03       3.505726889805e+00 
       8.986514707061e-03       3.647012437817e+00 
       9.703415376577e-03       3.780926179370e+00 
       1.047750691338e-02       3.905492880822e+00 
       1.131335172818e-02       4.018589826346e+00 
       1.221587619877e-02       4.117902889339e+00 
       1.319039970550e-02       4.200917701286e+00 
       1.424266598317e-02       4.264943740370e+00 
       1.537887697392e-02       4.307219671797e+00 
       1.660572938023e-02       4.325062460880e+00 
       1.793045412706e-02       4.316060396266e+00 
       1.936085890181e-02       4.278228937419e+00 
       2.090537352463e-02       4.210204479579e+00 
       2.257309535333e-02       4.111418755693e+00 
       2.437382002918e-02       3.982420944496e+00 
       2.631799944462e-02       3.825168693550e+00 
       2.841644545389e-02       3.643282254398e+00 
       3.067933355377e-02       3.442198713586e+00 
       3.311368470740e-02       3.229241607535e+00 
       3.571840443502e-02       3.013516344355e+00 
       3.847720348444e-02       2.805283956768e+00 
       4.135335538431e-02       2.614410684906e+00 
       4.429361667738e-02       2.448132207894e+00 
       4.724366439141e-02       2.309240680517e+00 
       5.016480835311e-02       2.196115236779e+00 
       5.303989620246e-02       2.104369912310e+00 
       5.586870669566e-02       2.028462659386e+00 
       5.866042680613e-02       1.963155392193e+00 
       6.142798932958e-02       1.903779805695e+00 
       6.418496440164e-02       1.846479322162e+00 
       6.694418833788e-02       1.788197605351e+00 
       6.971731106057e-02       1.726715821981e+00 
       7.251476155766e-02       1.660654545143e+00 
       7.534587671527e-02       1.589470020762e+00 
       7.821907666265e-02       1.513436755077e+00 
       8.114203772912e-02       1.433568956502e+00 
       8.412184535029e-02       1.351492466463e+00 
       8.716512279304e-02       1.269273954541e+00 
       9.027813695930e-02       1.189193403237e+00 
       9.346688431697e-02       1.113501354125e+00 
       9.673716028276e-02       1.044174705744e+00 
       1.000946150830e-01       9.827062460341e-01 
       1.035447986537e-01       9.299364690735e-01 
       1.070931966762e-01       8.859587686197e-01 
       1.107452594425e-01       8.500713505724e-01 
       1.145064249153e-01       8.208035949032e-01 
       1.183821370918e-01       7.960245088235e-01 
       1.223778605862e-01       7.731459198799e-01 
       1.264990921987e-01       7.494523323214e-01 
       1.307513701367e-01       7.225578237052e-01 
       1.351402814784e-01       6.909098801827e-01 
       1.396714684203e-01       6.541826994165e-01 
       1.443506338194e-01       6.134281731691e-01 
       1.491835465229e-01       5.708688575655e-01 
       1.541760469708e-01       5.293641627338e-01 
       1.593340535561e-01       4.917107093448e-01 
       1.646635702297e-01       4.599198104722e-01 
       1.701706958456e-01       4.347277507843e-01 
       1.758616357459e-01       4.154076424321e-01 
       1.817427160982e-01       3.999360473916e-01 
       1.878204015065e-01       3.856856157143e-01 
       1.941013164283e-01       3.698139164696e-01 
       2.005922709503e-01       3.505513187213e-01 
       2.073002914972e-01       3.280462583290e-01 
       2.142326570816e-01       3.042131928306e-01 
       2.213969417533e-01       2.816113539290e-01 
       2.288010639706e-01       2.622565641726e-01 
       2.364533437147e-01       2.469615444869e-01 
       2.443625682930e-01       2.350126657998e-01 
       2.525380679504e-01       2.244200849380e-01 
       2.609898026346e-01       2.130957397295e-01 
       2.697284615565e-01       2.001023090166e-01 
       2.787655775689e-01       1.860195369090e-01 
       2.881136588829e-01       1.725167616492e-01 
       2.977863412677e-01       1.610656392717e-01 
       3.077985646929e-01       1.517603799892e-01 
       3.181667794071e-01       1.435590037531e-01 
       3.289091877812e-01       1.351814198697e-01 
       3.400460299658e-01       1.261638679478e-01 
       3.515999236474e-01       1.172015026784e-01 
       3.635962711085e-01       1.091764354963e-01 
       3.760637506334e-01       1.023088392015e-01 
       3.890349143879e-01       9.593722650763e-02 
       4.025469216825e-01       8.950726017152e-02 
       4.166424456376e-01       8.311134245380e-02 
       4.313708035863e-01       7.721505964247e-02 
       4.467893782977e-01       7.190013341184e-02 
       4.629654199664e-01       6.686859546209e-02 
       4.799783501994e-01       6.191708627109e-02 
       4.979227319373e-01       5.722178979640e-02 
       5.169121270864e-01       5.290244115154e-02 
       5.370841404489e-01       4.876932989361e-02 
       5.586070464571e-01       4.479028098676e-02 
       5.816885094930e-01       4.105145927884e-02 
       6.065870144995e-01       3.748948346945e-02 
       6.336266468475e-01       3.407577203242e-02 
       6.632156059511e-01       3.083410145301e-02 
       6.958678639263e-01       2.772793444924e-02 
       7.322247985589e-01       2.476671861480e-02 
       7.730680195114e-01       2.193918536501e-02 
       8.193049553677e-01       1.925572980876e-02 
       8.718988016039e-01       1.672889793375e-02 
       9.317218031082e-01       1.438376427497e-02 
       9.993660908989e-01       1.225025043247e-02 
       1.075037110174e+00       1.035218250073e-02 
       1.158653485707e+00       8.699260021521e-03 
       1.250099157308e+00       7.284168479452e-03 
       1.349432401273e+00       6.085039669002e-03 
       1.456947457397e+00       5.075302804020e-03 
       1.573135111331e+00       4.227892265437e-03 
       1.698621895592e+00       3.518131119278e-03 
       1.834127512934e+00       2.924565659356e-03 
       1.980444934528e+00       2.428737323716e-03 
       2.138435191726e+00       2.015082555880e-03 
       2.309029199186e+00       1.670361250920e-03 
       2.493232377687e+00       1.383382930350e-03 
       2.692130395285e+00       1.144722063278e-03 
       2.906895534573e+00       9.464502342000e-04 
       3.138793597714e+00       7.818833421283e-04 
       3.389191366484e+00       6.454237260722e-04 
       3.659564657905e+00       5.323700373461e-04 
       3.951507022538e+00       4.387862007829e-04 
       4.266739136701e+00       3.613943879928e-04 
       4.607118943941e+00       2.974355623529e-04 
       4.974652605557e+00       2.446228983423e-04 
       5.371506324689e+00       2.010481855378e-04 
       5.800019113685e+00       1.651215506935e-04 
       6.262716579983e+00       1.355215004682e-04 
       6.762325811764e+00       1.111497313317e-04 
       7.301791451110e+00       9.109838341769e-05 
       7.884293049406e+00       7.461102021539e-05 
       8.513263807261e+00       6.106279918060e-05 
       9.192410809424e+00       4.993727650203e-05 
       9.925736873929e+00       4.080603000640e-05 
       1.071756414427e+01       3.331599368766e-05 
       1.157255956364e+01       2.717571166110e-05 
       1.249576238137e+01       2.214468451538e-05 
       1.349261385375e+01       1.802473444419e-05 
       1.456898931416e+01       1.465270549946e-05 
       1.573123280165e+01       1.189410419827e-05 
       1.698619445202e+01       9.638538720494e-06 
       1.834127087176e+01       7.795397549992e-06 
       1.980444873285e+01       6.289982968520e-06 
       2.138435184532e+01       5.061138913404e-06 
       2.309029198506e+01       4.058762050755e-06 
       2.493232377636e+01       3.241760748875e-06 
       2.692130395282e+01       2.576507196553e-06 
       2.906895534573e+01       2.035522843439e-06 
       3.138793597714e+01       1.596371878613e-06 
       3.389191366484e+01       1.240677675759e-06 
       3.659564657905e+01       9.535801627692e-07 
       3.951507022538e+01       7.228208436353e-07 
       4.266739136701e+01       5.385778720675e-07 
       4.607118943941e+01       3.927327090211e-07 
       4.974652605557e+01       2.786847302445e-07 
       5.371506324689e+01       1.909735494163e-07 
       5.800019113685e+01       1.250661541194e-07 
       6.262716579983e+01       7.710035969850e-08 
       6.762325811764e+01       4.370614512396e-08 
       7.301791451110e+01       2.190755487865e-08 
       7.884293049406e+01       8.993241434278e-09 
       8.513263807261e+01       2.490843226615e-09 
       9.192410809424e+01       1.856365784342e-10 
       9.925736873929e+01       1.883127366968e-10 
       1.071756414427e+02       1.027831911476e-09 
       1.157255956364e+02       1.738807311119e-09 
       1.249576238137e+02       1.883176115871e-09 
       1.349261385375e+02       1.486724124603e-09 
