# Matter power spectrum P(k) at redshift z=0
# for k=1.04775e-05 to 67.6233 h/Mpc,
# number of wavenumbers equal to 246
#    1:k (h/Mpc)              2:P (Mpc/h)^3        
       1.047750691338e-05       5.020964806751e+01 
       1.131335172818e-05       5.407048206554e+01 
       1.221587619877e-05       5.822819063823e+01 
       1.319039970550e-05       6.270562589676e+01 
       1.424266598317e-05       6.752731788102e+01 
       1.537887697396e-05       7.271977200257e+01 
       1.660572938097e-05       7.831147241542e+01 
       1.793045413791e-05       8.433311815128e+01 
       1.936085902737e-05       9.081778242446e+01 
       2.090537469909e-05       9.780108061339e+01 
       2.257310435923e-05       1.053213197032e+02 
       2.437387742372e-05       1.134197377001e+02 
       2.631830745176e-05       1.221408202815e+02 
       2.841785470091e-05       1.315324720916e+02 
       3.068489367268e-05       1.416462093729e+02 
       3.313278604643e-05       1.525374500691e+02 
       3.577595943165e-05       1.642660687078e+02 
       3.862999240274e-05       1.768963504868e+02 
       4.171170631739e-05       1.904975992460e+02 
       4.503926445983e-05       2.051444490305e+02 
       4.863227909323e-05       2.209171463752e+02 
       5.251192705226e-05       2.379022222314e+02 
       5.670107455699e-05       2.561927925825e+02 
       6.122441198393e-05       2.758890441791e+02 
       6.610859938837e-05       2.970989225466e+02 
       7.138242363583e-05       3.199385558200e+02 
       7.707696806873e-05       3.445329780878e+02 
       8.322579570814e-05       3.710167315928e+02 
       8.986514707061e-05       3.995346440954e+02 
       9.703415376577e-05       4.302425403884e+02 
       1.047750691338e-04       4.633080762974e+02 
       1.131335172818e-04       4.989116267507e+02 
       1.221587619877e-04       5.372471946561e+02 
       1.319039970550e-04       5.785234124628e+02 
       1.424266598317e-04       6.229645930980e+02 
       1.537887697396e-04       6.708118484951e+02 
       1.660572938097e-04       7.223242660220e+02 
       1.793045413791e-04       7.777801554411e+02 
       1.936085902737e-04       8.374783607333e+02 
       2.090537469909e-04       9.017396264495e+02 
       2.257310435923e-04       9.709080260152e+02 
       2.437387742372e-04       1.045352448644e+03 
       2.631830745176e-04       1.125468122836e+03 
       2.841785470091e-04       1.211678179511e+03 
       3.068489367268e-04       1.304435249091e+03 
       3.313278604643e-04       1.404223052541e+03 
       3.577595943165e-04       1.511558013390e+03 
       3.862999240274e-04       1.626990836461e+03 
       4.171170631739e-04       1.751108027371e+03 
       4.503926445983e-04       1.884533381345e+03 
       4.863227909323e-04       2.027929376471e+03 
       5.251192705226e-04       2.181998446368e+03 
       5.670107455699e-04       2.347484100857e+03 
       6.122441198393e-04       2.525171869336e+03 
       6.610859938837e-04       2.715889981401e+03 
       7.138242363583e-04       2.920509686084e+03 
       7.707696806873e-04       3.139945097710e+03 
       8.322579570814e-04       3.375152334395e+03 
       8.986514707061e-04       3.627127828231e+03 
       9.703415376577e-04       3.896905450016e+03 
       1.047750691338e-03       4.185552170960e+03 
       1.131335172818e-03       4.494162426791e+03 
       1.221587619877e-03       4.823850702661e+03 
       1.319039970550e-03       5.175742735031e+03 
       1.424266598317e-03       5.551019592523e+03 
       1.537887697396e-03       5.950788335883e+03 
       1.660572938097e-03       6.376123046806e+03 
       1.793045413791e-03       6.828073896112e+03 
       1.936085902737e-03       7.307625375386e+03 
       2.090537469909e-03       7.815671860122e+03 
       2.257310435923e-03       8.352990369402e+03 
       2.437387742372e-03       8.920211057540e+03 
       2.631830745176e-03       9.517783061889e+03 
       2.841785470091e-03       1.014593703671e+04 
       3.068489367268e-03       1.080464505749e+04 
       3.313278604643e-03       1.149357459439e+04 
       3.577595943165e-03       1.221203620826e+04 
       3.862999240274e-03       1.295892538505e+04 
       4.171170631739e-03       1.373265984980e+04 
       4.503926445983e-03       1.453111834594e+04 
       4.863227909323e-03       1.535154984223e+04 
       5.251192705226e-03       1.619063613418e+04 
       5.670107455699e-03       1.704431256570e+04 
       6.122441198393e-03       1.790755938459e+04 
       6.610859938837e-03       1.877460422386e+04 
       7.138242363583e-03       1.963872429118e+04 
       7.707696806873e-03       2.049215713205e+04 
       8.322579570814e-03       2.132607230649e+04 
       8.986514707061e-03       2.213055045104e+04 
       9.703415376577e-03       2.289445470881e+04 
       1.047750691338e-02       2.360548207179e+04 
       1.131335172818e-02       2.425023248505e+04 
       1.221587619877e-02       2.481423920596e+04 
       1.319039970550e-02       2.528218622130e+04 
       1.424266598317e-02       2.563814408728e+04 
       1.537887697392e-02       2.586606645764e+04 
       1.660572938023e-02       2.595027553614e+04 
       1.793045412706e-02       2.587635571249e+04 
       1.936085890181e-02       2.563218574240e+04 
       2.090537352463e-02       2.520935471490e+04 
       2.257309535333e-02       2.460447319097e+04 
       2.437382002918e-02       2.382088501953e+04 
       2.631799944462e-02       2.287046150508e+04 
       2.841644545389e-02       2.177449705452e+04 
       3.067933355377e-02       2.056555229916e+04 
       3.311368470740e-02       1.928733550642e+04 
       3.571840443502e-02       1.799404569576e+04 
       3.847720348444e-02       1.674683771419e+04 
       4.135335538431e-02       1.560457260841e+04 
       4.429361667738e-02       1.461039618167e+04 
       4.724366439141e-02       1.378050819409e+04 
       5.016480835311e-02       1.310509425709e+04 
       5.303989620246e-02       1.255714152240e+04 
       5.586870669566e-02       1.210423754672e+04 
       5.866042680613e-02       1.171466162659e+04 
       6.142798932958e-02       1.136046686214e+04 
       6.418496440164e-02       1.101857552230e+04 
       6.694418833788e-02       1.067068937049e+04 
       6.971731106057e-02       1.030357305030e+04 
       7.251476155766e-02       9.909000456505e+03 
       7.534587671527e-02       9.483774337302e+03 
       7.821907666265e-02       9.029485514006e+03 
       8.114203772912e-02       8.552315972113e+03 
       8.412184535029e-02       8.061923564556e+03 
       8.716512279304e-02       7.570771799039e+03 
       9.027813695930e-02       7.092468063642e+03 
       9.346688431697e-02       6.640541294165e+03 
       9.673716028276e-02       6.226713040628e+03 
       1.000946150830e-01       5.859938266238e+03 
       1.035447986537e-01       5.545250744014e+03 
       1.070931966762e-01       5.283159673296e+03 
       1.107452594425e-01       5.069412802620e+03 
       1.145064249153e-01       4.895262129155e+03 
       1.183821370918e-01       4.747849972216e+03 
       1.223778605862e-01       4.611722189247e+03 
       1.264990921987e-01       4.470618966252e+03 
       1.307513701367e-01       4.310252751249e+03 
       1.351402814784e-01       4.121374596473e+03 
       1.396714684203e-01       3.902056839906e+03 
       1.443506338194e-01       3.658669098303e+03 
       1.491835465229e-01       3.404490983053e+03 
       1.541760469708e-01       3.156673205877e+03 
       1.593340535561e-01       2.931980657945e+03 
       1.646635702297e-01       2.742374518502e+03 
       1.701706958456e-01       2.592255323071e+03 
       1.758616357459e-01       2.477250383980e+03 
       1.817427160982e-01       2.385188264976e+03 
       1.878204015065e-01       2.300361286691e+03 
       1.941013164283e-01       2.205761552608e+03 
       2.005922709503e-01       2.090818067349e+03 
       2.073002914972e-01       1.956466344963e+03 
       2.142326570816e-01       1.814192201636e+03 
       2.213969417533e-01       1.679295862257e+03 
       2.288010639706e-01       1.563845976974e+03 
       2.364533437147e-01       1.472684562521e+03 
       2.443625682930e-01       1.401512766262e+03 
       2.525380679504e-01       1.338417041767e+03 
       2.609898026346e-01       1.270901409054e+03 
       2.697284615565e-01       1.193381672115e+03 
       2.787655775689e-01       1.109337969861e+03 
       2.881136588829e-01       1.028769689743e+03 
       2.977863412677e-01       9.604811598086e+02 
       3.077985646929e-01       9.050227959696e+02 
       3.181667794071e-01       8.561451411464e+02 
       3.289091877812e-01       8.061872617933e+02 
       3.400460299658e-01       7.523897518823e+02 
       3.515999236474e-01       6.989205968394e+02 
       3.635962711085e-01       6.510624284347e+02 
       3.760637506334e-01       6.101205775119e+02 
       3.890349143879e-01       5.721308239687e+02 
       4.025469216825e-01       5.337813560648e+02 
       4.166424456376e-01       4.956312508390e+02 
       4.313708035863e-01       4.604691507648e+02 
       4.467893782977e-01       4.287766518958e+02 
       4.629654199664e-01       3.987713586092e+02 
       4.799783501994e-01       3.692413548368e+02 
       4.979227319373e-01       3.412405322022e+02 
       5.169121270864e-01       3.154834456450e+02 
       5.370841404489e-01       2.908360759233e+02 
       5.586070464571e-01       2.671054708967e+02 
       5.816885094930e-01       2.448080583590e+02 
       6.065870144995e-01       2.235666767677e+02 
       6.336266468475e-01       2.032091159538e+02 
       6.632156059511e-01       1.838780406779e+02 
       6.958678639263e-01       1.653541404260e+02 
       7.322247985589e-01       1.476947780544e+02 
       7.730680195114e-01       1.308329925568e+02 
       8.193049553677e-01       1.148303868967e+02 
       8.718988016039e-01       9.976187689785e+01 
       9.317218031082e-01       8.577730891668e+01 
       9.993660908989e-01       7.305418685729e+01 
       1.075037110174e+00       6.173496448926e+01 
       1.158653485707e+00       5.187821526045e+01 
       1.250099157308e+00       4.343934687722e+01 
       1.349432401273e+00       3.628830042257e+01 
       1.456947457397e+00       3.026668662361e+01 
       1.573135111331e+00       2.521331652429e+01 
       1.698621895592e+00       2.098076189642e+01 
       1.834127512934e+00       1.744104158513e+01 
       1.980444934528e+00       1.448435945598e+01 
       2.138435191726e+00       1.201757281776e+01 
       2.309029199186e+00       9.961747837473e+00 
       2.493232377687e+00       8.250390637680e+00 
       2.692130395285e+00       6.827138320981e+00 
       2.906895534573e+00       5.644735860884e+00 
       3.138793597714e+00       4.663382874229e+00 
       3.389191366484e+00       3.849589008279e+00 
       3.659564657905e+00       3.175389217709e+00 
       3.951507022538e+00       2.617323800018e+00 
       4.266739136701e+00       2.155772184213e+00 
       4.607118943941e+00       1.774345488307e+00 
       4.974652605557e+00       1.459396330190e+00 
       5.371506324689e+00       1.199519487855e+00 
       5.800019113685e+00       9.852521303736e-01 
       6.262716579983e+00       8.087308699443e-01 
       6.762325811764e+00       6.633761330086e-01 
       7.301791451110e+00       5.437835365440e-01 
       7.884293049406e+00       4.454529710654e-01 
       8.513263807261e+00       3.646465395052e-01 
       9.192410809424e+00       2.982888686451e-01 
       9.925736873929e+00       2.438251705095e-01 
       1.071756414427e+01       1.991515949407e-01 
       1.157255956364e+01       1.625272972787e-01 
       1.249576238137e+01       1.325218644608e-01 
       1.349261385375e+01       1.079492266208e-01 
       1.456898931416e+01       8.784002290048e-02 
       1.573123280165e+01       7.138929090999e-02 
       1.698619445202e+01       5.794130726543e-02 
       1.834127087176e+01       4.695353762265e-02 
       1.980444873285e+01       3.798102356525e-02 
       2.138435184532e+01       3.065878304421e-02 
       2.309029198506e+01       2.468777987308e-02 
       2.493232377636e+01       1.982242253151e-02 
       2.692130395282e+01       1.586139133382e-02 
       2.906895534573e+01       1.264052073317e-02 
       3.138793597714e+01       1.002479810296e-02 
       3.389191366484e+01       7.904323624459e-03 
       3.659564657905e+01       6.188946004306e-03 
       3.951507022538e+01       4.805108314154e-03 
       4.266739136701e+01       3.692926903766e-03 
       4.607118943941e+01       2.803129699406e-03 
       4.974652605557e+01       2.095823914621e-03 
       5.371506324689e+01       1.538005661991e-03 
       5.800019113685e+01       1.102829150156e-03 
       6.262716579983e+01       7.680445918924e-04 
       6.762325811764e+01       5.152205856155e-04 
