# Matter power spectrum P(k) at redshift z=0
# for k=1.04775e-05 to 67.6233 h/Mpc,
# number of wavenumbers equal to 246
#    1:k (h/Mpc)              2:P (Mpc/h)^3        
       1.047750691338e-05       5.020964806750e+01 
       1.131335172818e-05       5.407048206553e+01 
       1.221587619877e-05       5.822819063940e+01 
       1.319039970550e-05       6.270562589684e+01 
       1.424266598317e-05       6.752731788102e+01 
       1.537887697396e-05       7.271977200258e+01 
       1.660572938097e-05       7.831147241542e+01 
       1.793045413791e-05       8.433311815128e+01 
       1.936085902737e-05       9.081778242446e+01 
       2.090537469909e-05       9.780108061339e+01 
       2.257310435923e-05       1.053213197032e+02 
       2.437387742372e-05       1.134197377001e+02 
       2.631830745176e-05       1.221408202816e+02 
       2.841785470091e-05       1.315324720916e+02 
       3.068489367268e-05       1.416462093730e+02 
       3.313278604643e-05       1.525374500691e+02 
       3.577595943165e-05       1.642660687078e+02 
       3.862999240274e-05       1.768963504868e+02 
       4.171170631739e-05       1.904975992460e+02 
       4.503926445983e-05       2.051444490305e+02 
       4.863227909323e-05       2.209171463752e+02 
       5.251192705226e-05       2.379022222314e+02 
       5.670107455699e-05       2.561927925884e+02 
       6.122441198393e-05       2.758890441791e+02 
       6.610859938837e-05       2.970989225466e+02 
       7.138242363583e-05       3.199385558200e+02 
       7.707696806873e-05       3.445329780878e+02 
       8.322579570814e-05       3.710167315928e+02 
       8.986514707061e-05       3.995346440954e+02 
       9.703415376577e-05       4.302425403884e+02 
       1.047750691338e-04       4.633080762974e+02 
       1.131335172818e-04       4.989116267507e+02 
       1.221587619877e-04       5.372471946561e+02 
       1.319039970550e-04       5.785234124634e+02 
       1.424266598317e-04       6.229645930980e+02 
       1.537887697396e-04       6.708118484951e+02 
       1.660572938097e-04       7.223242660220e+02 
       1.793045413791e-04       7.777801552693e+02 
       1.936085902737e-04       8.374783607333e+02 
       2.090537469909e-04       9.017396264495e+02 
       2.257310435923e-04       9.709080260152e+02 
       2.437387742372e-04       1.045352448644e+03 
       2.631830745176e-04       1.125468122836e+03 
       2.841785470091e-04       1.211678179511e+03 
       3.068489367268e-04       1.304435249091e+03 
       3.313278604643e-04       1.404223052541e+03 
       3.577595943165e-04       1.511558013390e+03 
       3.862999240274e-04       1.626990836490e+03 
       4.171170631739e-04       1.751108027371e+03 
       4.503926445983e-04       1.884533381345e+03 
       4.863227909323e-04       2.027929376470e+03 
       5.251192705226e-04       2.181998446368e+03 
       5.670107455699e-04       2.347484100857e+03 
       6.122441198393e-04       2.525171869338e+03 
       6.610859938837e-04       2.715889981400e+03 
       7.138242363583e-04       2.920509686089e+03 
       7.707696806873e-04       3.139945097711e+03 
       8.322579570814e-04       3.375152334397e+03 
       8.986514707061e-04       3.627127828231e+03 
       9.703415376577e-04       3.896905450016e+03 
       1.047750691338e-03       4.185552170959e+03 
       1.131335172818e-03       4.494162426791e+03 
       1.221587619877e-03       4.823850702667e+03 
       1.319039970550e-03       5.175742738654e+03 
       1.424266598317e-03       5.551019592511e+03 
       1.537887697396e-03       5.950788335878e+03 
       1.660572938097e-03       6.376123046807e+03 
       1.793045413791e-03       6.828073896116e+03 
       1.936085902737e-03       7.307625375386e+03 
       2.090537469909e-03       7.815671859954e+03 
       2.257310435923e-03       8.352990369395e+03 
       2.437387742372e-03       8.920211057546e+03 
       2.631830745176e-03       9.517783061890e+03 
       2.841785470091e-03       1.014593703671e+04 
       3.068489367268e-03       1.080464505736e+04 
       3.313278604643e-03       1.149357459544e+04 
       3.577595943165e-03       1.221203620826e+04 
       3.862999240274e-03       1.295892538505e+04 
       4.171170631739e-03       1.373266002591e+04 
       4.503926445983e-03       1.453111834595e+04 
       4.863227909323e-03       1.535154984227e+04 
       5.251192705226e-03       1.619063613436e+04 
       5.670107455699e-03       1.704431256602e+04 
       6.122441198393e-03       1.790755938444e+04 
       6.610859938837e-03       1.877460429693e+04 
       7.138242363583e-03       1.963872429095e+04 
       7.707696806873e-03       2.049215713488e+04 
       8.322579570814e-03       2.132607230443e+04 
       8.986514707061e-03       2.213055125818e+04 
       9.703415376577e-03       2.289445470789e+04 
       1.047750691338e-02       2.360548918745e+04 
       1.131335172818e-02       2.425022889388e+04 
       1.221587619877e-02       2.481423920306e+04 
       1.319039970550e-02       2.528218770141e+04 
       1.424266598317e-02       2.563813678406e+04 
       1.537887697392e-02       2.586607816914e+04 
       1.660572938023e-02       2.595027458835e+04 
       1.793045412706e-02       2.587633826583e+04 
       1.936085890181e-02       2.563220840640e+04 
       2.090537352463e-02       2.520935625774e+04 
       2.257309535333e-02       2.460446379043e+04 
       2.437382002918e-02       2.382087697637e+04 
       2.631799944462e-02       2.287044298154e+04 
       2.841644545389e-02       2.177450123070e+04 
       3.067933355377e-02       2.056558615201e+04 
       3.311368470740e-02       1.928730943560e+04 
       3.571840443502e-02       1.799403163935e+04 
       3.847720348444e-02       1.674683091332e+04 
       4.135335538431e-02       1.560461839821e+04 
       4.429361667738e-02       1.461040056731e+04 
       4.724366439141e-02       1.378054110848e+04 
       5.016480835311e-02       1.310505936986e+04 
       5.303989620246e-02       1.255714950495e+04 
       5.586870669566e-02       1.210423826946e+04 
       5.866042680613e-02       1.171465300370e+04 
       6.142798932958e-02       1.136050387740e+04 
       6.418496440164e-02       1.101854673500e+04 
       6.694418833788e-02       1.067070217003e+04 
       6.971731106057e-02       1.030357158553e+04 
       7.251476155766e-02       9.908985354360e+03 
       7.534587671527e-02       9.483782728877e+03 
       7.821907666265e-02       9.029487807630e+03 
       8.114203772912e-02       8.552317195932e+03 
       8.412184535029e-02       8.061974446597e+03 
       8.716512279304e-02       7.570777666925e+03 
       9.027813695930e-02       7.092503029451e+03 
       9.346688431697e-02       6.640483945444e+03 
       9.673716028276e-02       6.226701553692e+03 
       1.000946150830e-01       5.859938654270e+03 
       1.035447986537e-01       5.545247987372e+03 
       1.070931966762e-01       5.283129972184e+03 
       1.107452594425e-01       5.069417339862e+03 
       1.145064249153e-01       4.895240360484e+03 
       1.183821370918e-01       4.747840361487e+03 
       1.223778605862e-01       4.611733613038e+03 
       1.264990921987e-01       4.470619400895e+03 
       1.307513701367e-01       4.310273304958e+03 
       1.351402814784e-01       4.121384518881e+03 
       1.396714684203e-01       3.902066544108e+03 
       1.443506338194e-01       3.658635816303e+03 
       1.491835465229e-01       3.404478547628e+03 
       1.541760469708e-01       3.156668680933e+03 
       1.593340535561e-01       2.931977456995e+03 
       1.646635702297e-01       2.742370916311e+03 
       1.701706958456e-01       2.592257678645e+03 
       1.758616357459e-01       2.477239076071e+03 
       1.817427160982e-01       2.385188466818e+03 
       1.878204015065e-01       2.300365474341e+03 
       1.941013164283e-01       2.205761431973e+03 
       2.005922709503e-01       2.090817047809e+03 
       2.073002914972e-01       1.956469549940e+03 
       2.142326570816e-01       1.814190179571e+03 
       2.213969417533e-01       1.679292311827e+03 
       2.288010639706e-01       1.563847512836e+03 
       2.364533437147e-01       1.472689091145e+03 
       2.443625682930e-01       1.401512754949e+03 
       2.525380679504e-01       1.338415195840e+03 
       2.609898026346e-01       1.270901853826e+03 
       2.697284615565e-01       1.193384875404e+03 
       2.787655775689e-01       1.109338247830e+03 
       2.881136588829e-01       1.028772328572e+03 
       2.977863412677e-01       9.604824717298e+02 
       3.077985646929e-01       9.050248938461e+02 
       3.181667794071e-01       8.561458801434e+02 
       3.289091877812e-01       8.061914081368e+02 
       3.400460299658e-01       7.523918161303e+02 
       3.515999236474e-01       6.989247666929e+02 
       3.635962711085e-01       6.510644175230e+02 
       3.760637506334e-01       6.101255596288e+02 
       3.890349143879e-01       5.721332440964e+02 
       4.025469216825e-01       5.337813628185e+02 
       4.166424456376e-01       4.956316712970e+02 
       4.313708035863e-01       4.604714840230e+02 
       4.467893782977e-01       4.287787559699e+02 
       4.629654199664e-01       3.987740191908e+02 
       4.799783501994e-01       3.692415579988e+02 
       4.979227319373e-01       3.412408308287e+02 
       5.169121270864e-01       3.154846250058e+02 
       5.370841404489e-01       2.908357408129e+02 
       5.586070464571e-01       2.671072422696e+02 
       5.816885094930e-01       2.448096820302e+02 
       6.065870144995e-01       2.235679565294e+02 
       6.336266468475e-01       2.032110431970e+02 
       6.632156059511e-01       1.838794818045e+02 
       6.958678639263e-01       1.653550023502e+02 
       7.322247985589e-01       1.476958188375e+02 
       7.730680195114e-01       1.308340606478e+02 
       8.193049553677e-01       1.148315328889e+02 
       8.718988016039e-01       9.976271455831e+01 
       9.317218031082e-01       8.577806871002e+01 
       9.993660908989e-01       7.305499226257e+01 
       1.075037110174e+00       6.173616947504e+01 
       1.158653485707e+00       5.187934075196e+01 
       1.250099157308e+00       4.344041565019e+01 
       1.349432401273e+00       3.628958366670e+01 
       1.456947457397e+00       3.026807413213e+01 
       1.573135111331e+00       2.521464596953e+01 
       1.698621895592e+00       2.098214050895e+01 
       1.834127512934e+00       1.744252083704e+01 
       1.980444934528e+00       1.448574949174e+01 
       2.138435191726e+00       1.201905700694e+01 
       2.309029199186e+00       9.963170832201e+00 
       2.493232377687e+00       8.251879568176e+00 
       2.692130395285e+00       6.828666811023e+00 
       2.906895534573e+00       5.646283023418e+00 
       3.138793597714e+00       4.664921602407e+00 
       3.389191366484e+00       3.851142408853e+00 
       3.659564657905e+00       3.176953630704e+00 
       3.951507022538e+00       2.618898191361e+00 
       4.266739136701e+00       2.157356307698e+00 
       4.607118943941e+00       1.775940546097e+00 
       4.974652605557e+00       1.461004238277e+00 
       5.371506324689e+00       1.201142989287e+00 
       5.800019113685e+00       9.868859664062e-01 
       6.262716579983e+00       8.103639034396e-01 
       6.762325811764e+00       6.650167094132e-01 
       7.301791451110e+00       5.454287696439e-01 
       7.884293049406e+00       4.470983570197e-01 
       8.513263807261e+00       3.662998527359e-01 
       9.192410809424e+00       2.999419857567e-01 
       9.925736873929e+00       2.454824232151e-01 
       1.071756414427e+01       2.008091128942e-01 
       1.157255956364e+01       1.641838335946e-01 
       1.249576238137e+01       1.341776962250e-01 
       1.349261385375e+01       1.096030528552e-01 
       1.456898931416e+01       8.948875898869e-02 
       1.573123280165e+01       7.303466242518e-02 
       1.698619445202e+01       5.957839807433e-02 
       1.834127087176e+01       4.858129017482e-02 
       1.980444873285e+01       3.959728023569e-02 
       2.138435184532e+01       3.226106614120e-02 
       2.309029198506e+01       2.627360435498e-02 
       2.493232377636e+01       2.138849504455e-02 
       2.692130395282e+01       1.740488872902e-02 
       2.906895534573e+01       1.415744684343e-02 
       3.138793597714e+01       1.151134571550e-02 
       3.389191366484e+01       9.355994242984e-03 
       3.659564657905e+01       7.601243315115e-03 
       3.951507022538e+01       6.173065929509e-03 
       4.266739136701e+01       5.011199554558e-03 
       4.607118943941e+01       4.066238674488e-03 
       4.974652605557e+01       3.298020838279e-03 
       5.371506324689e+01       2.673732549389e-03 
       5.800019113685e+01       2.166567751360e-03 
       6.262716579983e+01       1.754755151310e-03 
       6.762325811764e+01       1.420478345314e-03 
