# Matter power spectrum P(k) at redshift z=99
# for k=1.04775e-05 to 134.926 h/Mpc,
# number of wavenumbers equal to 255
#    1:k (h/Mpc)              2:P (Mpc/h)^3        
       1.047750691338e-05       7.261927095961e-03 
       1.131335172818e-05       7.820332151483e-03 
       1.221587619877e-05       8.421675383114e-03 
       1.319039970550e-05       9.069257738847e-03 
       1.424266598317e-05       9.766636452035e-03 
       1.537887697396e-05       1.051763973739e-02 
       1.660572938097e-05       1.132639250857e-02 
       1.793045413791e-05       1.219733201622e-02 
       1.936085902737e-05       1.313524187325e-02 
       2.090537469909e-05       1.414527085110e-02 
       2.257310435923e-05       1.523296544635e-02 
       2.437387742372e-05       1.640429654795e-02 
       2.631830745176e-05       1.766569603452e-02 
       2.841785470091e-05       1.902408711342e-02 
       3.068489367268e-05       2.048692967638e-02 
       3.313278604643e-05       2.206225467757e-02 
       3.577595943165e-05       2.375870884077e-02 
       3.862999240274e-05       2.558560670065e-02 
       4.171170631739e-05       2.755297672769e-02 
       4.503926445983e-05       2.967161933695e-02 
       4.863227909323e-05       3.195316455959e-02 
       5.251192705226e-05       3.441013466461e-02 
       5.670107455699e-05       3.705601742055e-02 
       6.122441198393e-05       3.990533413215e-02 
       6.610859938837e-05       4.297372242940e-02 
       7.138242363583e-05       4.627802055290e-02 
       7.707696806873e-05       4.983636160361e-02 
       8.322579570814e-05       5.366826787442e-02 
       8.986514707061e-05       5.779476320281e-02 
       9.703415376577e-05       6.223848222425e-02 
       1.047750691338e-04       6.702379825655e-02 
       1.131335172818e-04       7.217695031762e-02 
       1.221587619877e-04       7.772619031097e-02 
       1.319039970550e-04       8.370193380831e-02 
       1.424266598317e-04       9.013692507519e-02 
       1.537887697396e-04       9.706641131316e-02 
       1.660572938097e-04       1.045283343210e-01 
       1.793045413791e-04       1.125635329292e-01 
       1.936085902737e-04       1.212159592424e-01 
       2.090537469909e-04       1.305329107559e-01 
       2.257310435923e-04       1.405652819493e-01 
       2.437387742372e-04       1.513678275218e-01 
       2.631830745176e-04       1.629994475286e-01 
       2.841785470091e-04       1.755234890643e-01 
       3.068489367268e-04       1.890080645475e-01 
       3.313278604643e-04       2.035263977620e-01 
       3.577595943165e-04       2.191571778247e-01 
       3.862999240274e-04       2.359849423476e-01 
       4.171170631739e-04       2.541004713232e-01 
       4.503926445983e-04       2.736012061404e-01 
       4.863227909323e-04       2.945916774903e-01 
       5.251192705226e-04       3.171839508139e-01 
       5.670107455699e-04       3.414980769398e-01 
       6.122441198393e-04       3.676625416605e-01 
       6.610859938837e-04       3.958147273183e-01 
       7.138242363583e-04       4.261013332395e-01 
       7.707696806873e-04       4.586787881189e-01 
       8.322579570814e-04       4.937136113167e-01 
       8.986514707061e-04       5.313826962424e-01 
       9.703415376577e-04       5.718735177147e-01 
       1.047750691338e-03       6.153841926579e-01 
       1.131335172818e-03       6.621233623427e-01 
       1.221587619877e-03       7.123098743918e-01 
       1.319039970550e-03       7.661721263992e-01 
       1.424266598317e-03       8.239547181406e-01 
       1.537887697396e-03       8.859012282769e-01 
       1.660572938097e-03       9.522589495496e-01 
       1.793045413791e-03       1.023280284683e+00 
       1.936085902737e-03       1.099216542037e+00 
       2.090537469909e-03       1.180313284920e+00 
       2.257310435923e-03       1.266804486631e+00 
       2.437387742372e-03       1.358905328206e+00 
       2.631830745176e-03       1.456803285589e+00 
       2.841785470091e-03       1.560647662543e+00 
       3.068489367268e-03       1.670537009911e+00 
       3.313278604643e-03       1.786505038755e+00 
       3.577595943165e-03       1.908504408957e+00 
       3.862999240274e-03       2.036389467245e+00 
       4.171170631739e-03       2.169898250843e+00 
       4.503926445983e-03       2.308634489449e+00 
       4.863227909323e-03       2.452050671549e+00 
       5.251192705226e-03       2.599434677022e+00 
       5.670107455699e-03       2.749901121248e+00 
       6.122441198393e-03       2.902390051738e+00 
       6.610859938837e-03       3.055671261537e+00 
       7.138242363583e-03       3.208360112447e+00 
       7.707696806873e-03       3.358926638373e+00 
       8.322579570814e-03       3.505726873713e+00 
       8.986514707061e-03       3.647012299336e+00 
       9.703415376577e-03       3.780926154597e+00 
       1.047750691338e-02       3.905492844042e+00 
       1.131335172818e-02       4.018589789067e+00 
       1.221587619877e-02       4.117902843044e+00 
       1.319039970550e-02       4.200917644610e+00 
       1.424266598317e-02       4.264943652931e+00 
       1.537887697392e-02       4.307219544895e+00 
       1.660572938023e-02       4.325062289099e+00 
       1.793045412706e-02       4.316060226434e+00 
       1.936085890181e-02       4.278228668508e+00 
       2.090537352463e-02       4.210204349466e+00 
       2.257309535333e-02       4.111418559098e+00 
       2.437382002918e-02       3.982420698533e+00 
       2.631799944462e-02       3.825168392399e+00 
       2.841644545389e-02       3.643281910076e+00 
       3.067933355377e-02       3.442198307343e+00 
       3.311368470740e-02       3.229241126935e+00 
       3.571840443502e-02       3.013515797077e+00 
       3.847720348444e-02       2.805283327366e+00 
       4.135335538431e-02       2.614409966395e+00 
       4.429361667738e-02       2.448131390189e+00 
       4.724366439141e-02       2.309239757367e+00 
       5.016480835311e-02       2.196114201997e+00 
       5.303989620246e-02       2.104368759755e+00 
       5.586870669566e-02       2.028461383033e+00 
       5.866042680613e-02       1.963153985973e+00 
       6.142798932958e-02       1.903778263643e+00 
       6.418496440164e-02       1.846477638589e+00 
       6.694418833788e-02       1.788195775121e+00 
       6.971731106057e-02       1.726713840645e+00 
       7.251476155766e-02       1.660652409117e+00 
       7.534587671527e-02       1.589467728181e+00 
       7.821907666265e-02       1.513434303229e+00 
       8.114203772912e-02       1.433566345344e+00 
       8.412184535029e-02       1.351489696932e+00 
       8.716512279304e-02       1.269271025510e+00 
       9.027813695930e-02       1.189190311418e+00 
       9.346688431697e-02       1.113498006093e+00 
       9.673716028276e-02       1.044171278167e+00 
       1.000946150830e-01       9.827026371800e-01 
       1.035447986537e-01       9.299343506981e-01 
       1.070931966762e-01       8.859547481278e-01 
       1.107452594425e-01       8.500671044980e-01 
       1.145064249153e-01       8.207990707077e-01 
       1.183821370918e-01       7.960196948072e-01 
       1.223778605862e-01       7.731407969530e-01 
       1.264990921987e-01       7.494472659291e-01 
       1.307513701367e-01       7.225520225108e-01 
       1.351402814784e-01       6.909037363765e-01 
       1.396714684203e-01       6.541762191538e-01 
       1.443506338194e-01       6.134213174603e-01 
       1.491835465229e-01       5.708617578468e-01 
       1.541760469708e-01       5.293567461766e-01 
       1.593340535561e-01       4.917029766708e-01 
       1.646635702297e-01       4.599117306977e-01 
       1.701706958456e-01       4.347192875812e-01 
       1.758616357459e-01       4.153987269459e-01 
       1.817427160982e-01       3.999266239900e-01 
       1.878204015065e-01       3.856756468085e-01 
       1.941013164283e-01       3.698034591765e-01 
       2.005922709503e-01       3.505402363827e-01 
       2.073002914972e-01       3.280346569892e-01 
       2.142326570816e-01       3.042014722830e-01 
       2.213969417533e-01       2.815988877858e-01 
       2.288010639706e-01       2.622435742784e-01 
       2.364533437147e-01       2.469479341083e-01 
       2.443625682930e-01       2.349984266368e-01 
       2.525380679504e-01       2.244051846939e-01 
       2.609898026346e-01       2.130799341147e-01 
       2.697284615565e-01       2.000857035421e-01 
       2.787655775689e-01       1.860025202370e-01 
       2.881136588829e-01       1.724991502791e-01 
       2.977863412677e-01       1.610473661764e-01 
       3.077985646929e-01       1.517411659363e-01 
       3.181667794071e-01       1.435390240140e-01 
       3.289091877812e-01       1.351605219045e-01 
       3.400460299658e-01       1.261422519791e-01 
       3.515999236474e-01       1.171787149933e-01 
       3.635962711085e-01       1.091529668720e-01 
       3.760637506334e-01       1.022845163772e-01 
       3.890349143879e-01       9.591176639357e-02 
       4.025469216825e-01       8.948071428662e-02 
       4.166424456376e-01       8.308359176320e-02 
       4.313708035863e-01       7.718622905318e-02 
       4.467893782977e-01       7.187020619254e-02 
       4.629654199664e-01       6.683744713717e-02 
       4.799783501994e-01       6.188462594910e-02 
       4.979227319373e-01       5.718795113070e-02 
       5.169121270864e-01       5.286718034815e-02 
       5.370841404489e-01       4.873249909809e-02 
       5.586070464571e-01       4.475205485630e-02 
       5.816885094930e-01       4.101131220031e-02 
       6.065870144995e-01       3.744746050884e-02 
       6.336266468475e-01       3.403185571884e-02 
       6.632156059511e-01       3.078797347651e-02 
       6.958678639263e-01       2.767933277561e-02 
       7.322247985589e-01       2.471552554415e-02 
       7.730680195114e-01       2.188510355338e-02 
       8.193049553677e-01       1.919836722597e-02 
       8.718988016039e-01       1.666782030000e-02 
       9.317218031082e-01       1.431872777038e-02 
       9.993660908989e-01       1.218068008248e-02 
       1.075037110174e+00       1.027771099471e-02 
       1.158653485707e+00       8.619580962918e-03 
       1.250099157308e+00       7.198919212603e-03 
       1.349432401273e+00       5.994016175299e-03 
       1.456947457397e+00       4.978295010605e-03 
       1.573135111331e+00       4.124808739542e-03 
       1.698621895592e+00       3.408866102467e-03 
       1.834127512934e+00       2.809073667084e-03 
       1.980444934528e+00       2.307058379968e-03 
       2.138435191726e+00       1.887336050144e-03 
       2.309029199186e+00       1.536730698758e-03 
       2.493232377687e+00       1.244237606457e-03 
       2.692130395285e+00       1.000532759572e-03 
       2.906895534573e+00       7.978592604294e-04 
       3.138793597714e+00       6.297026166980e-04 
       3.389191366484e+00       4.906673751522e-04 
       3.659564657905e+00       3.762572766168e-04 
       3.951507022538e+00       2.827599102405e-04 
       4.266739136701e+00       2.070934836100e-04 
       4.607118943941e+00       1.466959468859e-04 
       4.974652605557e+00       9.941930660452e-05 
       5.371506324689e+00       6.342916122529e-05 
       5.800019113685e+00       3.711436750806e-05 
       6.262716579983e+00       1.899929522089e-05 
       6.762325811764e+00       7.691427271684e-06 
       7.301791451110e+00       1.818292739708e-06 
       7.884293049406e+00       1.004315184532e-08 
       8.513263807261e+00       9.109601262854e-07 
       9.192410809424e+00       3.226315368568e-06 
       9.925736873929e+00       5.806620231854e-06 
       1.071756414427e+01       7.751263541068e-06 
       1.157255956364e+01       8.508985827643e-06 
       1.249576238137e+01       7.946442471913e-06 
       1.349261385375e+01       6.320990018927e-06 
       1.456898931416e+01       4.181059994370e-06 
       1.573123280165e+01       2.155664010143e-06 
       1.698619445202e+01       7.310064833926e-07 
       1.834127087176e+01       7.878272353958e-08 
       1.980444873285e+01       3.446588243425e-08 
       2.138435184532e+01       2.428035367897e-07 
       2.309029198506e+01       3.793975711827e-07 
       2.493232377636e+01       3.252911876743e-07 
       2.692130395282e+01       1.645325880481e-07 
       2.906895534573e+01       3.749585740925e-08 
       3.138793597714e+01       6.861859333485e-11 
       3.389191366484e+01       1.000227191765e-08 
       3.659564657905e+01       1.413165740393e-08 
       3.951507022538e+01       5.598272131774e-09 
       4.266739136701e+01       3.184552480882e-10 
       4.607118943941e+01       2.467677329990e-10 
       4.974652605557e+01       3.128856565815e-10 
       5.371506324689e+01       1.482499217421e-11 
       5.800019113685e+01       2.263005277362e-11 
       6.262716579983e+01       5.309409735153e-12 
       6.762325811764e+01       4.263703889641e-12 
       7.301791451110e+01       2.736206311230e-12 
       7.884293049406e+01       2.211605228549e-13 
       8.513263807261e+01       4.809732755507e-13 
       9.192410809424e+01       1.214932658260e-15 
       9.925736873929e+01       2.399968430758e-15 
       1.071756414427e+02       2.917245612378e-13 
       1.157255956364e+02       6.562452554589e-17 
       1.249576238137e+02       3.227549748711e-13 
       1.349261385375e+02       3.271134435634e-13 
