# Matter power spectrum P(k) at redshift z=0
# for k=1.04775e-05 to 67.6233 h/Mpc,
# number of wavenumbers equal to 246
#    1:k (h/Mpc)              2:P (Mpc/h)^3        
       1.047750691338e-05       5.020964806750e+01 
       1.131335172818e-05       5.407048206553e+01 
       1.221587619877e-05       5.822819063555e+01 
       1.319039970550e-05       6.270562589685e+01 
       1.424266598317e-05       6.752731788102e+01 
       1.537887697396e-05       7.271977200257e+01 
       1.660572938097e-05       7.831147241542e+01 
       1.793045413791e-05       8.433311815128e+01 
       1.936085902737e-05       9.081778242446e+01 
       2.090537469909e-05       9.780108061339e+01 
       2.257310435923e-05       1.053213197032e+02 
       2.437387742372e-05       1.134197377001e+02 
       2.631830745176e-05       1.221408202816e+02 
       2.841785470091e-05       1.315324720916e+02 
       3.068489367268e-05       1.416462093729e+02 
       3.313278604643e-05       1.525374500691e+02 
       3.577595943165e-05       1.642660687078e+02 
       3.862999240274e-05       1.768963504868e+02 
       4.171170631739e-05       1.904975992460e+02 
       4.503926445983e-05       2.051444490305e+02 
       4.863227909323e-05       2.209171463752e+02 
       5.251192705226e-05       2.379022222314e+02 
       5.670107455699e-05       2.561927925601e+02 
       6.122441198393e-05       2.758890441791e+02 
       6.610859938837e-05       2.970989225465e+02 
       7.138242363583e-05       3.199385558200e+02 
       7.707696806873e-05       3.445329780878e+02 
       8.322579570814e-05       3.710167315928e+02 
       8.986514707061e-05       3.995346440954e+02 
       9.703415376577e-05       4.302425403884e+02 
       1.047750691338e-04       4.633080762974e+02 
       1.131335172818e-04       4.989116267507e+02 
       1.221587619877e-04       5.372471946561e+02 
       1.319039970550e-04       5.785234124636e+02 
       1.424266598317e-04       6.229645930980e+02 
       1.537887697396e-04       6.708118484951e+02 
       1.660572938097e-04       7.223242660220e+02 
       1.793045413791e-04       7.777801565812e+02 
       1.936085902737e-04       8.374783607333e+02 
       2.090537469909e-04       9.017396264495e+02 
       2.257310435923e-04       9.709080260152e+02 
       2.437387742372e-04       1.045352448644e+03 
       2.631830745176e-04       1.125468122836e+03 
       2.841785470091e-04       1.211678179511e+03 
       3.068489367268e-04       1.304435249091e+03 
       3.313278604643e-04       1.404223052541e+03 
       3.577595943165e-04       1.511558013390e+03 
       3.862999240274e-04       1.626990836401e+03 
       4.171170631739e-04       1.751108027371e+03 
       4.503926445983e-04       1.884533381345e+03 
       4.863227909323e-04       2.027929376471e+03 
       5.251192705226e-04       2.181998446367e+03 
       5.670107455699e-04       2.347484100857e+03 
       6.122441198393e-04       2.525171869337e+03 
       6.610859938837e-04       2.715889981401e+03 
       7.138242363583e-04       2.920509686090e+03 
       7.707696806873e-04       3.139945097711e+03 
       8.322579570814e-04       3.375152334396e+03 
       8.986514707061e-04       3.627127828231e+03 
       9.703415376577e-04       3.896905450016e+03 
       1.047750691338e-03       4.185552170954e+03 
       1.131335172818e-03       4.494162426791e+03 
       1.221587619877e-03       4.823850702666e+03 
       1.319039970550e-03       5.175742739848e+03 
       1.424266598317e-03       5.551019592512e+03 
       1.537887697396e-03       5.950788335875e+03 
       1.660572938097e-03       6.376123046809e+03 
       1.793045413791e-03       6.828073896121e+03 
       1.936085902737e-03       7.307625375386e+03 
       2.090537469909e-03       7.815671860089e+03 
       2.257310435923e-03       8.352990369404e+03 
       2.437387742372e-03       8.920211057525e+03 
       2.631830745176e-03       9.517783061890e+03 
       2.841785470091e-03       1.014593703671e+04 
       3.068489367268e-03       1.080464505738e+04 
       3.313278604643e-03       1.149357459547e+04 
       3.577595943165e-03       1.221203620826e+04 
       3.862999240274e-03       1.295892538505e+04 
       4.171170631739e-03       1.373266002172e+04 
       4.503926445983e-03       1.453111834595e+04 
       4.863227909323e-03       1.535154984227e+04 
       5.251192705226e-03       1.619063613436e+04 
       5.670107455699e-03       1.704431256617e+04 
       6.122441198393e-03       1.790755938454e+04 
       6.610859938837e-03       1.877460415660e+04 
       7.138242363583e-03       1.963872429096e+04 
       7.707696806873e-03       2.049215712391e+04 
       8.322579570814e-03       2.132607230594e+04 
       8.986514707061e-03       2.213055151156e+04 
       9.703415376577e-03       2.289445470787e+04 
       1.047750691338e-02       2.360548589199e+04 
       1.131335172818e-02       2.425023124356e+04 
       1.221587619877e-02       2.481423921214e+04 
       1.319039970550e-02       2.528218620643e+04 
       1.424266598317e-02       2.563814296399e+04 
       1.537887697392e-02       2.586607457744e+04 
       1.660572938023e-02       2.595027877579e+04 
       1.793045412706e-02       2.587635617044e+04 
       1.936085890181e-02       2.563221855722e+04 
       2.090537352463e-02       2.520935847346e+04 
       2.257309535333e-02       2.460446610699e+04 
       2.437382002918e-02       2.382092333776e+04 
       2.631799944462e-02       2.287044501784e+04 
       2.841644545389e-02       2.177449831239e+04 
       3.067933355377e-02       2.056556914512e+04 
       3.311368470740e-02       1.928723398416e+04 
       3.571840443502e-02       1.799405981570e+04 
       3.847720348444e-02       1.674686565930e+04 
       4.135335538431e-02       1.560457633282e+04 
       4.429361667738e-02       1.461037852904e+04 
       4.724366439141e-02       1.378051197151e+04 
       5.016480835311e-02       1.310506793892e+04 
       5.303989620246e-02       1.255713616993e+04 
       5.586870669566e-02       1.210424944627e+04 
       5.866042680613e-02       1.171463807094e+04 
       6.142798932958e-02       1.136049220881e+04 
       6.418496440164e-02       1.101855697309e+04 
       6.694418833788e-02       1.067069906936e+04 
       6.971731106057e-02       1.030358821961e+04 
       7.251476155766e-02       9.908995900192e+03 
       7.534587671527e-02       9.483780572410e+03 
       7.821907666265e-02       9.029502926857e+03 
       8.114203772912e-02       8.552319009982e+03 
       8.412184535029e-02       8.061961846898e+03 
       8.716512279304e-02       7.570782490490e+03 
       9.027813695930e-02       7.092501596504e+03 
       9.346688431697e-02       6.640503754029e+03 
       9.673716028276e-02       6.226705196411e+03 
       1.000946150830e-01       5.859928897754e+03 
       1.035447986537e-01       5.545243545938e+03 
       1.070931966762e-01       5.283126162815e+03 
       1.107452594425e-01       5.069428342523e+03 
       1.145064249153e-01       4.895244420524e+03 
       1.183821370918e-01       4.747859145347e+03 
       1.223778605862e-01       4.611740058371e+03 
       1.264990921987e-01       4.470628423965e+03 
       1.307513701367e-01       4.310272118211e+03 
       1.351402814784e-01       4.121397800954e+03 
       1.396714684203e-01       3.902071124680e+03 
       1.443506338194e-01       3.658636634106e+03 
       1.491835465229e-01       3.404488797653e+03 
       1.541760469708e-01       3.156665337793e+03 
       1.593340535561e-01       2.931982528292e+03 
       1.646635702297e-01       2.742369397956e+03 
       1.701706958456e-01       2.592256899054e+03 
       1.758616357459e-01       2.477239218099e+03 
       1.817427160982e-01       2.385183144037e+03 
       1.878204015065e-01       2.300359106869e+03 
       1.941013164283e-01       2.205762167578e+03 
       2.005922709503e-01       2.090814211612e+03 
       2.073002914972e-01       1.956465817072e+03 
       2.142326570816e-01       1.814194070608e+03 
       2.213969417533e-01       1.679296623756e+03 
       2.288010639706e-01       1.563852388718e+03 
       2.364533437147e-01       1.472686577523e+03 
       2.443625682930e-01       1.401513298691e+03 
       2.525380679504e-01       1.338416350854e+03 
       2.609898026346e-01       1.270900382499e+03 
       2.697284615565e-01       1.193381826743e+03 
       2.787655775689e-01       1.109339462607e+03 
       2.881136588829e-01       1.028772174714e+03 
       2.977863412677e-01       9.604835634419e+02 
       3.077985646929e-01       9.050266545497e+02 
       3.181667794071e-01       8.561457656003e+02 
       3.289091877812e-01       8.061882385837e+02 
       3.400460299658e-01       7.523900403300e+02 
       3.515999236474e-01       6.989224359655e+02 
       3.635962711085e-01       6.510654330901e+02 
       3.760637506334e-01       6.101237914187e+02 
       3.890349143879e-01       5.721325228928e+02 
       4.025469216825e-01       5.337820827237e+02 
       4.166424456376e-01       4.956325505769e+02 
       4.313708035863e-01       4.604709356699e+02 
       4.467893782977e-01       4.287770336821e+02 
       4.629654199664e-01       3.987737274019e+02 
       4.799783501994e-01       3.692430677050e+02 
       4.979227319373e-01       3.412399867082e+02 
       5.169121270864e-01       3.154846205359e+02 
       5.370841404489e-01       2.908356223280e+02 
       5.586070464571e-01       2.671071937824e+02 
       5.816885094930e-01       2.448099818513e+02 
       6.065870144995e-01       2.235680623745e+02 
       6.336266468475e-01       2.032106968698e+02 
       6.632156059511e-01       1.838789738722e+02 
       6.958678639263e-01       1.653546905410e+02 
       7.322247985589e-01       1.476958480625e+02 
       7.730680195114e-01       1.308338388026e+02 
       8.193049553677e-01       1.148315634127e+02 
       8.718988016039e-01       9.976273521773e+01 
       9.317218031082e-01       8.577826988773e+01 
       9.993660908989e-01       7.305500127232e+01 
       1.075037110174e+00       6.173594257360e+01 
       1.158653485707e+00       5.187933632835e+01 
       1.250099157308e+00       4.344050736049e+01 
       1.349432401273e+00       3.628959000216e+01 
       1.456947457397e+00       3.026813076073e+01 
       1.573135111331e+00       2.521458891471e+01 
       1.698621895592e+00       2.098215442189e+01 
       1.834127512934e+00       1.744243890244e+01 
       1.980444934528e+00       1.448573444421e+01 
       2.138435191726e+00       1.201895924822e+01 
       2.309029199186e+00       9.963202170818e+00 
       2.493232377687e+00       8.251891087746e+00 
       2.692130395285e+00       6.828636555648e+00 
       2.906895534573e+00       5.646265803314e+00 
       3.138793597714e+00       4.664914508326e+00 
       3.389191366484e+00       3.851146952095e+00 
       3.659564657905e+00       3.176951148650e+00 
       3.951507022538e+00       2.618893143166e+00 
       4.266739136701e+00       2.157361107258e+00 
       4.607118943941e+00       1.775947640374e+00 
       4.974652605557e+00       1.461003244505e+00 
       5.371506324689e+00       1.201138331165e+00 
       5.800019113685e+00       9.868822730537e-01 
       6.262716579983e+00       8.103572984643e-01 
       6.762325811764e+00       6.650179164301e-01 
       7.301791451110e+00       5.454314999462e-01 
       7.884293049406e+00       4.471005995542e-01 
       8.513263807261e+00       3.662977975090e-01 
       9.192410809424e+00       2.999411871634e-01 
       9.925736873929e+00       2.454815746220e-01 
       1.071756414427e+01       2.008098490868e-01 
       1.157255956364e+01       1.641838809638e-01 
       1.249576238137e+01       1.341775975026e-01 
       1.349261385375e+01       1.096025378050e-01 
       1.456898931416e+01       8.948869517003e-02 
       1.573123280165e+01       7.303374884445e-02 
       1.698619445202e+01       5.957838815124e-02 
       1.834127087176e+01       4.858058458970e-02 
       1.980444873285e+01       3.959722528150e-02 
       2.138435184532e+01       3.226090526247e-02 
       2.309029198506e+01       2.627359914595e-02 
       2.493232377636e+01       2.138855881654e-02 
       2.692130395282e+01       1.740478513971e-02 
       2.906895534573e+01       1.415748952731e-02 
       3.138793597714e+01       1.151127171687e-02 
       3.389191366484e+01       9.356050221437e-03 
       3.659564657905e+01       7.601256263167e-03 
       3.951507022538e+01       6.173077301704e-03 
       4.266739136701e+01       5.011116672360e-03 
       4.607118943941e+01       4.066212197018e-03 
       4.974652605557e+01       3.298026279020e-03 
       5.371506324689e+01       2.673746752086e-03 
       5.800019113685e+01       2.166558768272e-03 
       6.262716579983e+01       1.754769952667e-03 
       6.762325811764e+01       1.420484107113e-03 
