# Matter power spectrum P(k) at redshift z=0
# for k=1.04775e-05 to 134.926 h/Mpc,
# number of wavenumbers equal to 255
#    1:k (h/Mpc)              2:P (Mpc/h)^3        
       1.047750691338e-05       5.020963906804e+01 
       1.131335172818e-05       5.407048937136e+01 
       1.221587619877e-05       5.822820724033e+01 
       1.319039970550e-05       6.270562047151e+01 
       1.424266598317e-05       6.752731476087e+01 
       1.537887697396e-05       7.271975715403e+01 
       1.660572938097e-05       7.831147101183e+01 
       1.793045413791e-05       8.433312302029e+01 
       1.936085902737e-05       9.081780130651e+01 
       2.090537469909e-05       9.780107449276e+01 
       2.257310435923e-05       1.053212938597e+02 
       2.437387742372e-05       1.134197268469e+02 
       2.631830745176e-05       1.221408285623e+02 
       2.841785470091e-05       1.315324590475e+02 
       3.068489367268e-05       1.416461671327e+02 
       3.313278604643e-05       1.525374478883e+02 
       3.577595943165e-05       1.642660517316e+02 
       3.862999240274e-05       1.768963429436e+02 
       4.171170631739e-05       1.904975997760e+02 
       4.503926445983e-05       2.051444243234e+02 
       4.863227909323e-05       2.209171412049e+02 
       5.251192705226e-05       2.379022266016e+02 
       5.670107455699e-05       2.561927841253e+02 
       6.122441198393e-05       2.758890480407e+02 
       6.610859938837e-05       2.970989213997e+02 
       7.138242363583e-05       3.199385559932e+02 
       7.707696806873e-05       3.445329727003e+02 
       8.322579570814e-05       3.710167324002e+02 
       8.986514707061e-05       3.995346444120e+02 
       9.703415376577e-05       4.302425389370e+02 
       1.047750691338e-04       4.633080773475e+02 
       1.131335172818e-04       4.989116273734e+02 
       1.221587619877e-04       5.372471939106e+02 
       1.319039970550e-04       5.785234114697e+02 
       1.424266598317e-04       6.229645933480e+02 
       1.537887697396e-04       6.708118489651e+02 
       1.660572938097e-04       7.223242659134e+02 
       1.793045413791e-04       7.777801568999e+02 
       1.936085902737e-04       8.374783640767e+02 
       2.090537469909e-04       9.017396288704e+02 
       2.257310435923e-04       9.709080297640e+02 
       2.437387742372e-04       1.045352453296e+03 
       2.631830745176e-04       1.125468127735e+03 
       2.841785470091e-04       1.211678185938e+03 
       3.068489367268e-04       1.304435255977e+03 
       3.313278604643e-04       1.404223062901e+03 
       3.577595943165e-04       1.511558029559e+03 
       3.862999240274e-04       1.626990852531e+03 
       4.171170631739e-04       1.751108045571e+03 
       4.503926445983e-04       1.884533404715e+03 
       4.863227909323e-04       2.027929406907e+03 
       5.251192705226e-04       2.181998483850e+03 
       5.670107455699e-04       2.347484145988e+03 
       6.122441198393e-04       2.525171925094e+03 
       6.610859938837e-04       2.715890054848e+03 
       7.138242363583e-04       2.920509779157e+03 
       7.707696806873e-04       3.139945207839e+03 
       8.322579570814e-04       3.375152476745e+03 
       8.986514707061e-04       3.627128020111e+03 
       9.703415376577e-04       3.896905669060e+03 
       1.047750691338e-03       4.185552452033e+03 
       1.131335172818e-03       4.494162774817e+03 
       1.221587619877e-03       4.823851149611e+03 
       1.319039970550e-03       5.175743277431e+03 
       1.424266598317e-03       5.551020296914e+03 
       1.537887697396e-03       5.950789182906e+03 
       1.660572938097e-03       6.376124146392e+03 
       1.793045413791e-03       6.828075231237e+03 
       1.936085902737e-03       7.307627043166e+03 
       2.090537469909e-03       7.815673947301e+03 
       2.257310435923e-03       8.352992905395e+03 
       2.437387742372e-03       8.920214279691e+03 
       2.631830745176e-03       9.517787126648e+03 
       2.841785470091e-03       1.014594111451e+04 
       3.068489367268e-03       1.080465132470e+04 
       3.313278604643e-03       1.149358216087e+04 
       3.577595943165e-03       1.221204576618e+04 
       3.862999240274e-03       1.295893719788e+04 
       4.171170631739e-03       1.373267429274e+04 
       4.503926445983e-03       1.453113551463e+04 
       4.863227909323e-03       1.535156883836e+04 
       5.251192705226e-03       1.619065276624e+04 
       5.670107455699e-03       1.704433434350e+04 
       6.122441198393e-03       1.790758052937e+04 
       6.610859938837e-03       1.877461981827e+04 
       7.138242363583e-03       1.963873996019e+04 
       7.707696806873e-03       2.049215717687e+04 
       8.322579570814e-03       2.132610700674e+04 
       8.986514707061e-03       2.213054806965e+04 
       9.703415376577e-03       2.289439662180e+04 
       1.047750691338e-02       2.360543910599e+04 
       1.131335172818e-02       2.425017511889e+04 
       1.221587619877e-02       2.481412733156e+04 
       1.319039970550e-02       2.528205212035e+04 
       1.424266598317e-02       2.563793248093e+04 
       1.537887697392e-02       2.586579876014e+04 
       1.660572938023e-02       2.594988969822e+04 
       1.793045412706e-02       2.587583211413e+04 
       1.936085890181e-02       2.563145448580e+04 
       2.090537352463e-02       2.520839060424e+04 
       2.257309535333e-02       2.460318649901e+04 
       2.437382002918e-02       2.381923668480e+04 
       2.631799944462e-02       2.286828907764e+04 
       2.841644545389e-02       2.177181694729e+04 
       3.067933355377e-02       2.056216985427e+04 
       3.311368470740e-02       1.928303684566e+04 
       3.571840443502e-02       1.798878606508e+04 
       3.847720348444e-02       1.674049929468e+04 
       4.135335538431e-02       1.559699060966e+04 
       4.429361667738e-02       1.460138270427e+04 
       4.724366439141e-02       1.377004469132e+04 
       5.016480835311e-02       1.309293531374e+04 
       5.303989620246e-02       1.254340639328e+04 
       5.586870669566e-02       1.208873247403e+04 
       5.866042680613e-02       1.169729087436e+04 
       6.142798932958e-02       1.134114783713e+04 
       6.418496440164e-02       1.099725140313e+04 
       6.694418833788e-02       1.064718900624e+04 
       6.971731106057e-02       1.027784329143e+04 
       7.251476155766e-02       9.880929347050e+03 
       7.534587671527e-02       9.453221643503e+03 
       7.821907666265e-02       8.996446062802e+03 
       8.114203772912e-02       8.516618188520e+03 
       8.412184535029e-02       8.023562892634e+03 
       8.716512279304e-02       7.529674344505e+03 
       9.027813695930e-02       7.048582588023e+03 
       9.346688431697e-02       6.593751793881e+03 
       9.673716028276e-02       6.176970600785e+03 
       1.000946150830e-01       5.807125253947e+03 
       1.035447986537e-01       5.489143358300e+03 
       1.070931966762e-01       5.223545041999e+03 
       1.107452594425e-01       5.006053960770e+03 
       1.145064249153e-01       4.827874242714e+03 
       1.183821370918e-01       4.676138237576e+03 
       1.223778605862e-01       4.535454450959e+03 
       1.264990921987e-01       4.389597009688e+03 
       1.307513701367e-01       4.224399097065e+03 
       1.351402814784e-01       4.030670633062e+03 
       1.396714684203e-01       3.806577797944e+03 
       1.443506338194e-01       3.558498105646e+03 
       1.491835465229e-01       3.299793411237e+03 
       1.541760469708e-01       3.047424797808e+03 
       1.593340535561e-01       2.817997768467e+03 
       1.646635702297e-01       2.623262860924e+03 
       1.701706958456e-01       2.467422759846e+03 
       1.758616357459e-01       2.346063940336e+03 
       1.817427160982e-01       2.247127646394e+03 
       1.878204015065e-01       2.155174820765e+03 
       1.941013164283e-01       2.053606129627e+03 
       2.005922709503e-01       1.932225723126e+03 
       2.073002914972e-01       1.792119595268e+03 
       2.142326570816e-01       1.644575514340e+03 
       2.213969417533e-01       1.504453418135e+03 
       2.288010639706e-01       1.383293182812e+03 
       2.364533437147e-01       1.285561488606e+03 
       2.443625682930e-01       1.207017846275e+03 
       2.525380679504e-01       1.136304987196e+03 
       2.609898026346e-01       1.061770531479e+03 
       2.697284615565e-01       9.783455511837e+02 
       2.787655775689e-01       8.894428098889e+02 
       2.881136588829e-01       8.043403041912e+02 
       2.977863412677e-01       7.309615350915e+02 
       3.077985646929e-01       6.696620882828e+02 
       3.181667794071e-01       6.148160543754e+02 
       3.289091877812e-01       5.597817273090e+02 
       3.400460299658e-01       5.023448178248e+02 
       3.515999236474e-01       4.461431485934e+02 
       3.635962711085e-01       3.955828039288e+02 
       3.760637506334e-01       3.516350625935e+02 
       3.890349143879e-01       3.111297002665e+02 
       4.025469216825e-01       2.715795189468e+02 
       4.166424456376e-01       2.335257708684e+02 
       4.313708035863e-01       1.990111448199e+02 
       4.467893782977e-01       1.683499538953e+02 
       4.629654199664e-01       1.403640020562e+02 
       4.799783501994e-01       1.143556886458e+02 
       4.979227319373e-01       9.101518345772e+01 
       5.169121270864e-01       7.075069546407e+01 
       5.370841404489e-01       5.299626910295e+01 
       5.586070464571e-01       3.771187055465e+01 
       5.816885094930e-01       2.514174410611e+01 
       6.065870144995e-01       1.515744181504e+01 
       6.336266468475e-01       7.713443918227e+00 
       6.632156059511e-01       2.820878389838e+00 
       6.958678639263e-01       3.624191990387e-01 
       7.322247985589e-01       1.904710777926e-01 
       7.730680195114e-01       2.012719631525e+00 
       8.193049553677e-01       5.335145432156e+00 
       8.718988016039e-01       9.408125814514e+00 
       9.317218031082e-01       1.321090480810e+01 
       9.993660908989e-01       1.563019841883e+01 
       1.075037110174e+00       1.583726656387e+01 
       1.158653485707e+00       1.368772403448e+01 
       1.250099157308e+00       9.872798041987e+00 
       1.349432401273e+00       5.625921212574e+00 
       1.456947457397e+00       2.205057134905e+00 
       1.573135111331e+00       3.520320638082e-01 
       1.698621895592e+00       3.496512958871e-02 
       1.834127512934e+00       5.715367368281e-01 
       1.980444934528e+00       1.101557208263e+00 
       2.138435191726e+00       1.116996558918e+00 
       2.309029199186e+00       6.784142551543e-01 
       2.493232377687e+00       2.019596223565e-01 
       2.692130395285e+00       4.015437882844e-03 
       2.906895534573e+00       4.754189466293e-02 
       3.138793597714e+00       1.080835936697e-01 
       3.389191366484e+00       7.332877654230e-02 
       3.659564657905e+00       1.366709639246e-02 
       3.951507022538e+00       1.091249544850e-03 
       4.266739136701e+00       1.060256525102e-02 
       4.607118943941e+00       6.661385068173e-03 
       4.974652605557e+00       3.987894589801e-04 
       5.371506324689e+00       8.051698028958e-04 
       5.800019113685e+00       8.593920384070e-04 
       6.262716579983e+00       7.720811172792e-06 
       6.762325811764e+00       1.286734536965e-04 
       7.301791451110e+00       3.594921953703e-05 
       7.884293049406e+00       6.654787307779e-06 
       8.513263807261e+00       9.711860120932e-06 
       9.192410809424e+00       4.869124468327e-06 
       9.925736873929e+00       2.434850175057e-05 
       1.071756414427e+01       2.638328319843e-10 
       1.157255956364e+01       1.807547703560e-08 
       1.249576238137e+01       2.382999473136e-05 
       1.349261385375e+01       1.635579865792e-07 
       1.456898931416e+01       9.549813489717e-06 
       1.573123280165e+01       9.561471007751e-06 
       1.698619445202e+01       1.332138989379e-06 
       1.834127087176e+01       7.573696649115e-07 
       1.980444873285e+01       2.768490661392e-09 
       2.138435184532e+01       1.857748782086e-05 
       2.309029198506e+01       6.548953261455e-08 
       2.493232377636e+01       6.217495928677e-06 
       2.692130395282e+01       5.715043573336e-06 
       2.906895534573e+01       9.451449214269e-06 
       3.138793597714e+01       4.364509586500e-07 
       3.389191366484e+01       3.269782809746e-06 
       3.659564657905e+01       2.325661219596e-06 
       3.951507022538e+01       2.732175187111e-07 
       4.266739136701e+01       6.494932577257e-08 
       4.607118943941e+01       6.856662992201e-09 
       4.974652605557e+01       6.987036721761e-09 
       5.371506324689e+01       1.878094671392e-08 
       5.800019113685e+01       5.478990554619e-07 
       6.262716579983e+01       6.943485388750e-07 
       6.762325811764e+01       4.507100332258e-08 
       7.301791451110e+01       1.514369516905e-06 
       7.884293049406e+01       4.089387960885e-09 
       8.513263807261e+01       4.952174786324e-10 
       9.192410809424e+01       8.849087753631e-10 
       9.925736873929e+01       1.689988544798e-08 
       1.071756414427e+02       5.938020493540e-07 
       1.157255956364e+02       1.020199838698e-08 
       1.249576238137e+02       1.020334166264e-06 
       1.349261385375e+02       2.952217407459e-08 
