# Matter power spectrum P(k) at redshift z=99
# for k=1.04775e-05 to 134.926 h/Mpc,
# number of wavenumbers equal to 255
#    1:k (h/Mpc)              2:P (Mpc/h)^3        
       1.047750691338e-05       7.261927095310e-03 
       1.131335172818e-05       7.820332150781e-03 
       1.221587619877e-05       8.421675382358e-03 
       1.319039970550e-05       9.069257738034e-03 
       1.424266598317e-05       9.766636451158e-03 
       1.537887697396e-05       1.051763973645e-02 
       1.660572938097e-05       1.132639250756e-02 
       1.793045413791e-05       1.219733201513e-02 
       1.936085902737e-05       1.313524187208e-02 
       2.090537469909e-05       1.414527084983e-02 
       2.257310435923e-05       1.523296544498e-02 
       2.437387742372e-05       1.640429654647e-02 
       2.631830745176e-05       1.766569603294e-02 
       2.841785470091e-05       1.902408711171e-02 
       3.068489367268e-05       2.048692967454e-02 
       3.313278604643e-05       2.206225467559e-02 
       3.577595943165e-05       2.375870883864e-02 
       3.862999240274e-05       2.558560669835e-02 
       4.171170631739e-05       2.755297672522e-02 
       4.503926445983e-05       2.967161933428e-02 
       4.863227909323e-05       3.195316455673e-02 
       5.251192705226e-05       3.441013466153e-02 
       5.670107455699e-05       3.705601741722e-02 
       6.122441198393e-05       3.990533412858e-02 
       6.610859938837e-05       4.297372242554e-02 
       7.138242363583e-05       4.627802054886e-02 
       7.707696806873e-05       4.983636159913e-02 
       8.322579570814e-05       5.366826786961e-02 
       8.986514707061e-05       5.779476319764e-02 
       9.703415376577e-05       6.223848221869e-02 
       1.047750691338e-04       6.702379825057e-02 
       1.131335172818e-04       7.217695031112e-02 
       1.221587619877e-04       7.772619030403e-02 
       1.319039970550e-04       8.370193380097e-02 
       1.424266598317e-04       9.013692506715e-02 
       1.537887697396e-04       9.706641130453e-02 
       1.660572938097e-04       1.045283343117e-01 
       1.793045413791e-04       1.125635329192e-01 
       1.936085902737e-04       1.212159592317e-01 
       2.090537469909e-04       1.305329107444e-01 
       2.257310435923e-04       1.405652819370e-01 
       2.437387742372e-04       1.513678275086e-01 
       2.631830745176e-04       1.629994475144e-01 
       2.841785470091e-04       1.755234890491e-01 
       3.068489367268e-04       1.890080645313e-01 
       3.313278604643e-04       2.035263977447e-01 
       3.577595943165e-04       2.191571778061e-01 
       3.862999240274e-04       2.359849423278e-01 
       4.171170631739e-04       2.541004713022e-01 
       4.503926445983e-04       2.736012061181e-01 
       4.863227909323e-04       2.945916774667e-01 
       5.251192705226e-04       3.171839507889e-01 
       5.670107455699e-04       3.414980769135e-01 
       6.122441198393e-04       3.676625416330e-01 
       6.610859938837e-04       3.958147272896e-01 
       7.138242363583e-04       4.261013332098e-01 
       7.707696806873e-04       4.586787880886e-01 
       8.322579570814e-04       4.937136112860e-01 
       8.986514707061e-04       5.313826962117e-01 
       9.703415376577e-04       5.718735176847e-01 
       1.047750691338e-03       6.153841926295e-01 
       1.131335172818e-03       6.621233623169e-01 
       1.221587619877e-03       7.123098743700e-01 
       1.319039970550e-03       7.661721263833e-01 
       1.424266598317e-03       8.239547181348e-01 
       1.537887697396e-03       8.859012282860e-01 
       1.660572938097e-03       9.522589495787e-01 
       1.793045413791e-03       1.023280284739e+00 
       1.936085902737e-03       1.099216542127e+00 
       2.090537469909e-03       1.180313285055e+00 
       2.257310435923e-03       1.266804486824e+00 
       2.437387742372e-03       1.358905328473e+00 
       2.631830745176e-03       1.456803285950e+00 
       2.841785470091e-03       1.560647663023e+00 
       3.068489367268e-03       1.670537010541e+00 
       3.313278604643e-03       1.786505039572e+00 
       3.577595943165e-03       1.908504410006e+00 
       3.862999240274e-03       2.036389468580e+00 
       4.171170631739e-03       2.169898252531e+00 
       4.503926445983e-03       2.308634491564e+00 
       4.863227909323e-03       2.452050674178e+00 
       5.251192705226e-03       2.599434680271e+00 
       5.670107455699e-03       2.749901125219e+00 
       6.122441198393e-03       2.902390056564e+00 
       6.610859938837e-03       3.055671386342e+00 
       7.138242363583e-03       3.208360303065e+00 
       7.707696806873e-03       3.358926682367e+00 
       8.322579570814e-03       3.505728055713e+00 
       8.986514707061e-03       3.647012834803e+00 
       9.703415376577e-03       3.780925945230e+00 
       1.047750691338e-02       3.905493743225e+00 
       1.131335172818e-02       4.018589874530e+00 
       1.221587619877e-02       4.117902861010e+00 
       1.319039970550e-02       4.200917651275e+00 
       1.424266598317e-02       4.264943676155e+00 
       1.537887697392e-02       4.307219551650e+00 
       1.660572938023e-02       4.325062283536e+00 
       1.793045412706e-02       4.316060228463e+00 
       1.936085890181e-02       4.278228662500e+00 
       2.090537352463e-02       4.210204295611e+00 
       2.257309535333e-02       4.111418447953e+00 
       2.437382002918e-02       3.982420553190e+00 
       2.631799944462e-02       3.825168183102e+00 
       2.841644545389e-02       3.643281615545e+00 
       3.067933355377e-02       3.442197913436e+00 
       3.311368470740e-02       3.229240625108e+00 
       3.571840443502e-02       3.013515127195e+00 
       3.847720348444e-02       2.805282488220e+00 
       4.135335538431e-02       2.614408929601e+00 
       4.429361667738e-02       2.448130151714e+00 
       4.724366439141e-02       2.309238306960e+00 
       5.016480835311e-02       2.196112505730e+00 
       5.303989620246e-02       2.104366710283e+00 
       5.586870669566e-02       2.028459110173e+00 
       5.866042680613e-02       1.963151490936e+00 
       6.142798932958e-02       1.903775550599e+00 
       6.418496440164e-02       1.846474711742e+00 
       6.694418833788e-02       1.788192634074e+00 
       6.971731106057e-02       1.726710489441e+00 
       7.251476155766e-02       1.660648862452e+00 
       7.534587671527e-02       1.589464923036e+00 
       7.821907666265e-02       1.513431148047e+00 
       8.114203772912e-02       1.433562990173e+00 
       8.412184535029e-02       1.351486045934e+00 
       8.716512279304e-02       1.269266473081e+00 
       9.027813695930e-02       1.189185604909e+00 
       9.346688431697e-02       1.113493132256e+00 
       9.673716028276e-02       1.044166165276e+00 
       1.000946150830e-01       9.826972913483e-01 
       1.035447986537e-01       9.299267056578e-01 
       1.070931966762e-01       8.859489559159e-01 
       1.107452594425e-01       8.500610806022e-01 
       1.145064249153e-01       8.207927564528e-01 
       1.183821370918e-01       7.960130564517e-01 
       1.223778605862e-01       7.731338051163e-01 
       1.264990921987e-01       7.494397386495e-01 
       1.307513701367e-01       7.225440650357e-01 
       1.351402814784e-01       6.908947786406e-01 
       1.396714684203e-01       6.541664036852e-01 
       1.443506338194e-01       6.134115455577e-01 
       1.491835465229e-01       5.708523542082e-01 
       1.541760469708e-01       5.293473327053e-01 
       1.593340535561e-01       4.916945926276e-01 
       1.646635702297e-01       4.599029654313e-01 
       1.701706958456e-01       4.347103196213e-01 
       1.758616357459e-01       4.153899226348e-01 
       1.817427160982e-01       3.999178030894e-01 
       1.878204015065e-01       3.856626007198e-01 
       1.941013164283e-01       3.697885167589e-01 
       2.005922709503e-01       3.505249518987e-01 
       2.073002914972e-01       3.280208101749e-01 
       2.142326570816e-01       3.041909090609e-01 
       2.213969417533e-01       2.815893250206e-01 
       2.288010639706e-01       2.622333451443e-01 
       2.364533437147e-01       2.469375797763e-01 
       2.443625682930e-01       2.349876660458e-01 
       2.525380679504e-01       2.243916849155e-01 
       2.609898026346e-01       2.130664386066e-01 
       2.697284615565e-01       2.000741061454e-01 
       2.787655775689e-01       1.859915701711e-01 
       2.881136588829e-01       1.724885056924e-01 
       2.977863412677e-01       1.610367210813e-01 
       3.077985646929e-01       1.517304756235e-01 
       3.181667794071e-01       1.435282411203e-01 
       3.289091877812e-01       1.351496338072e-01 
       3.400460299658e-01       1.261318308366e-01 
       3.515999236474e-01       1.171685685403e-01 
       3.635962711085e-01       1.091429347211e-01 
       3.760637506334e-01       1.022748409457e-01 
       3.890349143879e-01       9.590219203535e-02 
       4.025469216825e-01       8.947129590606e-02 
       4.166424456376e-01       8.307491813507e-02 
       4.313708035863e-01       7.717770406184e-02 
       4.467893782977e-01       7.186223827648e-02 
       4.629654199664e-01       6.682998939666e-02 
       4.799783501994e-01       6.187778397591e-02 
       4.979227319373e-01       5.718158958511e-02 
       5.169121270864e-01       5.286168476637e-02 
       5.370841404489e-01       4.872777695652e-02 
       5.586070464571e-01       4.474812445997e-02 
       5.816885094930e-01       4.100838282432e-02 
       6.065870144995e-01       3.744559410664e-02 
       6.336266468475e-01       3.403122000596e-02 
       6.632156059511e-01       3.078870876200e-02 
       6.958678639263e-01       2.768161283483e-02 
       7.322247985589e-01       2.471953430422e-02 
       7.730680195114e-01       2.189114132604e-02 
       8.193049553677e-01       1.920677835162e-02 
       8.718988016039e-01       1.667902294720e-02 
       9.317218031082e-01       1.433303128992e-02 
       9.993660908989e-01       1.219854843384e-02 
       1.075037110174e+00       1.029961797578e-02 
       1.158653485707e+00       8.645891033273e-03 
       1.250099157308e+00       7.230061804999e-03 
       1.349432401273e+00       6.030272357765e-03 
       1.456947457397e+00       5.019953164225e-03 
       1.573135111331e+00       4.172062756161e-03 
       1.698621895592e+00       3.461925940712e-03 
       1.834127512934e+00       2.868091283360e-03 
       1.980444934528e+00       2.372138010289e-03 
       2.138435191726e+00       1.958442708501e-03 
       2.309029199186e+00       1.613782236026e-03 
       2.493232377687e+00       1.326996455468e-03 
       2.692130395285e+00       1.088669088671e-03 
       2.906895534573e+00       8.908594871647e-04 
       3.138793597714e+00       7.268885053011e-04 
       3.389191366484e+00       5.911595525536e-04 
       3.659564657905e+00       4.789921398304e-04 
       3.951507022538e+00       3.864455054846e-04 
       4.266739136701e+00       3.102427725770e-04 
       4.607118943941e+00       2.476359481307e-04 
       4.974652605557e+00       1.963402401527e-04 
       5.371506324689e+00       1.544466368901e-04 
       5.800019113685e+00       1.203672023083e-04 
       6.262716579983e+00       9.277889671760e-05 
       6.762325811764e+00       7.058014742062e-05 
       7.301791451110e+00       5.285177459799e-05 
       7.884293049406e+00       3.882757709195e-05 
       8.513263807261e+00       2.786626827410e-05 
       9.192410809424e+00       1.942855471322e-05 
       9.925736873929e+00       1.305879876458e-05 
       1.071756414427e+01       8.370172665347e-06 
       1.157255956364e+01       5.033695509271e-06 
       1.249576238137e+01       2.766282465311e-06 
       1.349261385375e+01       1.323759008745e-06 
       1.456898931416e+01       4.964271719031e-07 
       1.573123280165e+01       1.052881232215e-07 
       1.698619445202e+01       8.577314472315e-11 
       1.834127087176e+01       5.858684857038e-08 
       1.980444873285e+01       1.860896999290e-07 
       2.138435184532e+01       3.151264391116e-07 
       2.309029198506e+01       4.037655620945e-07 
       2.493232377636e+01       4.340202742142e-07 
       2.692130395282e+01       4.066746145890e-07 
       2.906895534573e+01       3.364218166790e-07 
       3.138793597714e+01       2.446854088867e-07 
       3.389191366484e+01       1.533726108860e-07 
       3.659564657905e+01       7.910266018962e-08 
       3.951507022538e+01       3.013342300234e-08 
       4.266739136701e+01       6.022022857558e-09 
       4.607118943941e+01       9.917300064053e-14 
       4.974652605557e+01       2.898220047217e-09 
       5.371506324689e+01       6.983973200374e-09 
       5.800019113685e+01       8.244155446803e-09 
       6.262716579983e+01       6.440161695610e-09 
       6.762325811764e+01       3.422129190014e-09 
       7.301791451110e+01       1.076256295114e-09 
       7.884293049406e+01       9.254525107269e-11 
       8.513263807261e+01       4.497408076241e-11 
       9.192410809424e+01       2.080446043948e-10 
       9.925736873929e+01       2.106187027015e-10 
       1.071756414427e+02       9.770992980772e-11 
       1.157255956364e+02       1.535486741262e-11 
       1.249576238137e+02       4.210481509729e-13 
       1.349261385375e+02       6.811377321130e-12 
