# Matter power spectrum P(k) at redshift z=99
# for k=1.04775e-05 to 67.6233 h/Mpc,
# number of wavenumbers equal to 246
#    1:k (h/Mpc)              2:P (Mpc/h)^3        
       1.047750691338e-05       7.261927673119e-03 
       1.131335172818e-05       7.820331745737e-03 
       1.221587619877e-05       8.421675986489e-03 
       1.319039970550e-05       9.069258192194e-03 
       1.424266598317e-05       9.766638404421e-03 
       1.537887697396e-05       1.051764069682e-02 
       1.660572938097e-05       1.132639105520e-02 
       1.793045413791e-05       1.219733231416e-02 
       1.936085902737e-05       1.313524224380e-02 
       2.090537469909e-05       1.414527121893e-02 
       2.257310435923e-05       1.523296272192e-02 
       2.437387742372e-05       1.640429444530e-02 
       2.631830745176e-05       1.766569582177e-02 
       2.841785470091e-05       1.902408601793e-02 
       3.068489367268e-05       2.048692970591e-02 
       3.313278604643e-05       2.206225513594e-02 
       3.577595943165e-05       2.375870704909e-02 
       3.862999240274e-05       2.558560727479e-02 
       4.171170631739e-05       2.755297763344e-02 
       4.503926445983e-05       2.967161927314e-02 
       4.863227909323e-05       3.195316450832e-02 
       5.251192705226e-05       3.441013519284e-02 
       5.670107455699e-05       3.705601722525e-02 
       6.122441198393e-05       3.990533413562e-02 
       6.610859938837e-05       4.297372168203e-02 
       7.138242363583e-05       4.627802141688e-02 
       7.707696806873e-05       4.983636194159e-02 
       8.322579570814e-05       5.366826847231e-02 
       8.986514707061e-05       5.779476394569e-02 
       9.703415376577e-05       6.223848243885e-02 
       1.047750691338e-04       6.702379865640e-02 
       1.131335172818e-04       7.217695153381e-02 
       1.221587619877e-04       7.772619073572e-02 
       1.319039970550e-04       8.370193432376e-02 
       1.424266598317e-04       9.013692507550e-02 
       1.537887697396e-04       9.706641242570e-02 
       1.660572938097e-04       1.045283354271e-01 
       1.793045413791e-04       1.125635349068e-01 
       1.936085902737e-04       1.212159614968e-01 
       2.090537469909e-04       1.305329132714e-01 
       2.257310435923e-04       1.405652846215e-01 
       2.437387742372e-04       1.513678302540e-01 
       2.631830745176e-04       1.629994504871e-01 
       2.841785470091e-04       1.755234921224e-01 
       3.068489367268e-04       1.890080670413e-01 
       3.313278604643e-04       2.035264002435e-01 
       3.577595943165e-04       2.191571803681e-01 
       3.862999240274e-04       2.359849437593e-01 
       4.171170631739e-04       2.541004741539e-01 
       4.503926445983e-04       2.736012080278e-01 
       4.863227909323e-04       2.945916790965e-01 
       5.251192705226e-04       3.171839525182e-01 
       5.670107455699e-04       3.414980764002e-01 
       6.122441198393e-04       3.676625413100e-01 
       6.610859938837e-04       3.958147252304e-01 
       7.138242363583e-04       4.261013284918e-01 
       7.707696806873e-04       4.586787792350e-01 
       8.322579570814e-04       4.937136001345e-01 
       8.986514707061e-04       5.313826801402e-01 
       9.703415376577e-04       5.718734972157e-01 
       1.047750691338e-03       6.153841629505e-01 
       1.131335172818e-03       6.621233239466e-01 
       1.221587619877e-03       7.123098220425e-01 
       1.319039970550e-03       7.661720584608e-01 
       1.424266598317e-03       8.239546297731e-01 
       1.537887697396e-03       8.859011173467e-01 
       1.660572938097e-03       9.522588006421e-01 
       1.793045413791e-03       1.023280099819e+00 
       1.936085902737e-03       1.099216304579e+00 
       2.090537469909e-03       1.180312990453e+00 
       2.257310435923e-03       1.266804115850e+00 
       2.437387742372e-03       1.358904853406e+00 
       2.631830745176e-03       1.456802683156e+00 
       2.841785470091e-03       1.560646890522e+00 
       3.068489367268e-03       1.670536062499e+00 
       3.313278604643e-03       1.786503852161e+00 
       3.577595943165e-03       1.908502930789e+00 
       3.862999240274e-03       2.036387730709e+00 
       4.171170631739e-03       2.169896178715e+00 
       4.503926445983e-03       2.308631878994e+00 
       4.863227909323e-03       2.452047290962e+00 
       5.251192705226e-03       2.599430628088e+00 
       5.670107455699e-03       2.749896931840e+00 
       6.122441198393e-03       2.902386513385e+00 
       6.610859938837e-03       3.055668703557e+00 
       7.138242363583e-03       3.208356461548e+00 
       7.707696806873e-03       3.358923892726e+00 
       8.322579570814e-03       3.505724064991e+00 
       8.986514707061e-03       3.647009540652e+00 
       9.703415376577e-03       3.780923304341e+00 
       1.047750691338e-02       3.905490358773e+00 
       1.131335172818e-02       4.018587811238e+00 
       1.221587619877e-02       4.117901587131e+00 
       1.319039970550e-02       4.200915336137e+00 
       1.424266598317e-02       4.264942416405e+00 
       1.537887697392e-02       4.307219975719e+00 
       1.660572938023e-02       4.325062895787e+00 
       1.793045412706e-02       4.316060011500e+00 
       1.936085890181e-02       4.278230514395e+00 
       2.090537352463e-02       4.210203333563e+00 
       2.257309535333e-02       4.111419374192e+00 
       2.437382002918e-02       3.982414483821e+00 
       2.631799944462e-02       3.825175206867e+00 
       2.841644545389e-02       3.643286721372e+00 
       3.067933355377e-02       3.442191834893e+00 
       3.311368470740e-02       3.229233384233e+00 
       3.571840443502e-02       3.013520670706e+00 
       3.847720348444e-02       2.805282189457e+00 
       4.135335538431e-02       2.614404645574e+00 
       4.429361667738e-02       2.448124206370e+00 
       4.724366439141e-02       2.309236690259e+00 
       5.016480835311e-02       2.196111502689e+00 
       5.303989620246e-02       2.104368424062e+00 
       5.586870669566e-02       2.028463089020e+00 
       5.866042680613e-02       1.963156678293e+00 
       6.142798932958e-02       1.903781309669e+00 
       6.418496440164e-02       1.846476547126e+00 
       6.694418833788e-02       1.788197315077e+00 
       6.971731106057e-02       1.726719283063e+00 
       7.251476155766e-02       1.660657168665e+00 
       7.534587671527e-02       1.589467941724e+00 
       7.821907666265e-02       1.513443228678e+00 
       8.114203772912e-02       1.433569222300e+00 
       8.412184535029e-02       1.351492287725e+00 
       8.716512279304e-02       1.269274903994e+00 
       9.027813695930e-02       1.189194251583e+00 
       9.346688431697e-02       1.113502233455e+00 
       9.673716028276e-02       1.044176440703e+00 
       1.000946150830e-01       9.827061955146e-01 
       1.035447986537e-01       9.299374116819e-01 
       1.070931966762e-01       8.859599307403e-01 
       1.107452594425e-01       8.500701830234e-01 
       1.145064249153e-01       8.208042122380e-01 
       1.183821370918e-01       7.960263078694e-01 
       1.223778605862e-01       7.731461640343e-01 
       1.264990921987e-01       7.494515489403e-01 
       1.307513701367e-01       7.225583602830e-01 
       1.351402814784e-01       6.909084231297e-01 
       1.396714684203e-01       6.541805773086e-01 
       1.443506338194e-01       6.134277078362e-01 
       1.491835465229e-01       5.708679373310e-01 
       1.541760469708e-01       5.293627272396e-01 
       1.593340535561e-01       4.917110311889e-01 
       1.646635702297e-01       4.599203934005e-01 
       1.701706958456e-01       4.347292151810e-01 
       1.758616357459e-01       4.154085215488e-01 
       1.817427160982e-01       3.999370160963e-01 
       1.878204015065e-01       3.856829846586e-01 
       1.941013164283e-01       3.698105065063e-01 
       2.005922709503e-01       3.505462199224e-01 
       2.073002914972e-01       3.280438199478e-01 
       2.142326570816e-01       3.042132767140e-01 
       2.213969417533e-01       2.816122294716e-01 
       2.288010639706e-01       2.622564412893e-01 
       2.364533437147e-01       2.469622500209e-01 
       2.443625682930e-01       2.350132971756e-01 
       2.525380679504e-01       2.244180851541e-01 
       2.609898026346e-01       2.130936762768e-01 
       2.697284615565e-01       2.001017846266e-01 
       2.787655775689e-01       1.860200895277e-01 
       2.881136588829e-01       1.725174782643e-01 
       2.977863412677e-01       1.610659439291e-01 
       3.077985646929e-01       1.517611713083e-01 
       3.181667794071e-01       1.435596669512e-01 
       3.289091877812e-01       1.351814391839e-01 
       3.400460299658e-01       1.261645062204e-01 
       3.515999236474e-01       1.172022686049e-01 
       3.635962711085e-01       1.091769706091e-01 
       3.760637506334e-01       1.023095299497e-01 
       3.890349143879e-01       9.593771143246e-02 
       4.025469216825e-01       8.950767977271e-02 
       4.166424456376e-01       8.311159974858e-02 
       4.313708035863e-01       7.721557903054e-02 
       4.467893782977e-01       7.190058136275e-02 
       4.629654199664e-01       6.686899044296e-02 
       4.799783501994e-01       6.191750871009e-02 
       4.979227319373e-01       5.722220847767e-02 
       5.169121270864e-01       5.290287291921e-02 
       5.370841404489e-01       4.876989303631e-02 
       5.586070464571e-01       4.479088107093e-02 
       5.816885094930e-01       4.105190567114e-02 
       6.065870144995e-01       3.749002381083e-02 
       6.336266468475e-01       3.407633258482e-02 
       6.632156059511e-01       3.083457581807e-02 
       6.958678639263e-01       2.772826475409e-02 
       7.322247985589e-01       2.476709591643e-02 
       7.730680195114e-01       2.193953231004e-02 
       8.193049553677e-01       1.925617174213e-02 
       8.718988016039e-01       1.672931594211e-02 
       9.317218031082e-01       1.438421790234e-02 
       9.993660908989e-01       1.225066341454e-02 
       1.075037110174e+00       1.035263602928e-02 
       1.158653485707e+00       8.699715099047e-03 
       1.250099157308e+00       7.284597829161e-03 
       1.349432401273e+00       6.085450640699e-03 
       1.456947457397e+00       5.075729107033e-03 
       1.573135111331e+00       4.228297720831e-03 
       1.698621895592e+00       3.518547179957e-03 
       1.834127512934e+00       2.924975957757e-03 
       1.980444934528e+00       2.429160214374e-03 
       2.138435191726e+00       2.015504416665e-03 
       2.309029199186e+00       1.670768240781e-03 
       2.493232377687e+00       1.383790292577e-03 
       2.692130395285e+00       1.145133114183e-03 
       2.906895534573e+00       9.468527638226e-04 
       3.138793597714e+00       7.822866688123e-04 
       3.389191366484e+00       6.458227591211e-04 
       3.659564657905e+00       5.327606084688e-04 
       3.951507022538e+00       4.391820152300e-04 
       4.266739136701e+00       3.617846307755e-04 
       4.607118943941e+00       2.978220604571e-04 
       4.974652605557e+00       2.450087999635e-04 
       5.371506324689e+00       2.014314278929e-04 
       5.800019113685e+00       1.655013156886e-04 
       6.262716579983e+00       1.358991840935e-04 
       6.762325811764e+00       1.115253838610e-04 
       7.301791451110e+00       9.147133976398e-05 
       7.884293049406e+00       7.498186307980e-05 
       8.513263807261e+00       6.143168043420e-05 
       9.192410809424e+00       5.030363062767e-05 
       9.925736873929e+00       4.117059193660e-05 
       1.071756414427e+01       3.367865491828e-05 
       1.157255956364e+01       2.753681015502e-05 
       1.249576238137e+01       2.250433279535e-05 
       1.349261385375e+01       1.838295985121e-05 
       1.456898931416e+01       1.500954997480e-05 
       1.573123280165e+01       1.224978400849e-05 
       1.698619445202e+01       9.992969349536e-06 
       1.834127087176e+01       8.148542050527e-06 
       1.980444873285e+01       6.641711843169e-06 
       2.138435184532e+01       5.411147645930e-06 
       2.309029198506e+01       4.406828729238e-06 
       2.493232377636e+01       3.587398546459e-06 
       2.692130395282e+01       2.919128283281e-06 
       2.906895534573e+01       2.374321510200e-06 
       3.138793597714e+01       1.930373623967e-06 
       3.389191366484e+01       1.568768207900e-06 
       3.659564657905e+01       1.274284353360e-06 
       3.951507022538e+01       1.034618497203e-06 
       4.266739136701e+01       8.395925734981e-07 
       4.607118943941e+01       6.809714200640e-07 
       4.974652605557e+01       5.520006676885e-07 
       5.371506324689e+01       4.471742072756e-07 
       5.800019113685e+01       3.619991853006e-07 
       6.262716579983e+01       2.928213647757e-07 
       6.762325811764e+01       2.366533671534e-07 
