# Matter power spectrum P(k) at redshift z=99
# for k=1.04775e-05 to 134.926 h/Mpc,
# number of wavenumbers equal to 255
#    1:k (h/Mpc)              2:P (Mpc/h)^3        
       1.047750691338e-05       7.261927095216e-03 
       1.131335172818e-05       7.820332150681e-03 
       1.221587619877e-05       8.421675382250e-03 
       1.319039970550e-05       9.069257737917e-03 
       1.424266598317e-05       9.766636451033e-03 
       1.537887697396e-05       1.051763973631e-02 
       1.660572938097e-05       1.132639250741e-02 
       1.793045413791e-05       1.219733201497e-02 
       1.936085902737e-05       1.313524187191e-02 
       2.090537469909e-05       1.414527084965e-02 
       2.257310435923e-05       1.523296544479e-02 
       2.437387742372e-05       1.640429654626e-02 
       2.631830745176e-05       1.766569603271e-02 
       2.841785470091e-05       1.902408711147e-02 
       3.068489367268e-05       2.048692967428e-02 
       3.313278604643e-05       2.206225467531e-02 
       3.577595943165e-05       2.375870883834e-02 
       3.862999240274e-05       2.558560669802e-02 
       4.171170631739e-05       2.755297672487e-02 
       4.503926445983e-05       2.967161933390e-02 
       4.863227909323e-05       3.195316455632e-02 
       5.251192705226e-05       3.441013466109e-02 
       5.670107455699e-05       3.705601741674e-02 
       6.122441198393e-05       3.990533412806e-02 
       6.610859938837e-05       4.297372242499e-02 
       7.138242363583e-05       4.627802054815e-02 
       7.707696806873e-05       4.983636159849e-02 
       8.322579570814e-05       5.366826786893e-02 
       8.986514707061e-05       5.779476319690e-02 
       9.703415376577e-05       6.223848221789e-02 
       1.047750691338e-04       6.702379824971e-02 
       1.131335172818e-04       7.217695031026e-02 
       1.221587619877e-04       7.772619030304e-02 
       1.319039970550e-04       8.370193379979e-02 
       1.424266598317e-04       9.013692506602e-02 
       1.537887697396e-04       9.706641130330e-02 
       1.660572938097e-04       1.045283343104e-01 
       1.793045413791e-04       1.125635329178e-01 
       1.936085902737e-04       1.212159592301e-01 
       2.090537469909e-04       1.305329107427e-01 
       2.257310435923e-04       1.405652819352e-01 
       2.437387742372e-04       1.513678275067e-01 
       2.631830745176e-04       1.629994475124e-01 
       2.841785470091e-04       1.755234890469e-01 
       3.068489367268e-04       1.890080645289e-01 
       3.313278604643e-04       2.035263977421e-01 
       3.577595943165e-04       2.191571778034e-01 
       3.862999240274e-04       2.359849423249e-01 
       4.171170631739e-04       2.541004712991e-01 
       4.503926445983e-04       2.736012061147e-01 
       4.863227909323e-04       2.945916774631e-01 
       5.251192705226e-04       3.171839507851e-01 
       5.670107455699e-04       3.414980769095e-01 
       6.122441198393e-04       3.676625416288e-01 
       6.610859938837e-04       3.958147272851e-01 
       7.138242363583e-04       4.261013332051e-01 
       7.707696806873e-04       4.586787880836e-01 
       8.322579570814e-04       4.937136112808e-01 
       8.986514707061e-04       5.313826962064e-01 
       9.703415376577e-04       5.718735176792e-01 
       1.047750691338e-03       6.153841926239e-01 
       1.131335172818e-03       6.621233623113e-01 
       1.221587619877e-03       7.123098743646e-01 
       1.319039970550e-03       7.661721263782e-01 
       1.424266598317e-03       8.239547181301e-01 
       1.537887697396e-03       8.859012282820e-01 
       1.660572938097e-03       9.522589495761e-01 
       1.793045413791e-03       1.023280284738e+00 
       1.936085902737e-03       1.099216542130e+00 
       2.090537469909e-03       1.180313285064e+00 
       2.257310435923e-03       1.266804486841e+00 
       2.437387742372e-03       1.358905328501e+00 
       2.631830745176e-03       1.456803285994e+00 
       2.841785470091e-03       1.560647663088e+00 
       3.068489367268e-03       1.670537010636e+00 
       3.313278604643e-03       1.786505039709e+00 
       3.577595943165e-03       1.908504410201e+00 
       3.862999240274e-03       2.036389468856e+00 
       4.171170631739e-03       2.169898252916e+00 
       4.503926445983e-03       2.308634492102e+00 
       4.863227909323e-03       2.452050674931e+00 
       5.251192705226e-03       2.599434681314e+00 
       5.670107455699e-03       2.749901126676e+00 
       6.122441198393e-03       2.902390058578e+00 
       6.610859938837e-03       3.055671270126e+00 
       7.138242363583e-03       3.208360123205e+00 
       7.707696806873e-03       3.358926651801e+00 
       8.322579570814e-03       3.505726890418e+00 
       8.986514707061e-03       3.647012438555e+00 
       9.703415376577e-03       3.780926180258e+00 
       1.047750691338e-02       3.905492881880e+00 
       1.131335172818e-02       4.018589827599e+00 
       1.221587619877e-02       4.117902890807e+00 
       1.319039970550e-02       4.200917702989e+00 
       1.424266598317e-02       4.264943742316e+00 
       1.537887697392e-02       4.307219674010e+00 
       1.660572938023e-02       4.325062463346e+00 
       1.793045412706e-02       4.316060398962e+00 
       1.936085890181e-02       4.278228940357e+00 
       2.090537352463e-02       4.210204482552e+00 
       2.257309535333e-02       4.111418758643e+00 
       2.437382002918e-02       3.982420947245e+00 
       2.631799944462e-02       3.825168695876e+00 
       2.841644545389e-02       3.643282255663e+00 
       3.067933355377e-02       3.442198714130e+00 
       3.311368470740e-02       3.229241607649e+00 
       3.571840443502e-02       3.013516341608e+00 
       3.847720348444e-02       2.805283951652e+00 
       4.135335538431e-02       2.614410677020e+00 
       4.429361667738e-02       2.448132197680e+00 
       4.724366439141e-02       2.309240671870e+00 
       5.016480835311e-02       2.196115199353e+00 
       5.303989620246e-02       2.104369738759e+00 
       5.586870669566e-02       2.028462481448e+00 
       5.866042680613e-02       1.963155209852e+00 
       6.142798932958e-02       1.903779621217e+00 
       6.418496440164e-02       1.846479137773e+00 
       6.694418833788e-02       1.788197418484e+00 
       6.971731106057e-02       1.726715634686e+00 
       7.251476155766e-02       1.660654370089e+00 
       7.534587671527e-02       1.589470559016e+00 
       7.821907666265e-02       1.513437394466e+00 
       8.114203772912e-02       1.433569602070e+00 
       8.412184535029e-02       1.351493026445e+00 
       8.716512279304e-02       1.269273822571e+00 
       9.027813695930e-02       1.189193317472e+00 
       9.346688431697e-02       1.113501322045e+00 
       9.673716028276e-02       1.044174661666e+00 
       1.000946150830e-01       9.827062064549e-01 
       1.035447986537e-01       9.299386491869e-01 
       1.070931966762e-01       8.859588000975e-01 
       1.107452594425e-01       8.500714271164e-01 
       1.145064249153e-01       8.208036728652e-01 
       1.183821370918e-01       7.960245493264e-01 
       1.223778605862e-01       7.731459055083e-01 
       1.264990921987e-01       7.494521898368e-01 
       1.307513701367e-01       7.225572758172e-01 
       1.351402814784e-01       6.909086282096e-01 
       1.396714684203e-01       6.541808961587e-01 
       1.443506338194e-01       6.134264554942e-01 
       1.491835465229e-01       5.708676512767e-01 
       1.541760469708e-01       5.293631045461e-01 
       1.593340535561e-01       4.917108525402e-01 
       1.646635702297e-01       4.599197567692e-01 
       1.701706958456e-01       4.347278056259e-01 
       1.758616357459e-01       4.154080579364e-01 
       1.817427160982e-01       3.999367961208e-01 
       1.878204015065e-01       3.856823203076e-01 
       1.941013164283e-01       3.698089793562e-01 
       2.005922709503e-01       3.505460389096e-01 
       2.073002914972e-01       3.280426885493e-01 
       2.142326570816e-01       3.042131346218e-01 
       2.213969417533e-01       2.816120088956e-01 
       2.288010639706e-01       2.622566331994e-01 
       2.364533437147e-01       2.469615712620e-01 
       2.443625682930e-01       2.350124815036e-01 
       2.525380679504e-01       2.244173251977e-01 
       2.609898026346e-01       2.130932988326e-01 
       2.697284615565e-01       2.001013543996e-01 
       2.787655775689e-01       1.860195220246e-01 
       2.881136588829e-01       1.725167302889e-01 
       2.977863412677e-01       1.610655237356e-01 
       3.077985646929e-01       1.517603182189e-01 
       3.181667794071e-01       1.435587291558e-01 
       3.289091877812e-01       1.351808468842e-01 
       3.400460299658e-01       1.261635844742e-01 
       3.515999236474e-01       1.172013412676e-01 
       3.635962711085e-01       1.091761986677e-01 
       3.760637506334e-01       1.023088494788e-01 
       3.890349143879e-01       9.593695854264e-02 
       4.025469216825e-01       8.950695572286e-02 
       4.166424456376e-01       8.311098969768e-02 
       4.313708035863e-01       7.721468570018e-02 
       4.467893782977e-01       7.189978729568e-02 
       4.629654199664e-01       6.686819388520e-02 
       4.799783501994e-01       6.191668124053e-02 
       4.979227319373e-01       5.722135777853e-02 
       5.169121270864e-01       5.290199469503e-02 
       5.370841404489e-01       4.876887607749e-02 
       5.586070464571e-01       4.478980361457e-02 
       5.816885094930e-01       4.105096552786e-02 
       6.065870144995e-01       3.748896038927e-02 
       6.336266468475e-01       3.407524399327e-02 
       6.632156059511e-01       3.083355069372e-02 
       6.958678639263e-01       2.772736461554e-02 
       7.322247985589e-01       2.476612335446e-02 
       7.730680195114e-01       2.193857246213e-02 
       8.193049553677e-01       1.925509505317e-02 
       8.718988016039e-01       1.672824184270e-02 
       9.317218031082e-01       1.438308599456e-02 
       9.993660908989e-01       1.224954848734e-02 
       1.075037110174e+00       1.035146001782e-02 
       1.158653485707e+00       8.698515573969e-03 
       1.250099157308e+00       7.283409299756e-03 
       1.349432401273e+00       6.084272632474e-03 
       1.456947457397e+00       5.074499817089e-03 
       1.573135111331e+00       4.227067182539e-03 
       1.698621895592e+00       3.517296343160e-03 
       1.834127512934e+00       2.923716668332e-03 
       1.980444934528e+00       2.427864682160e-03 
       2.138435191726e+00       2.014217604189e-03 
       2.309029199186e+00       1.669481844042e-03 
       2.493232377687e+00       1.382486841161e-03 
       2.692130395285e+00       1.143814080479e-03 
       2.906895534573e+00       9.455349015668e-04 
       3.138793597714e+00       7.809630557878e-04 
       3.389191366484e+00       6.444947957408e-04 
       3.659564657905e+00       5.314371063024e-04 
       3.951507022538e+00       4.378527817423e-04 
       4.266739136701e+00       3.604564561377e-04 
       4.607118943941e+00       2.964979850398e-04 
       4.974652605557e+00       2.436881503601e-04 
       5.371506324689e+00       2.001147500239e-04 
       5.800019113685e+00       1.641918899440e-04 
       6.262716579983e+00       1.345969570988e-04 
       6.762325811764e+00       1.102318940013e-04 
       7.301791451110e+00       9.018817190870e-05 
       7.884293049406e+00       7.371008425839e-05 
       8.513263807261e+00       6.017362495061e-05 
       9.192410809424e+00       4.906012823040e-05 
       9.925736873929e+00       3.994378591560e-05 
       1.071756414427e+01       3.246999588080e-05 
       1.157255956364e+01       2.634789052087e-05 
       1.249576238137e+01       2.133670514267e-05 
       1.349261385375e+01       1.723858348927e-05 
       1.456898931416e+01       1.389021564823e-05 
       1.573123280165e+01       1.115770375112e-05 
       1.698619445202e+01       8.930199237980e-06 
       1.834127087176e+01       7.117085315331e-06 
       1.980444873285e+01       5.643799285493e-06 
       2.138435184532e+01       4.449169399365e-06 
       2.309029198506e+01       3.483062467270e-06 
       2.493232377636e+01       2.704206266829e-06 
       2.692130395282e+01       2.078839306608e-06 
       2.906895534573e+01       1.579311505161e-06 
       3.138793597714e+01       1.182809674085e-06 
       3.389191366484e+01       8.706276323216e-07 
       3.659564657905e+01       6.274180482378e-07 
       3.951507022538e+01       4.404118019060e-07 
       4.266739136701e+01       2.991006131136e-07 
       4.607118943941e+01       1.946515225536e-07 
       4.974652605557e+01       1.197064233688e-07 
       5.371506324689e+01       6.804928425005e-08 
       5.800019113685e+01       3.441006520316e-08 
       6.262716579983e+01       1.431627341244e-08 
       6.762325811764e+01       3.984540667149e-09 
       7.301791451110e+01       2.474509734402e-10 
       7.884293049406e+01       5.146989719722e-10 
       8.513263807261e+01       2.743643086772e-09 
       9.192410809424e+01       5.428450442962e-09 
       9.925736873929e+01       7.574269920087e-09 
       1.071756414427e+02       8.656846966635e-09 
       1.157255956364e+02       8.559696870085e-09 
       1.249576238137e+02       7.465793843267e-09 
       1.349261385375e+02       5.761546302793e-09 
