# Matter power spectrum P(k) at redshift z=99
# for k=1.04775e-05 to 134.926 h/Mpc,
# number of wavenumbers equal to 255
#    1:k (h/Mpc)              2:P (Mpc/h)^3        
       1.047750691338e-05       7.261927095222e-03 
       1.131335172818e-05       7.820332150687e-03 
       1.221587619877e-05       8.421675382257e-03 
       1.319039970550e-05       9.069257737925e-03 
       1.424266598317e-05       9.766636451041e-03 
       1.537887697396e-05       1.051763973632e-02 
       1.660572938097e-05       1.132639250742e-02 
       1.793045413791e-05       1.219733201498e-02 
       1.936085902737e-05       1.313524187192e-02 
       2.090537469909e-05       1.414527084966e-02 
       2.257310435923e-05       1.523296544480e-02 
       2.437387742372e-05       1.640429654628e-02 
       2.631830745176e-05       1.766569603273e-02 
       2.841785470091e-05       1.902408711148e-02 
       3.068489367268e-05       2.048692967429e-02 
       3.313278604643e-05       2.206225467533e-02 
       3.577595943165e-05       2.375870883836e-02 
       3.862999240274e-05       2.558560669805e-02 
       4.171170631739e-05       2.755297672489e-02 
       4.503926445983e-05       2.967161933393e-02 
       4.863227909323e-05       3.195316455634e-02 
       5.251192705226e-05       3.441013466112e-02 
       5.670107455699e-05       3.705601741677e-02 
       6.122441198393e-05       3.990533412809e-02 
       6.610859938837e-05       4.297372242502e-02 
       7.138242363583e-05       4.627802054820e-02 
       7.707696806873e-05       4.983636159853e-02 
       8.322579570814e-05       5.366826786897e-02 
       8.986514707061e-05       5.779476319694e-02 
       9.703415376577e-05       6.223848221794e-02 
       1.047750691338e-04       6.702379824977e-02 
       1.131335172818e-04       7.217695031031e-02 
       1.221587619877e-04       7.772619030311e-02 
       1.319039970550e-04       8.370193379987e-02 
       1.424266598317e-04       9.013692506609e-02 
       1.537887697396e-04       9.706641130338e-02 
       1.660572938097e-04       1.045283343104e-01 
       1.793045413791e-04       1.125635329179e-01 
       1.936085902737e-04       1.212159592302e-01 
       2.090537469909e-04       1.305329107428e-01 
       2.257310435923e-04       1.405652819353e-01 
       2.437387742372e-04       1.513678275068e-01 
       2.631830745176e-04       1.629994475125e-01 
       2.841785470091e-04       1.755234890470e-01 
       3.068489367268e-04       1.890080645291e-01 
       3.313278604643e-04       2.035263977423e-01 
       3.577595943165e-04       2.191571778036e-01 
       3.862999240274e-04       2.359849423251e-01 
       4.171170631739e-04       2.541004712993e-01 
       4.503926445983e-04       2.736012061150e-01 
       4.863227909323e-04       2.945916774633e-01 
       5.251192705226e-04       3.171839507854e-01 
       5.670107455699e-04       3.414980769098e-01 
       6.122441198393e-04       3.676625416290e-01 
       6.610859938837e-04       3.958147272854e-01 
       7.138242363583e-04       4.261013332054e-01 
       7.707696806873e-04       4.586787880839e-01 
       8.322579570814e-04       4.937136112811e-01 
       8.986514707061e-04       5.313826962067e-01 
       9.703415376577e-04       5.718735176796e-01 
       1.047750691338e-03       6.153841926243e-01 
       1.131335172818e-03       6.621233623117e-01 
       1.221587619877e-03       7.123098743650e-01 
       1.319039970550e-03       7.661721263785e-01 
       1.424266598317e-03       8.239547181304e-01 
       1.537887697396e-03       8.859012282823e-01 
       1.660572938097e-03       9.522589495763e-01 
       1.793045413791e-03       1.023280284738e+00 
       1.936085902737e-03       1.099216542130e+00 
       2.090537469909e-03       1.180313285064e+00 
       2.257310435923e-03       1.266804486840e+00 
       2.437387742372e-03       1.358905328499e+00 
       2.631830745176e-03       1.456803285991e+00 
       2.841785470091e-03       1.560647663084e+00 
       3.068489367268e-03       1.670537010630e+00 
       3.313278604643e-03       1.786505039700e+00 
       3.577595943165e-03       1.908504410188e+00 
       3.862999240274e-03       2.036389468838e+00 
       4.171170631739e-03       2.169898252891e+00 
       4.503926445983e-03       2.308634492068e+00 
       4.863227909323e-03       2.452050674882e+00 
       5.251192705226e-03       2.599434681246e+00 
       5.670107455699e-03       2.749901126582e+00 
       6.122441198393e-03       2.902390058448e+00 
       6.610859938837e-03       3.055671269946e+00 
       7.138242363583e-03       3.208360122955e+00 
       7.707696806873e-03       3.358926651459e+00 
       8.322579570814e-03       3.505726889951e+00 
       8.986514707061e-03       3.647012437911e+00 
       9.703415376577e-03       3.780926179381e+00 
       1.047750691338e-02       3.905492880682e+00 
       1.131335172818e-02       4.018589825972e+00 
       1.221587619877e-02       4.117902888618e+00 
       1.319039970550e-02       4.200917700053e+00 
       1.424266598317e-02       4.264943752981e+00 
       1.537887697392e-02       4.307219705779e+00 
       1.660572938023e-02       4.325062388223e+00 
       1.793045412706e-02       4.316060354083e+00 
       1.936085890181e-02       4.278228788453e+00 
       2.090537352463e-02       4.210204466973e+00 
       2.257309535333e-02       4.111418738500e+00 
       2.437382002918e-02       3.982420921374e+00 
       2.631799944462e-02       3.825168662951e+00 
       2.841644545389e-02       3.643282214092e+00 
       3.067933355377e-02       3.442198662177e+00 
       3.311368470740e-02       3.229241543379e+00 
       3.571840443502e-02       3.013516263011e+00 
       3.847720348444e-02       2.805283856685e+00 
       4.135335538431e-02       2.614410563624e+00 
       4.429361667738e-02       2.448132064240e+00 
       4.724366439141e-02       2.309240518315e+00 
       5.016480835311e-02       2.196115024793e+00 
       5.303989620246e-02       2.104369543933e+00 
       5.586870669566e-02       2.028462264043e+00 
       5.866042680613e-02       1.963154969524e+00 
       6.142798932958e-02       1.903779357733e+00 
       6.418496440164e-02       1.846478850950e+00 
       6.694418833788e-02       1.788197108255e+00 
       6.971731106057e-02       1.726715300987e+00 
       7.251476155766e-02       1.660654012809e+00 
       7.534587671527e-02       1.589470191878e+00 
       7.821907666265e-02       1.513436985065e+00 
       8.114203772912e-02       1.433569167584e+00 
       8.412184535029e-02       1.351492567188e+00 
       8.716512279304e-02       1.269273346627e+00 
       9.027813695930e-02       1.189192817350e+00 
       9.346688431697e-02       1.113500795668e+00 
       9.673716028276e-02       1.044174110148e+00 
       1.000946150830e-01       9.827056283529e-01 
       1.035447986537e-01       9.299371125495e-01 
       1.070931966762e-01       8.859581616371e-01 
       1.107452594425e-01       8.500707555577e-01 
       1.145064249153e-01       8.208029640598e-01 
       1.183821370918e-01       7.960238026101e-01 
       1.223778605862e-01       7.731451189597e-01 
       1.264990921987e-01       7.494513756581e-01 
       1.307513701367e-01       7.225564112418e-01 
       1.351402814784e-01       6.909077271502e-01 
       1.396714684203e-01       6.541799610978e-01 
       1.443506338194e-01       6.134254893025e-01 
       1.491835465229e-01       5.708666421652e-01 
       1.541760469708e-01       5.293620714886e-01 
       1.593340535561e-01       4.917097905052e-01 
       1.646635702297e-01       4.599186589657e-01 
       1.701706958456e-01       4.347266693733e-01 
       1.758616357459e-01       4.154068747450e-01 
       1.817427160982e-01       3.999355636376e-01 
       1.878204015065e-01       3.856810378931e-01 
       1.941013164283e-01       3.698076464935e-01 
       2.005922709503e-01       3.505446693166e-01 
       2.073002914972e-01       3.280412742571e-01 
       2.142326570816e-01       3.042116873851e-01 
       2.213969417533e-01       2.816105241840e-01 
       2.288010639706e-01       2.622551221211e-01 
       2.364533437147e-01       2.469599795899e-01 
       2.443625682930e-01       2.350108622793e-01 
       2.525380679504e-01       2.244156499377e-01 
       2.609898026346e-01       2.130911395999e-01 
       2.697284615565e-01       2.000995984108e-01 
       2.787655775689e-01       1.860175463892e-01 
       2.881136588829e-01       1.725149156110e-01 
       2.977863412677e-01       1.610636305654e-01 
       3.077985646929e-01       1.517583916549e-01 
       3.181667794071e-01       1.435567262187e-01 
       3.289091877812e-01       1.351788244214e-01 
       3.400460299658e-01       1.261614447851e-01 
       3.515999236474e-01       1.171993112210e-01 
       3.635962711085e-01       1.091740625732e-01 
       3.760637506334e-01       1.023066438470e-01 
       3.890349143879e-01       9.593467650357e-02 
       4.025469216825e-01       8.950464662990e-02 
       4.166424456376e-01       8.310863185054e-02 
       4.313708035863e-01       7.721231589507e-02 
       4.467893782977e-01       7.189733612304e-02 
       4.629654199664e-01       6.686565623566e-02 
       4.799783501994e-01       6.191411626917e-02 
       4.979227319373e-01       5.721874528886e-02 
       5.169121270864e-01       5.289932923252e-02 
       5.370841404489e-01       4.876616377555e-02 
       5.586070464571e-01       4.478704119479e-02 
       5.816885094930e-01       4.104814698358e-02 
       6.065870144995e-01       3.748609469632e-02 
       6.336266468475e-01       3.407231903106e-02 
       6.632156059511e-01       3.083056625117e-02 
       6.958678639263e-01       2.772432427877e-02 
       7.322247985589e-01       2.476294308479e-02 
       7.730680195114e-01       2.193543877055e-02 
       8.193049553677e-01       1.925187374565e-02 
       8.718988016039e-01       1.672488657483e-02 
       9.317218031082e-01       1.437966850923e-02 
       9.993660908989e-01       1.224610640970e-02 
       1.075037110174e+00       1.034795137493e-02 
       1.158653485707e+00       8.695000766614e-03 
       1.250099157308e+00       7.279774708698e-03 
       1.349432401273e+00       6.080564484563e-03 
       1.456947457397e+00       5.070765224525e-03 
       1.573135111331e+00       4.223273891663e-03 
       1.698621895592e+00       3.513451938230e-03 
       1.834127512934e+00       2.919833512017e-03 
       1.980444934528e+00       2.423959432698e-03 
       2.138435191726e+00       2.010265565462e-03 
       2.309029199186e+00       1.665483409218e-03 
       2.493232377687e+00       1.378488513207e-03 
       2.692130395285e+00       1.139799211002e-03 
       2.906895534573e+00       9.415115794330e-04 
       3.138793597714e+00       7.769326794838e-04 
       3.389191366484e+00       6.404651693020e-04 
       3.659564657905e+00       5.274121527448e-04 
       3.951507022538e+00       4.338410743335e-04 
       4.266739136701e+00       3.564592583920e-04 
       4.607118943941e+00       2.925248632899e-04 
       4.974652605557e+00       2.397426563301e-04 
       5.371506324689e+00       1.962059627773e-04 
       5.800019113685e+00       1.603238234297e-04 
       6.262716579983e+00       1.307764495012e-04 
       6.762325811764e+00       1.064673912030e-04 
       7.301791451110e+00       8.648807229223e-05 
       7.884293049406e+00       7.008146327375e-05 
       8.513263807261e+00       5.662386288361e-05 
       9.192410809424e+00       4.559849536192e-05 
       9.925736873929e+00       3.657790010473e-05 
       1.071756414427e+01       2.921035981869e-05 
       1.157255956364e+01       2.320321163747e-05 
       1.249576238137e+01       1.831693467580e-05 
       1.349261385375e+01       1.435385405424e-05 
       1.456898931416e+01       1.115041606796e-05 
       1.573123280165e+01       8.572017075041e-06 
       1.698619445202e+01       6.508319854921e-06 
       1.834127087176e+01       4.867844911622e-06 
       1.980444873285e+01       3.575106789970e-06 
       2.138435184532e+01       2.567672118167e-06 
       2.309029198506e+01       1.793622101264e-06 
       2.493232377636e+01       1.209754912321e-06 
       2.692130395282e+01       7.797396596927e-07 
       2.906895534573e+01       4.729343511606e-07 
       3.138793597714e+01       2.633350000202e-07 
       3.389191366484e+01       1.287870180695e-07 
       3.659564657905e+01       5.033823131252e-08 
       3.951507022538e+01       1.196142377936e-08 
       4.266739136701e+01       1.832684524971e-10 
       4.607118943941e+01       4.023932767435e-09 
       4.974652605557e+01       1.492553854993e-08 
       5.371506324689e+01       2.666207650642e-08 
       5.800019113685e+01       3.526551603452e-08 
       6.262716579983e+01       3.883973354443e-08 
       6.762325811764e+01       3.722243296262e-08 
       7.301791451110e+01       3.150748114855e-08 
       7.884293049406e+01       2.352885594879e-08 
       8.513263807261e+01       1.523856047304e-08 
       9.192410809424e+01       8.227768482678e-09 
       9.925736873929e+01       3.384960987759e-09 
       1.071756414427e+02       8.181388676949e-10 
       1.157255956364e+02       1.770247978559e-11 
       1.249576238137e+02       1.823103429864e-10 
       1.349261385375e+02       5.728886443625e-10 
