# Matter power spectrum P(k) at redshift z=99
# for k=1.04775e-05 to 134.926 h/Mpc,
# number of wavenumbers equal to 255
#    1:k (h/Mpc)              2:P (Mpc/h)^3        
       1.047750691338e-05       7.261927095222e-03 
       1.131335172818e-05       7.820332150687e-03 
       1.221587619877e-05       8.421675382256e-03 
       1.319039970550e-05       9.069257737924e-03 
       1.424266598317e-05       9.766636451040e-03 
       1.537887697396e-05       1.051763973632e-02 
       1.660572938097e-05       1.132639250742e-02 
       1.793045413791e-05       1.219733201498e-02 
       1.936085902737e-05       1.313524187192e-02 
       2.090537469909e-05       1.414527084966e-02 
       2.257310435923e-05       1.523296544480e-02 
       2.437387742372e-05       1.640429654628e-02 
       2.631830745176e-05       1.766569603273e-02 
       2.841785470091e-05       1.902408711148e-02 
       3.068489367268e-05       2.048692967429e-02 
       3.313278604643e-05       2.206225467533e-02 
       3.577595943165e-05       2.375870883835e-02 
       3.862999240274e-05       2.558560669804e-02 
       4.171170631739e-05       2.755297672489e-02 
       4.503926445983e-05       2.967161933393e-02 
       4.863227909323e-05       3.195316455634e-02 
       5.251192705226e-05       3.441013466111e-02 
       5.670107455699e-05       3.705601741677e-02 
       6.122441198393e-05       3.990533412809e-02 
       6.610859938837e-05       4.297372242502e-02 
       7.138242363583e-05       4.627802054820e-02 
       7.707696806873e-05       4.983636159853e-02 
       8.322579570814e-05       5.366826786897e-02 
       8.986514707061e-05       5.779476319694e-02 
       9.703415376577e-05       6.223848221794e-02 
       1.047750691338e-04       6.702379824976e-02 
       1.131335172818e-04       7.217695031031e-02 
       1.221587619877e-04       7.772619030310e-02 
       1.319039970550e-04       8.370193379986e-02 
       1.424266598317e-04       9.013692506608e-02 
       1.537887697396e-04       9.706641130337e-02 
       1.660572938097e-04       1.045283343104e-01 
       1.793045413791e-04       1.125635329179e-01 
       1.936085902737e-04       1.212159592302e-01 
       2.090537469909e-04       1.305329107428e-01 
       2.257310435923e-04       1.405652819353e-01 
       2.437387742372e-04       1.513678275068e-01 
       2.631830745176e-04       1.629994475125e-01 
       2.841785470091e-04       1.755234890470e-01 
       3.068489367268e-04       1.890080645291e-01 
       3.313278604643e-04       2.035263977423e-01 
       3.577595943165e-04       2.191571778035e-01 
       3.862999240274e-04       2.359849423251e-01 
       4.171170631739e-04       2.541004712993e-01 
       4.503926445983e-04       2.736012061149e-01 
       4.863227909323e-04       2.945916774633e-01 
       5.251192705226e-04       3.171839507853e-01 
       5.670107455699e-04       3.414980769098e-01 
       6.122441198393e-04       3.676625416290e-01 
       6.610859938837e-04       3.958147272854e-01 
       7.138242363583e-04       4.261013332054e-01 
       7.707696806873e-04       4.586787880839e-01 
       8.322579570814e-04       4.937136112811e-01 
       8.986514707061e-04       5.313826962067e-01 
       9.703415376577e-04       5.718735176795e-01 
       1.047750691338e-03       6.153841926242e-01 
       1.131335172818e-03       6.621233623116e-01 
       1.221587619877e-03       7.123098743649e-01 
       1.319039970550e-03       7.661721263785e-01 
       1.424266598317e-03       8.239547181303e-01 
       1.537887697396e-03       8.859012282822e-01 
       1.660572938097e-03       9.522589495763e-01 
       1.793045413791e-03       1.023280284738e+00 
       1.936085902737e-03       1.099216542130e+00 
       2.090537469909e-03       1.180313285064e+00 
       2.257310435923e-03       1.266804486840e+00 
       2.437387742372e-03       1.358905328499e+00 
       2.631830745176e-03       1.456803285991e+00 
       2.841785470091e-03       1.560647663084e+00 
       3.068489367268e-03       1.670537010631e+00 
       3.313278604643e-03       1.786505039701e+00 
       3.577595943165e-03       1.908504410190e+00 
       3.862999240274e-03       2.036389468840e+00 
       4.171170631739e-03       2.169898252894e+00 
       4.503926445983e-03       2.308634492072e+00 
       4.863227909323e-03       2.452050674888e+00 
       5.251192705226e-03       2.599434681254e+00 
       5.670107455699e-03       2.749901126593e+00 
       6.122441198393e-03       2.902390058463e+00 
       6.610859938837e-03       3.055671269968e+00 
       7.138242363583e-03       3.208360122985e+00 
       7.707696806873e-03       3.358926651499e+00 
       8.322579570814e-03       3.505726890006e+00 
       8.986514707061e-03       3.647012437986e+00 
       9.703415376577e-03       3.780926179484e+00 
       1.047750691338e-02       3.905492880824e+00 
       1.131335172818e-02       4.018589826162e+00 
       1.221587619877e-02       4.117902888878e+00 
       1.319039970550e-02       4.200917700399e+00 
       1.424266598317e-02       4.264943738854e+00 
       1.537887697392e-02       4.307219669395e+00 
       1.660572938023e-02       4.325062389037e+00 
       1.793045412706e-02       4.316060355157e+00 
       1.936085890181e-02       4.278228811965e+00 
       2.090537352463e-02       4.210204468804e+00 
       2.257309535333e-02       4.111418740870e+00 
       2.437382002918e-02       3.982420924413e+00 
       2.631799944462e-02       3.825168666819e+00 
       2.841644545389e-02       3.643282218904e+00 
       3.067933355377e-02       3.442198668278e+00 
       3.311368470740e-02       3.229241551181e+00 
       3.571840443502e-02       3.013516272194e+00 
       3.847720348444e-02       2.805283867833e+00 
       4.135335538431e-02       2.614410576939e+00 
       4.429361667738e-02       2.448132079807e+00 
       4.724366439141e-02       2.309240536198e+00 
       5.016480835311e-02       2.196115045636e+00 
       5.303989620246e-02       2.104369569187e+00 
       5.586870669566e-02       2.028462291494e+00 
       5.866042680613e-02       1.963154999277e+00 
       6.142798932958e-02       1.903779389863e+00 
       6.418496440164e-02       1.846478885536e+00 
       6.694418833788e-02       1.788197145375e+00 
       6.971731106057e-02       1.726715340701e+00 
       7.251476155766e-02       1.660654055131e+00 
       7.534587671527e-02       1.589470237668e+00 
       7.821907666265e-02       1.513437033543e+00 
       8.114203772912e-02       1.433569218837e+00 
       8.412184535029e-02       1.351492620328e+00 
       8.716512279304e-02       1.269273402521e+00 
       9.027813695930e-02       1.189192875761e+00 
       9.346688431697e-02       1.113500856571e+00 
       9.673716028276e-02       1.044174173980e+00 
       1.000946150830e-01       9.827056952516e-01 
       1.035447986537e-01       9.299371782012e-01 
       1.070931966762e-01       8.859582353761e-01 
       1.107452594425e-01       8.500708330977e-01 
       1.145064249153e-01       8.208030457490e-01 
       1.183821370918e-01       7.960238888190e-01 
       1.223778605862e-01       7.731452096888e-01 
       1.264990921987e-01       7.494514709075e-01 
       1.307513701367e-01       7.225565108125e-01 
       1.351402814784e-01       6.909078308568e-01 
       1.396714684203e-01       6.541800686177e-01 
       1.443506338194e-01       6.134256003307e-01 
       1.491835465229e-01       5.708667564635e-01 
       1.541760469708e-01       5.293621895119e-01 
       1.593340535561e-01       4.917099121807e-01 
       1.646635702297e-01       4.599187845881e-01 
       1.701706958456e-01       4.347267995806e-01 
       1.758616357459e-01       4.154070102057e-01 
       1.817427160982e-01       3.999357048441e-01 
       1.878204015065e-01       3.856811852579e-01 
       1.941013164283e-01       3.698077994740e-01 
       2.005922709503e-01       3.505448277714e-01 
       2.073002914972e-01       3.280414362134e-01 
       2.142326570816e-01       3.042118522302e-01 
       2.213969417533e-01       2.816106932808e-01 
       2.288010639706e-01       2.622552952454e-01 
       2.364533437147e-01       2.469601640139e-01 
       2.443625682930e-01       2.350110464711e-01 
       2.525380679504e-01       2.244158405337e-01 
       2.609898026346e-01       2.130913361296e-01 
       2.697284615565e-01       2.000997950899e-01 
       2.787655775689e-01       1.860178274067e-01 
       2.881136588829e-01       1.725151325228e-01 
       2.977863412677e-01       1.610638499983e-01 
       3.077985646929e-01       1.517586101542e-01 
       3.181667794071e-01       1.435569480840e-01 
       3.289091877812e-01       1.351790512565e-01 
       3.400460299658e-01       1.261616806328e-01 
       3.515999236474e-01       1.171994486899e-01 
       3.635962711085e-01       1.091743135701e-01 
       3.760637506334e-01       1.023069038161e-01 
       3.890349143879e-01       9.593493816997e-02 
       4.025469216825e-01       8.950490607922e-02 
       4.166424456376e-01       8.310888387758e-02 
       4.313708035863e-01       7.721254854145e-02 
       4.467893782977e-01       7.189760525206e-02 
       4.629654199664e-01       6.686596687663e-02 
       4.799783501994e-01       6.191440033131e-02 
       4.979227319373e-01       5.721902941322e-02 
       5.169121270864e-01       5.289963786259e-02 
       5.370841404489e-01       4.876646923911e-02 
       5.586070464571e-01       4.478734071907e-02 
       5.816885094930e-01       4.104845231905e-02 
       6.065870144995e-01       3.748640513185e-02 
       6.336266468475e-01       3.407263466028e-02 
       6.632156059511e-01       3.083088905930e-02 
       6.958678639263e-01       2.772464960662e-02 
       7.322247985589e-01       2.476332033077e-02 
       7.730680195114e-01       2.193569114088e-02 
       8.193049553677e-01       1.925217978478e-02 
       8.718988016039e-01       1.672525585118e-02 
       9.317218031082e-01       1.438011331854e-02 
       9.993660908989e-01       1.224650241471e-02 
       1.075037110174e+00       1.034838917814e-02 
       1.158653485707e+00       8.695339224696e-03 
       1.250099157308e+00       7.280144308389e-03 
       1.349432401273e+00       6.080943829947e-03 
       1.456947457397e+00       5.071136616826e-03 
       1.573135111331e+00       4.223644076386e-03 
       1.698621895592e+00       3.513825894094e-03 
       1.834127512934e+00       2.920204387000e-03 
       1.980444934528e+00       2.424331122303e-03 
       2.138435191726e+00       2.010637396335e-03 
       2.309029199186e+00       1.665859730660e-03 
       2.493232377687e+00       1.378838568970e-03 
       2.692130395285e+00       1.140157040262e-03 
       2.906895534573e+00       9.418603618706e-04 
       3.138793597714e+00       7.772796636418e-04 
       3.389191366484e+00       6.407982572439e-04 
       3.659564657905e+00       5.277422974991e-04 
       3.951507022538e+00       4.341602387010e-04 
       4.266739136701e+00       3.567732142158e-04 
       4.607118943941e+00       2.928251554731e-04 
       4.974652605557e+00       2.400342175360e-04 
       5.371506324689e+00       1.964853414072e-04 
       5.800019113685e+00       1.605920964312e-04 
       6.262716579983e+00       1.310326217667e-04 
       6.762325811764e+00       1.067106221039e-04 
       7.301791451110e+00       8.671690264613e-05 
       7.884293049406e+00       7.029611904263e-05 
       8.513263807261e+00       5.682415745110e-05 
       9.192410809424e+00       4.578393970943e-05 
       9.925736873929e+00       3.674922690734e-05 
       1.071756414427e+01       2.936614690773e-05 
       1.157255956364e+01       2.334380251658e-05 
       1.249576238137e+01       1.844309411504e-05 
       1.349261385375e+01       1.446508806400e-05 
       1.456898931416e+01       1.124725200736e-05 
       1.573123280165e+01       8.655314958653e-06 
       1.698619445202e+01       6.578516897523e-06 
       1.834127087176e+01       4.925717140840e-06 
       1.980444873285e+01       3.621654609281e-06 
       2.138435184532e+01       2.603906514057e-06 
       2.309029198506e+01       1.820890586113e-06 
       2.493232377636e+01       1.229193649055e-06 
       2.692130395282e+01       7.927640039822e-07 
       2.906895534573e+01       4.809686836929e-07 
       3.138793597714e+01       2.676607053608e-07 
       3.389191366484e+01       1.306156988987e-07 
       3.659564657905e+01       5.075921974965e-08 
       3.951507022538e+01       1.183353610604e-08 
       4.266739136701e+01       1.341447583573e-10 
       4.607118943941e+01       4.438233964141e-09 
       4.974652605557e+01       1.592428905845e-08 
       5.371506324689e+01       2.818532924035e-08 
       5.800019113685e+01       3.711526817121e-08 
       6.262716579983e+01       4.074014955095e-08 
       6.762325811764e+01       3.890888948945e-08 
       7.301791451110e+01       3.280218243534e-08 
       7.884293049406e+01       2.435873772346e-08 
       8.513263807261e+01       1.564564749895e-08 
       9.192410809424e+01       8.336680322160e-09 
       9.925736873929e+01       3.344163869305e-09 
       1.071756414427e+02       7.570329015575e-10 
       1.157255956364e+02       7.120986107086e-12 
       1.249576238137e+02       2.306073566721e-10 
       1.349261385375e+02       6.485018146393e-10 
