# Matter power spectrum P(k) at redshift z=0
# for k=1.04775e-05 to 67.6233 h/Mpc,
# number of wavenumbers equal to 246
#    1:k (h/Mpc)              2:P (Mpc/h)^3        
       1.047750691338e-05       5.020964806747e+01 
       1.131335172818e-05       5.407048206554e+01 
       1.221587619877e-05       5.822819063733e+01 
       1.319039970550e-05       6.270562589681e+01 
       1.424266598317e-05       6.752731788102e+01 
       1.537887697396e-05       7.271977200258e+01 
       1.660572938097e-05       7.831147241542e+01 
       1.793045413791e-05       8.433311815128e+01 
       1.936085902737e-05       9.081778242446e+01 
       2.090537469909e-05       9.780108061340e+01 
       2.257310435923e-05       1.053213197032e+02 
       2.437387742372e-05       1.134197377001e+02 
       2.631830745176e-05       1.221408202816e+02 
       2.841785470091e-05       1.315324720916e+02 
       3.068489367268e-05       1.416462093729e+02 
       3.313278604643e-05       1.525374500691e+02 
       3.577595943165e-05       1.642660687078e+02 
       3.862999240274e-05       1.768963504868e+02 
       4.171170631739e-05       1.904975992460e+02 
       4.503926445983e-05       2.051444490305e+02 
       4.863227909323e-05       2.209171463752e+02 
       5.251192705226e-05       2.379022222314e+02 
       5.670107455699e-05       2.561927925430e+02 
       6.122441198393e-05       2.758890441791e+02 
       6.610859938837e-05       2.970989225465e+02 
       7.138242363583e-05       3.199385558200e+02 
       7.707696806873e-05       3.445329780878e+02 
       8.322579570814e-05       3.710167315928e+02 
       8.986514707061e-05       3.995346440954e+02 
       9.703415376577e-05       4.302425403884e+02 
       1.047750691338e-04       4.633080762974e+02 
       1.131335172818e-04       4.989116267507e+02 
       1.221587619877e-04       5.372471946561e+02 
       1.319039970550e-04       5.785234124631e+02 
       1.424266598317e-04       6.229645929806e+02 
       1.537887697396e-04       6.708118484951e+02 
       1.660572938097e-04       7.223242660220e+02 
       1.793045413791e-04       7.777801553946e+02 
       1.936085902737e-04       8.374783607333e+02 
       2.090537469909e-04       9.017396264495e+02 
       2.257310435923e-04       9.709080260152e+02 
       2.437387742372e-04       1.045352448644e+03 
       2.631830745176e-04       1.125468122836e+03 
       2.841785470091e-04       1.211678179511e+03 
       3.068489367268e-04       1.304435249091e+03 
       3.313278604643e-04       1.404223052541e+03 
       3.577595943165e-04       1.511558013390e+03 
       3.862999240274e-04       1.626990836463e+03 
       4.171170631739e-04       1.751108027371e+03 
       4.503926445983e-04       1.884533381345e+03 
       4.863227909323e-04       2.027929376470e+03 
       5.251192705226e-04       2.181998446367e+03 
       5.670107455699e-04       2.347484100857e+03 
       6.122441198393e-04       2.525171869337e+03 
       6.610859938837e-04       2.715889981400e+03 
       7.138242363583e-04       2.920509686089e+03 
       7.707696806873e-04       3.139945097711e+03 
       8.322579570814e-04       3.375152334397e+03 
       8.986514707061e-04       3.627127828231e+03 
       9.703415376577e-04       3.896905450016e+03 
       1.047750691338e-03       4.185552170959e+03 
       1.131335172818e-03       4.494162426791e+03 
       1.221587619877e-03       4.823850702666e+03 
       1.319039970550e-03       5.175742739786e+03 
       1.424266598317e-03       5.551019592517e+03 
       1.537887697396e-03       5.950788335881e+03 
       1.660572938097e-03       6.376123046807e+03 
       1.793045413791e-03       6.828073896118e+03 
       1.936085902737e-03       7.307625375387e+03 
       2.090537469909e-03       7.815671902955e+03 
       2.257310435923e-03       8.352990369398e+03 
       2.437387742372e-03       8.920211057536e+03 
       2.631830745176e-03       9.517783061890e+03 
       2.841785470091e-03       1.014593703671e+04 
       3.068489367268e-03       1.080464505731e+04 
       3.313278604643e-03       1.149357459544e+04 
       3.577595943165e-03       1.221203620826e+04 
       3.862999240274e-03       1.295892538506e+04 
       4.171170631739e-03       1.373266002577e+04 
       4.503926445983e-03       1.453111834595e+04 
       4.863227909323e-03       1.535154984227e+04 
       5.251192705226e-03       1.619063613435e+04 
       5.670107455699e-03       1.704431256582e+04 
       6.122441198393e-03       1.790755938444e+04 
       6.610859938837e-03       1.877460424032e+04 
       7.138242363583e-03       1.963872429097e+04 
       7.707696806873e-03       2.049215713250e+04 
       8.322579570814e-03       2.132607230578e+04 
       8.986514707061e-03       2.213055088901e+04 
       9.703415376577e-03       2.289445470801e+04 
       1.047750691338e-02       2.360548909118e+04 
       1.131335172818e-02       2.425022939754e+04 
       1.221587619877e-02       2.481423921112e+04 
       1.319039970550e-02       2.528218807232e+04 
       1.424266598317e-02       2.563816218905e+04 
       1.537887697392e-02       2.586605888374e+04 
       1.660572938023e-02       2.595027256514e+04 
       1.793045412706e-02       2.587633618898e+04 
       1.936085890181e-02       2.563220490482e+04 
       2.090537352463e-02       2.520935129877e+04 
       2.257309535333e-02       2.460445631753e+04 
       2.437382002918e-02       2.382088180905e+04 
       2.631799944462e-02       2.287040364511e+04 
       2.841644545389e-02       2.177451051715e+04 
       3.067933355377e-02       2.056555502195e+04 
       3.311368470740e-02       1.928731658987e+04 
       3.571840443502e-02       1.799402439857e+04 
       3.847720348444e-02       1.674682223562e+04 
       4.135335538431e-02       1.560462890458e+04 
       4.429361667738e-02       1.461040025809e+04 
       4.724366439141e-02       1.378053145276e+04 
       5.016480835311e-02       1.310510747551e+04 
       5.303989620246e-02       1.255715791588e+04 
       5.586870669566e-02       1.210427559303e+04 
       5.866042680613e-02       1.171463071668e+04 
       6.142798932958e-02       1.136048655241e+04 
       6.418496440164e-02       1.101856816217e+04 
       6.694418833788e-02       1.067068065251e+04 
       6.971731106057e-02       1.030356236408e+04 
       7.251476155766e-02       9.908987888402e+03 
       7.534587671527e-02       9.483767955045e+03 
       7.821907666265e-02       9.029498156158e+03 
       8.114203772912e-02       8.552346366855e+03 
       8.412184535029e-02       8.061942321259e+03 
       8.716512279304e-02       7.570782266646e+03 
       9.027813695930e-02       7.092523578702e+03 
       9.346688431697e-02       6.640525811937e+03 
       9.673716028276e-02       6.226696421518e+03 
       1.000946150830e-01       5.859928283275e+03 
       1.035447986537e-01       5.545245075418e+03 
       1.070931966762e-01       5.283148888636e+03 
       1.107452594425e-01       5.069436464346e+03 
       1.145064249153e-01       4.895250380479e+03 
       1.183821370918e-01       4.747851176149e+03 
       1.223778605862e-01       4.611739783859e+03 
       1.264990921987e-01       4.470625191128e+03 
       1.307513701367e-01       4.310279532475e+03 
       1.351402814784e-01       4.121402393702e+03 
       1.396714684203e-01       3.902074756320e+03 
       1.443506338194e-01       3.658632940722e+03 
       1.491835465229e-01       3.404488225965e+03 
       1.541760469708e-01       3.156673760781e+03 
       1.593340535561e-01       2.931978216669e+03 
       1.646635702297e-01       2.742372869518e+03 
       1.701706958456e-01       2.592261998214e+03 
       1.758616357459e-01       2.477242264382e+03 
       1.817427160982e-01       2.385180458732e+03 
       1.878204015065e-01       2.300360037468e+03 
       1.941013164283e-01       2.205761192945e+03 
       2.005922709503e-01       2.090812428754e+03 
       2.073002914972e-01       1.956467773446e+03 
       2.142326570816e-01       1.814190770229e+03 
       2.213969417533e-01       1.679295145254e+03 
       2.288010639706e-01       1.563843692155e+03 
       2.364533437147e-01       1.472689019713e+03 
       2.443625682930e-01       1.401513849744e+03 
       2.525380679504e-01       1.338414638714e+03 
       2.609898026346e-01       1.270905780186e+03 
       2.697284615565e-01       1.193385653542e+03 
       2.787655775689e-01       1.109340200903e+03 
       2.881136588829e-01       1.028773301765e+03 
       2.977863412677e-01       9.604810177267e+02 
       3.077985646929e-01       9.050222787190e+02 
       3.181667794071e-01       8.561490589964e+02 
       3.289091877812e-01       8.061894586706e+02 
       3.400460299658e-01       7.523894324191e+02 
       3.515999236474e-01       6.989257006620e+02 
       3.635962711085e-01       6.510645442869e+02 
       3.760637506334e-01       6.101232834844e+02 
       3.890349143879e-01       5.721320012821e+02 
       4.025469216825e-01       5.337819735773e+02 
       4.166424456376e-01       4.956324955714e+02 
       4.313708035863e-01       4.604698734678e+02 
       4.467893782977e-01       4.287765702730e+02 
       4.629654199664e-01       3.987731443201e+02 
       4.799783501994e-01       3.692429445662e+02 
       4.979227319373e-01       3.412399054239e+02 
       5.169121270864e-01       3.154837758620e+02 
       5.370841404489e-01       2.908363139324e+02 
       5.586070464571e-01       2.671064384169e+02 
       5.816885094930e-01       2.448096813409e+02 
       6.065870144995e-01       2.235679393525e+02 
       6.336266468475e-01       2.032109115129e+02 
       6.632156059511e-01       1.838798722013e+02 
       6.958678639263e-01       1.653550874378e+02 
       7.322247985589e-01       1.476957383470e+02 
       7.730680195114e-01       1.308340709596e+02 
       8.193049553677e-01       1.148312931832e+02 
       8.718988016039e-01       9.976306475952e+01 
       9.317218031082e-01       8.577822423661e+01 
       9.993660908989e-01       7.305523453678e+01 
       1.075037110174e+00       6.173626675052e+01 
       1.158653485707e+00       5.187925547708e+01 
       1.250099157308e+00       4.344040142897e+01 
       1.349432401273e+00       3.628950687368e+01 
       1.456947457397e+00       3.026817916031e+01 
       1.573135111331e+00       2.521453976801e+01 
       1.698621895592e+00       2.098201569936e+01 
       1.834127512934e+00       1.744246749331e+01 
       1.980444934528e+00       1.448570342415e+01 
       2.138435191726e+00       1.201898104061e+01 
       2.309029199186e+00       9.963157282010e+00 
       2.493232377687e+00       8.251872690694e+00 
       2.692130395285e+00       6.828618848160e+00 
       2.906895534573e+00       5.646286223580e+00 
       3.138793597714e+00       4.664889254639e+00 
       3.389191366484e+00       3.851141308123e+00 
       3.659564657905e+00       3.176957908601e+00 
       3.951507022538e+00       2.618884317888e+00 
       4.266739136701e+00       2.157345217286e+00 
       4.607118943941e+00       1.775932706750e+00 
       4.974652605557e+00       1.460996510343e+00 
       5.371506324689e+00       1.201138497700e+00 
       5.800019113685e+00       9.868771053451e-01 
       6.262716579983e+00       8.103595170585e-01 
       6.762325811764e+00       6.650035770641e-01 
       7.301791451110e+00       5.454277112698e-01 
       7.884293049406e+00       4.470980110796e-01 
       8.513263807261e+00       3.662976107844e-01 
       9.192410809424e+00       2.999419120255e-01 
       9.925736873929e+00       2.454814256909e-01 
       1.071756414427e+01       2.008077966588e-01 
       1.157255956364e+01       1.641844887282e-01 
       1.249576238137e+01       1.341774761694e-01 
       1.349261385375e+01       1.096036281860e-01 
       1.456898931416e+01       8.948816878289e-02 
       1.573123280165e+01       7.303323982670e-02 
       1.698619445202e+01       5.957797452114e-02 
       1.834127087176e+01       4.858075506327e-02 
       1.980444873285e+01       3.959632721772e-02 
       2.138435184532e+01       3.226021639259e-02 
       2.309029198506e+01       2.627296091088e-02 
       2.493232377636e+01       2.138797474538e-02 
       2.692130395282e+01       1.740405800123e-02 
       2.906895534573e+01       1.415666295407e-02 
       3.138793597714e+01       1.151057290067e-02 
       3.389191366484e+01       9.355366353418e-03 
       3.659564657905e+01       7.600543293917e-03 
       3.951507022538e+01       6.172321749661e-03 
       4.266739136701e+01       5.010475776230e-03 
       4.607118943941e+01       4.065534584831e-03 
       4.974652605557e+01       3.297338036347e-03 
       5.371506324689e+01       2.673058087431e-03 
       5.800019113685e+01       2.165913659273e-03 
       6.262716579983e+01       1.754085069374e-03 
       6.762325811764e+01       1.419823384515e-03 
