# Matter power spectrum P(k) at redshift z=99
# for k=1.04775e-05 to 134.926 h/Mpc,
# number of wavenumbers equal to 255
#    1:k (h/Mpc)              2:P (Mpc/h)^3        
       1.047750691338e-05       7.261927095217e-03 
       1.131335172818e-05       7.820332150682e-03 
       1.221587619877e-05       8.421675382251e-03 
       1.319039970550e-05       9.069257737918e-03 
       1.424266598317e-05       9.766636451034e-03 
       1.537887697396e-05       1.051763973631e-02 
       1.660572938097e-05       1.132639250741e-02 
       1.793045413791e-05       1.219733201497e-02 
       1.936085902737e-05       1.313524187191e-02 
       2.090537469909e-05       1.414527084965e-02 
       2.257310435923e-05       1.523296544479e-02 
       2.437387742372e-05       1.640429654627e-02 
       2.631830745176e-05       1.766569603272e-02 
       2.841785470091e-05       1.902408711147e-02 
       3.068489367268e-05       2.048692967428e-02 
       3.313278604643e-05       2.206225467531e-02 
       3.577595943165e-05       2.375870883834e-02 
       3.862999240274e-05       2.558560669803e-02 
       4.171170631739e-05       2.755297672487e-02 
       4.503926445983e-05       2.967161933391e-02 
       4.863227909323e-05       3.195316455632e-02 
       5.251192705226e-05       3.441013466109e-02 
       5.670107455699e-05       3.705601741675e-02 
       6.122441198393e-05       3.990533412806e-02 
       6.610859938837e-05       4.297372242499e-02 
       7.138242363583e-05       4.627802054816e-02 
       7.707696806873e-05       4.983636159850e-02 
       8.322579570814e-05       5.366826786893e-02 
       8.986514707061e-05       5.779476319690e-02 
       9.703415376577e-05       6.223848221790e-02 
       1.047750691338e-04       6.702379824972e-02 
       1.131335172818e-04       7.217695031027e-02 
       1.221587619877e-04       7.772619030306e-02 
       1.319039970550e-04       8.370193379980e-02 
       1.424266598317e-04       9.013692506603e-02 
       1.537887697396e-04       9.706641130331e-02 
       1.660572938097e-04       1.045283343104e-01 
       1.793045413791e-04       1.125635329178e-01 
       1.936085902737e-04       1.212159592302e-01 
       2.090537469909e-04       1.305329107427e-01 
       2.257310435923e-04       1.405652819352e-01 
       2.437387742372e-04       1.513678275067e-01 
       2.631830745176e-04       1.629994475124e-01 
       2.841785470091e-04       1.755234890469e-01 
       3.068489367268e-04       1.890080645289e-01 
       3.313278604643e-04       2.035263977421e-01 
       3.577595943165e-04       2.191571778034e-01 
       3.862999240274e-04       2.359849423250e-01 
       4.171170631739e-04       2.541004712991e-01 
       4.503926445983e-04       2.736012061148e-01 
       4.863227909323e-04       2.945916774631e-01 
       5.251192705226e-04       3.171839507852e-01 
       5.670107455699e-04       3.414980769096e-01 
       6.122441198393e-04       3.676625416288e-01 
       6.610859938837e-04       3.958147272852e-01 
       7.138242363583e-04       4.261013332051e-01 
       7.707696806873e-04       4.586787880836e-01 
       8.322579570814e-04       4.937136112808e-01 
       8.986514707061e-04       5.313826962064e-01 
       9.703415376577e-04       5.718735176792e-01 
       1.047750691338e-03       6.153841926239e-01 
       1.131335172818e-03       6.621233623113e-01 
       1.221587619877e-03       7.123098743646e-01 
       1.319039970550e-03       7.661721263782e-01 
       1.424266598317e-03       8.239547181300e-01 
       1.537887697396e-03       8.859012282819e-01 
       1.660572938097e-03       9.522589495760e-01 
       1.793045413791e-03       1.023280284738e+00 
       1.936085902737e-03       1.099216542130e+00 
       2.090537469909e-03       1.180313285064e+00 
       2.257310435923e-03       1.266804486840e+00 
       2.437387742372e-03       1.358905328500e+00 
       2.631830745176e-03       1.456803285993e+00 
       2.841785470091e-03       1.560647663087e+00 
       3.068489367268e-03       1.670537010636e+00 
       3.313278604643e-03       1.786505039708e+00 
       3.577595943165e-03       1.908504410200e+00 
       3.862999240274e-03       2.036389468855e+00 
       4.171170631739e-03       2.169898252916e+00 
       4.503926445983e-03       2.308634492103e+00 
       4.863227909323e-03       2.452050674933e+00 
       5.251192705226e-03       2.599434681319e+00 
       5.670107455699e-03       2.749901126685e+00 
       6.122441198393e-03       2.902390058593e+00 
       6.610859938837e-03       3.055671270150e+00 
       7.138242363583e-03       3.208360123244e+00 
       7.707696806873e-03       3.358926651860e+00 
       8.322579570814e-03       3.505726890502e+00 
       8.986514707061e-03       3.647012438681e+00 
       9.703415376577e-03       3.780926180440e+00 
       1.047750691338e-02       3.905492882140e+00 
       1.131335172818e-02       4.018589827965e+00 
       1.221587619877e-02       4.117902891324e+00 
       1.319039970550e-02       4.200917703707e+00 
       1.424266598317e-02       4.264943743309e+00 
       1.537887697392e-02       4.307219675360e+00 
       1.660572938023e-02       4.325062465175e+00 
       1.793045412706e-02       4.316060401420e+00 
       1.936085890181e-02       4.278228943591e+00 
       2.090537352463e-02       4.210204486890e+00 
       2.257309535333e-02       4.111418764332e+00 
       2.437382002918e-02       3.982420954641e+00 
       2.631799944462e-02       3.825168705384e+00 
       2.841644545389e-02       3.643282267996e+00 
       3.067933355377e-02       3.442198729404e+00 
       3.311368470740e-02       3.229241625842e+00 
       3.571840443502e-02       3.013516365009e+00 
       3.847720348444e-02       2.805283980100e+00 
       4.135335538431e-02       2.614410711079e+00 
       4.429361667738e-02       2.448132237212e+00 
       4.724366439141e-02       2.309240713050e+00 
       5.016480835311e-02       2.196115272665e+00 
       5.303989620246e-02       2.104369951666e+00 
       5.586870669566e-02       2.028462702314e+00 
       5.866042680613e-02       1.963155438781e+00 
       6.142798932958e-02       1.903779856020e+00 
       6.418496440164e-02       1.846479376258e+00 
       6.694418833788e-02       1.788197663226e+00 
       6.971731106057e-02       1.726715883599e+00 
       7.251476155766e-02       1.660654610426e+00 
       7.534587671527e-02       1.589470089603e+00 
       7.821907666265e-02       1.513436827299e+00 
       8.114203772912e-02       1.433569031943e+00 
       8.412184535029e-02       1.351492544927e+00 
       8.716512279304e-02       1.269274035918e+00 
       9.027813695930e-02       1.189193487386e+00 
       9.346688431697e-02       1.113501440997e+00 
       9.673716028276e-02       1.044174795430e+00 
       1.000946150830e-01       9.827063386895e-01 
       1.035447986537e-01       9.299386307651e-01 
       1.070931966762e-01       8.859588681483e-01 
       1.107452594425e-01       8.500714540114e-01 
       1.145064249153e-01       8.208037029887e-01 
       1.183821370918e-01       7.960246218382e-01 
       1.223778605862e-01       7.731460380657e-01 
       1.264990921987e-01       7.494520261084e-01 
       1.307513701367e-01       7.225565467612e-01 
       1.351402814784e-01       6.909077635462e-01 
       1.396714684203e-01       6.541799633542e-01 
       1.443506338194e-01       6.134258729570e-01 
       1.491835465229e-01       5.708679598837e-01 
       1.541760469708e-01       5.293643092848e-01 
       1.593340535561e-01       4.917108588532e-01 
       1.646635702297e-01       4.599199632426e-01 
       1.701706958456e-01       4.347279077617e-01 
       1.758616357459e-01       4.154078045996e-01 
       1.817427160982e-01       3.999362154638e-01 
       1.878204015065e-01       3.856848571793e-01 
       1.941013164283e-01       3.698108669895e-01 
       2.005922709503e-01       3.505485650758e-01 
       2.073002914972e-01       3.280462888964e-01 
       2.142326570816e-01       3.042136141475e-01 
       2.213969417533e-01       2.816115486584e-01 
       2.288010639706e-01       2.622567708231e-01 
       2.364533437147e-01       2.469617347915e-01 
       2.443625682930e-01       2.350128741275e-01 
       2.525380679504e-01       2.244202993730e-01 
       2.609898026346e-01       2.130960228410e-01 
       2.697284615565e-01       2.001025314725e-01 
       2.787655775689e-01       1.860197646428e-01 
       2.881136588829e-01       1.725174445362e-01 
       2.977863412677e-01       1.610658797985e-01 
       3.077985646929e-01       1.517604464618e-01 
       3.181667794071e-01       1.435595699912e-01 
       3.289091877812e-01       1.351816701485e-01 
       3.400460299658e-01       1.261641868773e-01 
       3.515999236474e-01       1.172017598433e-01 
       3.635962711085e-01       1.091765251774e-01 
       3.760637506334e-01       1.023091046591e-01 
       3.890349143879e-01       9.593749816721e-02 
       4.025469216825e-01       8.950753483575e-02 
       4.166424456376e-01       8.311153866939e-02 
       4.313708035863e-01       7.721531745722e-02 
       4.467893782977e-01       7.190042624229e-02 
       4.629654199664e-01       6.686888353081e-02 
       4.799783501994e-01       6.191738322802e-02 
       4.979227319373e-01       5.722205986759e-02 
       5.169121270864e-01       5.290274287985e-02 
       5.370841404489e-01       4.876962860666e-02 
       5.586070464571e-01       4.479058858690e-02 
       5.816885094930e-01       4.105177290861e-02 
       6.065870144995e-01       3.748980148700e-02 
       6.336266468475e-01       3.407609759902e-02 
       6.632156059511e-01       3.083442581770e-02 
       6.958678639263e-01       2.772826605519e-02 
       7.322247985589e-01       2.476705030816e-02 
       7.730680195114e-01       2.193952525186e-02 
       8.193049553677e-01       1.925607217851e-02 
       8.718988016039e-01       1.672924400972e-02 
       9.317218031082e-01       1.438411408005e-02 
       9.993660908989e-01       1.225060326569e-02 
       1.075037110174e+00       1.035253988872e-02 
       1.158653485707e+00       8.699620186037e-03 
       1.250099157308e+00       7.284531418874e-03 
       1.349432401273e+00       6.085405387726e-03 
       1.456947457397e+00       5.075682724826e-03 
       1.573135111331e+00       4.228256209438e-03 
       1.698621895592e+00       3.518496906461e-03 
       1.834127512934e+00       2.924934118587e-03 
       1.980444934528e+00       2.429118032972e-03 
       2.138435191726e+00       2.015466611649e-03 
       2.309029199186e+00       1.670733648779e-03 
       2.493232377687e+00       1.383751663607e-03 
       2.692130395285e+00       1.145092718783e-03 
       2.906895534573e+00       9.468190307046e-04 
       3.138793597714e+00       7.822524264772e-04 
       3.389191366484e+00       6.457860218614e-04 
       3.659564657905e+00       5.327340885376e-04 
       3.951507022538e+00       4.391496914951e-04 
       4.266739136701e+00       3.617584494178e-04 
       4.607118943941e+00       2.977963170851e-04 
       4.974652605557e+00       2.449825165577e-04 
       5.371506324689e+00       2.014072370866e-04 
       5.800019113685e+00       1.654768682600e-04 
       6.262716579983e+00       1.358746294683e-04 
       6.762325811764e+00       1.115016665329e-04 
       7.301791451110e+00       9.144802303433e-05 
       7.884293049406e+00       7.495920483400e-05 
       8.513263807261e+00       6.140954979577e-05 
       9.192410809424e+00       5.028219403139e-05 
       9.925736873929e+00       4.114990449338e-05 
       1.071756414427e+01       3.365868881606e-05 
       1.157255956364e+01       2.751753939222e-05 
       1.249576238137e+01       2.248543412992e-05 
       1.349261385375e+01       1.836467637119e-05 
       1.456898931416e+01       1.499196973366e-05 
       1.573123280165e+01       1.223279023678e-05 
       1.698619445202e+01       9.976613604568e-06 
       1.834127087176e+01       8.132726827528e-06 
       1.980444873285e+01       6.626495296278e-06 
       2.138435184532e+01       5.396510690591e-06 
       2.309029198506e+01       4.392667171796e-06 
       2.493232377636e+01       3.573784346731e-06 
       2.692130395282e+01       2.906081737866e-06 
       2.906895534573e+01       2.361771709590e-06 
       3.138793597714e+01       1.918360329401e-06 
       3.389191366484e+01       1.557235428424e-06 
       3.659564657905e+01       1.263272691106e-06 
       3.951507022538e+01       1.024087631386e-06 
       4.266739136701e+01       8.295653715593e-07 
       4.607118943941e+01       6.714071524587e-07 
       4.974652605557e+01       5.428963391819e-07 
       5.371506324689e+01       4.385284157903e-07 
       5.800019113685e+01       3.537939223908e-07 
       6.262716579983e+01       2.850473212907e-07 
       6.762325811764e+01       2.293055889994e-07 
       7.301791451110e+01       1.841327656437e-07 
       7.884293049406e+01       1.475515710226e-07 
       8.513263807261e+01       1.179535514232e-07 
       9.192410809424e+01       9.402596527039e-08 
       9.925736873929e+01       7.470392789886e-08 
       1.071756414427e+02       5.912082171392e-08 
       1.157255956364e+02       4.657179119050e-08 
       1.249576238137e+02       3.648600225404e-08 
       1.349261385375e+02       2.839854619971e-08 
