# Matter power spectrum P(k) at redshift z=99
# for k=1.04775e-05 to 134.926 h/Mpc,
# number of wavenumbers equal to 255
#    1:k (h/Mpc)              2:P (Mpc/h)^3        
       1.047750691338e-05       7.261927096802e-03 
       1.131335172818e-05       7.820332152388e-03 
       1.221587619877e-05       8.421675384089e-03 
       1.319039970550e-05       9.069257739897e-03 
       1.424266598317e-05       9.766636453165e-03 
       1.537887697396e-05       1.051763973861e-02 
       1.660572938097e-05       1.132639250988e-02 
       1.793045413791e-05       1.219733201764e-02 
       1.936085902737e-05       1.313524187477e-02 
       2.090537469909e-05       1.414527085273e-02 
       2.257310435923e-05       1.523296544811e-02 
       2.437387742372e-05       1.640429654984e-02 
       2.631830745176e-05       1.766569603657e-02 
       2.841785470091e-05       1.902408711562e-02 
       3.068489367268e-05       2.048692967875e-02 
       3.313278604643e-05       2.206225468013e-02 
       3.577595943165e-05       2.375870884352e-02 
       3.862999240274e-05       2.558560670361e-02 
       4.171170631739e-05       2.755297673088e-02 
       4.503926445983e-05       2.967161934038e-02 
       4.863227909323e-05       3.195316456329e-02 
       5.251192705226e-05       3.441013466859e-02 
       5.670107455699e-05       3.705601742484e-02 
       6.122441198393e-05       3.990533413677e-02 
       6.610859938837e-05       4.297372243437e-02 
       7.138242363583e-05       4.627802055827e-02 
       7.707696806873e-05       4.983636160938e-02 
       8.322579570814e-05       5.366826788061e-02 
       8.986514707061e-05       5.779476320948e-02 
       9.703415376577e-05       6.223848223142e-02 
       1.047750691338e-04       6.702379826428e-02 
       1.131335172818e-04       7.217695032592e-02 
       1.221587619877e-04       7.772619031991e-02 
       1.319039970550e-04       8.370193381796e-02 
       1.424266598317e-04       9.013692508553e-02 
       1.537887697396e-04       9.706641132428e-02 
       1.660572938097e-04       1.045283343329e-01 
       1.793045413791e-04       1.125635329420e-01 
       1.936085902737e-04       1.212159592562e-01 
       2.090537469909e-04       1.305329107707e-01 
       2.257310435923e-04       1.405652819652e-01 
       2.437387742372e-04       1.513678275389e-01 
       2.631830745176e-04       1.629994475469e-01 
       2.841785470091e-04       1.755234890839e-01 
       3.068489367268e-04       1.890080645686e-01 
       3.313278604643e-04       2.035263977845e-01 
       3.577595943165e-04       2.191571778487e-01 
       3.862999240274e-04       2.359849423732e-01 
       4.171170631739e-04       2.541004713505e-01 
       4.503926445983e-04       2.736012061694e-01 
       4.863227909323e-04       2.945916775210e-01 
       5.251192705226e-04       3.171839508464e-01 
       5.670107455699e-04       3.414980769740e-01 
       6.122441198393e-04       3.676625416964e-01 
       6.610859938837e-04       3.958147273557e-01 
       7.138242363583e-04       4.261013332783e-01 
       7.707696806873e-04       4.586787881588e-01 
       8.322579570814e-04       4.937136113572e-01 
       8.986514707061e-04       5.313826962831e-01 
       9.703415376577e-04       5.718735177547e-01 
       1.047750691338e-03       6.153841926963e-01 
       1.131335172818e-03       6.621233623782e-01 
       1.221587619877e-03       7.123098744226e-01 
       1.319039970550e-03       7.661721264231e-01 
       1.424266598317e-03       8.239547181526e-01 
       1.537887697396e-03       8.859012282714e-01 
       1.660572938097e-03       9.522589495201e-01 
       1.793045413791e-03       1.023280284621e+00 
       1.936085902737e-03       1.099216541931e+00 
       2.090537469909e-03       1.180313284758e+00 
       2.257310435923e-03       1.266804486394e+00 
       2.437387742372e-03       1.358905327872e+00 
       2.631830745176e-03       1.456803285130e+00 
       2.841785470091e-03       1.560647661923e+00 
       3.068489367268e-03       1.670537009085e+00 
       3.313278604643e-03       1.786505037666e+00 
       3.577595943165e-03       1.908504407533e+00 
       3.862999240274e-03       2.036389465394e+00 
       4.171170631739e-03       2.169898248453e+00 
       4.503926445983e-03       2.308634486373e+00 
       4.863227909323e-03       2.452050667604e+00 
       5.251192705226e-03       2.599434671986e+00 
       5.670107455699e-03       2.749901114813e+00 
       6.122441198393e-03       2.902390140802e+00 
       6.610859938837e-03       3.055671690710e+00 
       7.138242363583e-03       3.208360040985e+00 
       7.707696806873e-03       3.358926631144e+00 
       8.322579570814e-03       3.505728004149e+00 
       8.986514707061e-03       3.647012798496e+00 
       9.703415376577e-03       3.780925944976e+00 
       1.047750691338e-02       3.905492810478e+00 
       1.131335172818e-02       4.018589750355e+00 
       1.221587619877e-02       4.117902772081e+00 
       1.319039970550e-02       4.200917558833e+00 
       1.424266598317e-02       4.264943556667e+00 
       1.537887697392e-02       4.307219429240e+00 
       1.660572938023e-02       4.325062138607e+00 
       1.793045412706e-02       4.316060024014e+00 
       1.936085890181e-02       4.278228413588e+00 
       2.090537352463e-02       4.210203965663e+00 
       2.257309535333e-02       4.111418032372e+00 
       2.437382002918e-02       3.982420085818e+00 
       2.631799944462e-02       3.825167599447e+00 
       2.841644545389e-02       3.643280934833e+00 
       3.067933355377e-02       3.442197047649e+00 
       3.311368470740e-02       3.229239488675e+00 
       3.571840443502e-02       3.013513831002e+00 
       3.847720348444e-02       2.805280906337e+00 
       4.135335538431e-02       2.614407030101e+00 
       4.429361667738e-02       2.448127837837e+00 
       4.724366439141e-02       2.309235543572e+00 
       5.016480835311e-02       2.196109261437e+00 
       5.303989620246e-02       2.104363032833e+00 
       5.586870669566e-02       2.028454808399e+00 
       5.866042680613e-02       1.963146500805e+00 
       6.142798932958e-02       1.903769799632e+00 
       6.418496440164e-02       1.846468126507e+00 
       6.694418833788e-02       1.788185281368e+00 
       6.971731106057e-02       1.726702017427e+00 
       7.251476155766e-02       1.660639336576e+00 
       7.534587671527e-02       1.589453388751e+00 
       7.821907666265e-02       1.513418553626e+00 
       8.114203772912e-02       1.433549195585e+00 
       8.412184535029e-02       1.351471125248e+00 
       8.716512279304e-02       1.269250947537e+00 
       9.027813695930e-02       1.189168790811e+00 
       9.346688431697e-02       1.113474668922e+00 
       9.673716028276e-02       1.044146717278e+00 
       1.000946150830e-01       9.826764569752e-01 
       1.035447986537e-01       9.299065713261e-01 
       1.070931966762e-01       8.859250187707e-01 
       1.107452594425e-01       8.500348338377e-01 
       1.145064249153e-01       8.207659747028e-01 
       1.183821370918e-01       7.959835314424e-01 
       1.223778605862e-01       7.731017544164e-01 
       1.264990921987e-01       7.494045615722e-01 
       1.307513701367e-01       7.225074004081e-01 
       1.351402814784e-01       6.908549424055e-01 
       1.396714684203e-01       6.541239184101e-01 
       1.443506338194e-01       6.133666472623e-01 
       1.491835465229e-01       5.708053246746e-01 
       1.541760469708e-01       5.292973803649e-01 
       1.593340535561e-01       4.916404343467e-01 
       1.646635702297e-01       4.598462206330e-01 
       1.701706958456e-01       4.346501885046e-01 
       1.758616357459e-01       4.153255539662e-01 
       1.817427160982e-01       3.998489090562e-01 
       1.878204015065e-01       3.855906995449e-01 
       1.941013164283e-01       3.697114366463e-01 
       2.005922709503e-01       3.504427290850e-01 
       2.073002914972e-01       3.279365611478e-01 
       2.142326570816e-01       3.041001652677e-01 
       2.213969417533e-01       2.814921547098e-01 
       2.288010639706e-01       2.621318822882e-01 
       2.364533437147e-01       2.468307107544e-01 
       2.443625682930e-01       2.348747416600e-01 
       2.525380679504e-01       2.242719514906e-01 
       2.609898026346e-01       2.129411353267e-01 
       2.697284615565e-01       1.999408645207e-01 
       2.787655775689e-01       1.858520793293e-01 
       2.881136588829e-01       1.723414607101e-01 
       2.977863412677e-01       1.608824132753e-01 
       3.077985646929e-01       1.515683687555e-01 
       3.181667794071e-01       1.433577838759e-01 
       3.289091877812e-01       1.349699830665e-01 
       3.400460299658e-01       1.259434122483e-01 
       3.515999236474e-01       1.169713948402e-01 
       3.635962711085e-01       1.089362995161e-01 
       3.760637506334e-01       1.020577622097e-01 
       3.890349143879e-01       9.567441790765e-02 
       4.025469216825e-01       8.923272759022e-02 
       4.166424456376e-01       8.282504894627e-02 
       4.313708035863e-01       7.691652129529e-02 
       4.467893782977e-01       7.158835584826e-02 
       4.629654199664e-01       6.654287743716e-02 
       4.799783501994e-01       6.157725606883e-02 
       4.979227319373e-01       5.686726598682e-02 
       5.169121270864e-01       5.253206792980e-02 
       5.370841404489e-01       4.838240613736e-02 
       5.586070464571e-01       4.438622049868e-02 
       5.816885094930e-01       4.062876329589e-02 
       6.065870144995e-01       3.704723472636e-02 
       6.336266468475e-01       3.361276231044e-02 
       6.632156059511e-01       3.034855620529e-02 
       6.958678639263e-01       2.721815708256e-02 
       7.322247985589e-01       2.423069188909e-02 
       7.730680195114e-01       2.137454410115e-02 
       8.193049553677e-01       1.865997053244e-02 
       8.718988016039e-01       1.609921393395e-02 
       9.317218031082e-01       1.371771800395e-02 
       9.993660908989e-01       1.154562927781e-02 
       1.075037110174e+00       9.607924095888e-03 
       1.158653485707e+00       7.915468185477e-03 
       1.250099157308e+00       6.462151231037e-03 
       1.349432401273e+00       5.227533231153e-03 
       1.456947457397e+00       4.186155458944e-03 
       1.573135111331e+00       3.312438731046e-03 
       1.698621895592e+00       2.583008938337e-03 
       1.834127512934e+00       1.977890085751e-03 
       1.980444934528e+00       1.480101529265e-03 
       2.138435191726e+00       1.075479594067e-03 
       2.309029199186e+00       7.520155212874e-04 
       2.493232377687e+00       4.994592414367e-04 
       2.692130395285e+00       3.087988533498e-04 
       2.906895534573e+00       1.716949691155e-04 
       3.138793597714e+00       8.035133385678e-05 
       3.389191366484e+00       2.688007939195e-05 
       3.659564657905e+00       3.260309502203e-06 
       3.951507022538e+00       1.266849314969e-06 
       4.266739136701e+00       1.266108580399e-05 
       4.607118943941e+00       2.963117486763e-05 
       4.974652605557e+00       4.546848736652e-05 
       5.371506324689e+00       5.521781763993e-05 
       5.800019113685e+00       5.638545234148e-05 
       6.262716579983e+00       4.920477596761e-05 
       6.762325811764e+00       3.627717817915e-05 
       7.301791451110e+00       2.168392053895e-05 
       7.884293049406e+00       9.451726387395e-06 
       8.513263807261e+00       2.143378827385e-06 
       9.192410809424e+00       6.173776451587e-10 
       9.925736873929e+00       1.149301242729e-06 
       1.071756414427e+01       2.916811389883e-06 
       1.157255956364e+01       3.409595580367e-06 
       1.249576238137e+01       2.407925275855e-06 
       1.349261385375e+01       9.548484097480e-07 
       1.456898931416e+01       1.079541676521e-07 
       1.573123280165e+01       3.683126022303e-08 
       1.698619445202e+01       2.061089213270e-07 
       1.834127087176e+01       1.967261451847e-07 
       1.980444873285e+01       6.334704145259e-08 
       2.138435184532e+01       7.984620007743e-10 
       2.309029198506e+01       1.065174561707e-08 
       2.493232377636e+01       1.188504799576e-08 
       2.692130395282e+01       1.842435250319e-09 
       2.906895534573e+01       2.447067073798e-10 
       3.138793597714e+01       7.666025678738e-10 
       3.389191366484e+01       1.106213300169e-10 
       3.659564657905e+01       9.963104964948e-11 
       3.951507022538e+01       1.434134689945e-11 
       4.266739136701e+01       6.150299752175e-13 
       4.607118943941e+01       7.571208025851e-13 
       4.974652605557e+01       3.010689423925e-15 
       5.371506324689e+01       2.353224472239e-16 
       5.800019113685e+01       1.505678339167e-14 
       6.262716579983e+01       4.486369021880e-14 
       6.762325811764e+01       5.039558833787e-15 
       7.301791451110e+01       3.162959674494e-13 
       7.884293049406e+01       1.349104029839e-13 
       8.513263807261e+01       9.785493758793e-13 
       9.192410809424e+01       1.397579582473e-13 
       9.925736873929e+01       4.232508484511e-14 
       1.071756414427e+02       7.977897566517e-13 
       1.157255956364e+02       4.531082794507e-15 
       1.249576238137e+02       1.094378594410e-14 
       1.349261385375e+02       1.245348317983e-13 
