# Matter power spectrum P(k) at redshift z=99
# for k=1.04775e-05 to 67.6233 h/Mpc,
# number of wavenumbers equal to 246
#    1:k (h/Mpc)              2:P (Mpc/h)^3        
       1.047750691338e-05       7.261927673148e-03 
       1.131335172818e-05       7.820331745768e-03 
       1.221587619877e-05       8.421675986522e-03 
       1.319039970550e-05       9.069258192230e-03 
       1.424266598317e-05       9.766638404460e-03 
       1.537887697396e-05       1.051764069686e-02 
       1.660572938097e-05       1.132639105524e-02 
       1.793045413791e-05       1.219733231421e-02 
       1.936085902737e-05       1.313524224386e-02 
       2.090537469909e-05       1.414527121899e-02 
       2.257310435923e-05       1.523296272198e-02 
       2.437387742372e-05       1.640429444536e-02 
       2.631830745176e-05       1.766569582185e-02 
       2.841785470091e-05       1.902408601800e-02 
       3.068489367268e-05       2.048692970600e-02 
       3.313278604643e-05       2.206225513602e-02 
       3.577595943165e-05       2.375870704918e-02 
       3.862999240274e-05       2.558560727489e-02 
       4.171170631739e-05       2.755297763355e-02 
       4.503926445983e-05       2.967161927328e-02 
       4.863227909323e-05       3.195316450844e-02 
       5.251192705226e-05       3.441013519298e-02 
       5.670107455699e-05       3.705601722543e-02 
       6.122441198393e-05       3.990533413577e-02 
       6.610859938837e-05       4.297372168220e-02 
       7.138242363583e-05       4.627802141707e-02 
       7.707696806873e-05       4.983636194179e-02 
       8.322579570814e-05       5.366826847253e-02 
       8.986514707061e-05       5.779476394591e-02 
       9.703415376577e-05       6.223848243910e-02 
       1.047750691338e-04       6.702379865666e-02 
       1.131335172818e-04       7.217695153410e-02 
       1.221587619877e-04       7.772619073604e-02 
       1.319039970550e-04       8.370193432409e-02 
       1.424266598317e-04       9.013692507582e-02 
       1.537887697396e-04       9.706641242609e-02 
       1.660572938097e-04       1.045283354276e-01 
       1.793045413791e-04       1.125635349073e-01 
       1.936085902737e-04       1.212159614973e-01 
       2.090537469909e-04       1.305329132720e-01 
       2.257310435923e-04       1.405652846220e-01 
       2.437387742372e-04       1.513678302546e-01 
       2.631830745176e-04       1.629994504877e-01 
       2.841785470091e-04       1.755234921231e-01 
       3.068489367268e-04       1.890080670420e-01 
       3.313278604643e-04       2.035264002443e-01 
       3.577595943165e-04       2.191571803689e-01 
       3.862999240274e-04       2.359849437602e-01 
       4.171170631739e-04       2.541004741548e-01 
       4.503926445983e-04       2.736012080288e-01 
       4.863227909323e-04       2.945916790976e-01 
       5.251192705226e-04       3.171839525195e-01 
       5.670107455699e-04       3.414980764014e-01 
       6.122441198393e-04       3.676625413114e-01 
       6.610859938837e-04       3.958147252318e-01 
       7.138242363583e-04       4.261013284932e-01 
       7.707696806873e-04       4.586787792369e-01 
       8.322579570814e-04       4.937136001375e-01 
       8.986514707061e-04       5.313826801418e-01 
       9.703415376577e-04       5.718734972174e-01 
       1.047750691338e-03       6.153841629522e-01 
       1.131335172818e-03       6.621233239483e-01 
       1.221587619877e-03       7.123098220438e-01 
       1.319039970550e-03       7.661720584760e-01 
       1.424266598317e-03       8.239546297742e-01 
       1.537887697396e-03       8.859011173478e-01 
       1.660572938097e-03       9.522588006427e-01 
       1.793045413791e-03       1.023280099819e+00 
       1.936085902737e-03       1.099216304578e+00 
       2.090537469909e-03       1.180312990450e+00 
       2.257310435923e-03       1.266804115847e+00 
       2.437387742372e-03       1.358904853397e+00 
       2.631830745176e-03       1.456802683143e+00 
       2.841785470091e-03       1.560646890501e+00 
       3.068489367268e-03       1.670536062469e+00 
       3.313278604643e-03       1.786503852114e+00 
       3.577595943165e-03       1.908502930729e+00 
       3.862999240274e-03       2.036387730624e+00 
       4.171170631739e-03       2.169896177980e+00 
       4.503926445983e-03       2.308631878827e+00 
       4.863227909323e-03       2.452047290729e+00 
       5.251192705226e-03       2.599430627763e+00 
       5.670107455699e-03       2.749896931399e+00 
       6.122441198393e-03       2.902386512761e+00 
       6.610859938837e-03       3.055668702788e+00 
       7.138242363583e-03       3.208356460355e+00 
       7.707696806873e-03       3.358923891175e+00 
       8.322579570814e-03       3.505725593061e+00 
       8.986514707061e-03       3.647009241583e+00 
       9.703415376577e-03       3.780923300061e+00 
       1.047750691338e-02       3.905491379107e+00 
       1.131335172818e-02       4.018587946155e+00 
       1.221587619877e-02       4.117901575975e+00 
       1.319039970550e-02       4.200915269235e+00 
       1.424266598317e-02       4.264942437952e+00 
       1.537887697392e-02       4.307216765483e+00 
       1.660572938023e-02       4.325065284021e+00 
       1.793045412706e-02       4.316056720415e+00 
       1.936085890181e-02       4.278229251681e+00 
       2.090537352463e-02       4.210201559826e+00 
       2.257309535333e-02       4.111420348415e+00 
       2.437382002918e-02       3.982424313631e+00 
       2.631799944462e-02       3.825168989849e+00 
       2.841644545389e-02       3.643276982167e+00 
       3.067933355377e-02       3.442202159770e+00 
       3.311368470740e-02       3.229234869534e+00 
       3.571840443502e-02       3.013513389372e+00 
       3.847720348444e-02       2.805279215097e+00 
       4.135335538431e-02       2.614403243009e+00 
       4.429361667738e-02       2.448127549266e+00 
       4.724366439141e-02       2.309237995954e+00 
       5.016480835311e-02       2.196105749285e+00 
       5.303989620246e-02       2.104366357618e+00 
       5.586870669566e-02       2.028464331173e+00 
       5.866042680613e-02       1.963147669170e+00 
       6.142798932958e-02       1.903780909876e+00 
       6.418496440164e-02       1.846477410802e+00 
       6.694418833788e-02       1.788198268442e+00 
       6.971731106057e-02       1.726715216016e+00 
       7.251476155766e-02       1.660650354270e+00 
       7.534587671527e-02       1.589469857284e+00 
       7.821907666265e-02       1.513434538310e+00 
       8.114203772912e-02       1.433569699136e+00 
       8.412184535029e-02       1.351489675012e+00 
       8.716512279304e-02       1.269271380102e+00 
       9.027813695930e-02       1.189189509119e+00 
       9.346688431697e-02       1.113497531975e+00 
       9.673716028276e-02       1.044171599654e+00 
       1.000946150830e-01       9.827047711025e-01 
       1.035447986537e-01       9.299353392846e-01 
       1.070931966762e-01       8.859558490593e-01 
       1.107452594425e-01       8.500666710797e-01 
       1.145064249153e-01       8.208008086210e-01 
       1.183821370918e-01       7.960220133655e-01 
       1.223778605862e-01       7.731421588868e-01 
       1.264990921987e-01       7.494478211045e-01 
       1.307513701367e-01       7.225541483334e-01 
       1.351402814784e-01       6.909038637284e-01 
       1.396714684203e-01       6.541765698011e-01 
       1.443506338194e-01       6.134223079597e-01 
       1.491835465229e-01       5.708622919919e-01 
       1.541760469708e-01       5.293585934115e-01 
       1.593340535561e-01       4.917067695256e-01 
       1.646635702297e-01       4.599150676722e-01 
       1.701706958456e-01       4.347229833417e-01 
       1.758616357459e-01       4.154025869232e-01 
       1.817427160982e-01       3.999310025015e-01 
       1.878204015065e-01       3.856762049615e-01 
       1.941013164283e-01       3.698032052456e-01 
       2.005922709503e-01       3.505399342958e-01 
       2.073002914972e-01       3.280369524393e-01 
       2.142326570816e-01       3.042071893232e-01 
       2.213969417533e-01       2.816050359656e-01 
       2.288010639706e-01       2.622501183943e-01 
       2.364533437147e-01       2.469549671224e-01 
       2.443625682930e-01       2.350046817063e-01 
       2.525380679504e-01       2.244099370558e-01 
       2.609898026346e-01       2.130845670410e-01 
       2.697284615565e-01       2.000928059737e-01 
       2.787655775689e-01       1.860110831710e-01 
       2.881136588829e-01       1.725077093123e-01 
       2.977863412677e-01       1.610565154931e-01 
       3.077985646929e-01       1.517510453632e-01 
       3.181667794071e-01       1.435492654315e-01 
       3.289091877812e-01       1.351711220256e-01 
       3.400460299658e-01       1.261533936384e-01 
       3.515999236474e-01       1.171911728534e-01 
       3.635962711085e-01       1.091659439632e-01 
       3.760637506334e-01       1.022979412264e-01 
       3.890349143879e-01       9.592612475742e-02 
       4.025469216825e-01       8.949569506929e-02 
       4.166424456376e-01       8.309936887220e-02 
       4.313708035863e-01       7.720296767877e-02 
       4.467893782977e-01       7.188788133260e-02 
       4.629654199664e-01       6.685597743514e-02 
       4.799783501994e-01       6.190417393578e-02 
       4.979227319373e-01       5.720864882799e-02 
       5.169121270864e-01       5.288907010865e-02 
       5.370841404489e-01       4.875541775084e-02 
       5.586070464571e-01       4.477625345633e-02 
       5.816885094930e-01       4.103695665526e-02 
       6.065870144995e-01       3.747463137159e-02 
       6.336266468475e-01       3.406069516401e-02 
       6.632156059511e-01       3.081871239663e-02 
       6.958678639263e-01       2.771191349942e-02 
       7.322247985589e-01       2.475036599528e-02 
       7.730680195114e-01       2.192248342677e-02 
       8.193049553677e-01       1.923862690659e-02 
       8.718988016039e-01       1.671124644989e-02 
       9.317218031082e-01       1.436578178718e-02 
       9.993660908989e-01       1.223170413578e-02 
       1.075037110174e+00       1.033313824046e-02 
       1.158653485707e+00       8.679737876797e-03 
       1.250099157308e+00       7.264083881560e-03 
       1.349432401273e+00       6.064484955495e-03 
       1.456947457397e+00       5.054256241551e-03 
       1.573135111331e+00       4.206382952074e-03 
       1.698621895592e+00       3.496171587976e-03 
       1.834127512934e+00       2.902184495188e-03 
       1.980444934528e+00       2.405967263580e-03 
       2.138435191726e+00       1.991947320498e-03 
       2.309029199186e+00       1.646852462064e-03 
       2.493232377687e+00       1.359544792396e-03 
       2.692130395285e+00       1.120604458639e-03 
       2.906895534573e+00       9.220810387942e-04 
       3.138793597714e+00       7.572997024662e-04 
       3.389191366484e+00       6.206676940896e-04 
       3.659564657905e+00       5.074903519048e-04 
       3.951507022538e+00       4.138405194941e-04 
       4.266739136701e+00       3.364393634146e-04 
       4.607118943941e+00       2.725367751093e-04 
       4.974652605557e+00       2.198551582362e-04 
       5.371506324689e+00       1.764899438408e-04 
       5.800019113685e+00       1.408600035168e-04 
       6.262716579983e+00       1.116530189133e-04 
       6.762325811764e+00       8.777708249504e-05 
       7.301791451110e+00       6.832944767374e-05 
       7.884293049406e+00       5.256217575865e-05 
       8.513263807261e+00       3.985333558667e-05 
       9.192410809424e+00       2.968939665536e-05 
       9.925736873929e+00       2.164070938539e-05 
       1.071756414427e+01       1.535081244612e-05 
       1.157255956364e+01       1.051923878916e-05 
       1.249576238137e+01       6.891801793115e-06 
       1.349261385375e+01       4.250883334188e-06 
       1.456898931416e+01       2.408408512028e-06 
       1.573123280165e+01       1.199351688960e-06 
       1.698619445202e+01       4.783102861955e-07 
       1.834127087176e+01       1.167715537161e-07 
       1.980444873285e+01       2.127238001935e-09 
       2.138435184532e+01       3.791555962046e-08 
       2.309029198506e+01       1.449674635331e-07 
       2.493232377636e+01       2.628352676732e-07 
       2.692130395282e+01       3.508081039158e-07 
       2.906895534573e+01       3.878772362966e-07 
       3.138793597714e+01       3.709431343122e-07 
       3.389191366484e+01       3.109391329491e-07 
       3.659564657905e+01       2.273515431810e-07 
       3.951507022538e+01       1.416295238341e-07 
       4.266739136701e+01       7.115746653742e-08 
       4.607118943941e+01       2.520843242937e-08 
       4.974652605557e+01       3.871321107142e-09 
       5.371506324689e+01       2.236820746778e-10 
       5.800019113685e+01       4.581088635404e-09 
       6.262716579983e+01       8.912876155838e-09 
       6.762325811764e+01       9.465474223742e-09 
