# Matter power spectrum P(k) at redshift z=99
# for k=1.04775e-05 to 134.926 h/Mpc,
# number of wavenumbers equal to 255
#    1:k (h/Mpc)              2:P (Mpc/h)^3        
       1.047750691338e-05       7.261927095232e-03 
       1.131335172818e-05       7.820332150698e-03 
       1.221587619877e-05       8.421675382268e-03 
       1.319039970550e-05       9.069257737936e-03 
       1.424266598317e-05       9.766636451054e-03 
       1.537887697396e-05       1.051763973633e-02 
       1.660572938097e-05       1.132639250744e-02 
       1.793045413791e-05       1.219733201500e-02 
       1.936085902737e-05       1.313524187194e-02 
       2.090537469909e-05       1.414527084968e-02 
       2.257310435923e-05       1.523296544482e-02 
       2.437387742372e-05       1.640429654630e-02 
       2.631830745176e-05       1.766569603275e-02 
       2.841785470091e-05       1.902408711151e-02 
       3.068489367268e-05       2.048692967432e-02 
       3.313278604643e-05       2.206225467536e-02 
       3.577595943165e-05       2.375870883839e-02 
       3.862999240274e-05       2.558560669808e-02 
       4.171170631739e-05       2.755297672492e-02 
       4.503926445983e-05       2.967161933397e-02 
       4.863227909323e-05       3.195316455639e-02 
       5.251192705226e-05       3.441013466116e-02 
       5.670107455699e-05       3.705601741682e-02 
       6.122441198393e-05       3.990533412814e-02 
       6.610859938837e-05       4.297372242508e-02 
       7.138242363583e-05       4.627802054825e-02 
       7.707696806873e-05       4.983636159860e-02 
       8.322579570814e-05       5.366826786904e-02 
       8.986514707061e-05       5.779476319702e-02 
       9.703415376577e-05       6.223848221802e-02 
       1.047750691338e-04       6.702379824985e-02 
       1.131335172818e-04       7.217695031041e-02 
       1.221587619877e-04       7.772619030321e-02 
       1.319039970550e-04       8.370193379997e-02 
       1.424266598317e-04       9.013692506621e-02 
       1.537887697396e-04       9.706641130350e-02 
       1.660572938097e-04       1.045283343106e-01 
       1.793045413791e-04       1.125635329180e-01 
       1.936085902737e-04       1.212159592304e-01 
       2.090537469909e-04       1.305329107430e-01 
       2.257310435923e-04       1.405652819355e-01 
       2.437387742372e-04       1.513678275070e-01 
       2.631830745176e-04       1.629994475127e-01 
       2.841785470091e-04       1.755234890472e-01 
       3.068489367268e-04       1.890080645293e-01 
       3.313278604643e-04       2.035263977425e-01 
       3.577595943165e-04       2.191571778038e-01 
       3.862999240274e-04       2.359849423254e-01 
       4.171170631739e-04       2.541004712996e-01 
       4.503926445983e-04       2.736012061153e-01 
       4.863227909323e-04       2.945916774637e-01 
       5.251192705226e-04       3.171839507857e-01 
       5.670107455699e-04       3.414980769102e-01 
       6.122441198393e-04       3.676625416294e-01 
       6.610859938837e-04       3.958147272858e-01 
       7.138242363583e-04       4.261013332058e-01 
       7.707696806873e-04       4.586787880843e-01 
       8.322579570814e-04       4.937136112815e-01 
       8.986514707061e-04       5.313826962071e-01 
       9.703415376577e-04       5.718735176799e-01 
       1.047750691338e-03       6.153841926246e-01 
       1.131335172818e-03       6.621233623119e-01 
       1.221587619877e-03       7.123098743651e-01 
       1.319039970550e-03       7.661721263786e-01 
       1.424266598317e-03       8.239547181302e-01 
       1.537887697396e-03       8.859012282818e-01 
       1.660572938097e-03       9.522589495755e-01 
       1.793045413791e-03       1.023280284737e+00 
       1.936085902737e-03       1.099216542128e+00 
       2.090537469909e-03       1.180313285061e+00 
       2.257310435923e-03       1.266804486836e+00 
       2.437387742372e-03       1.358905328494e+00 
       2.631830745176e-03       1.456803285985e+00 
       2.841785470091e-03       1.560647663077e+00 
       3.068489367268e-03       1.670537010621e+00 
       3.313278604643e-03       1.786505039690e+00 
       3.577595943165e-03       1.908504410176e+00 
       3.862999240274e-03       2.036389468824e+00 
       4.171170631739e-03       2.169898252876e+00 
       4.503926445983e-03       2.308634492052e+00 
       4.863227909323e-03       2.452050674867e+00 
       5.251192705226e-03       2.599434681235e+00 
       5.670107455699e-03       2.749901126580e+00 
       6.122441198393e-03       2.902390058461e+00 
       6.610859938837e-03       3.055671269983e+00 
       7.138242363583e-03       3.208360123036e+00 
       7.707696806873e-03       3.358926651599e+00 
       8.322579570814e-03       3.505726890179e+00 
       8.986514707061e-03       3.647012438280e+00 
       9.703415376577e-03       3.780926179943e+00 
       1.047750691338e-02       3.905492881529e+00 
       1.131335172818e-02       4.018589827217e+00 
       1.221587619877e-02       4.117902890403e+00 
       1.319039970550e-02       4.200917702583e+00 
       1.424266598317e-02       4.264943741947e+00 
       1.537887697392e-02       4.307219673707e+00 
       1.660572938023e-02       4.325062463182e+00 
       1.793045412706e-02       4.316060399028e+00 
       1.936085890181e-02       4.278228940740e+00 
       2.090537352463e-02       4.210204483496e+00 
       2.257309535333e-02       4.111418760321e+00 
       2.437382002918e-02       3.982420949950e+00 
       2.631799944462e-02       3.825168699892e+00 
       2.841644545389e-02       3.643282261593e+00 
       3.067933355377e-02       3.442198722063e+00 
       3.311368470740e-02       3.229241617753e+00 
       3.571840443502e-02       3.013516355402e+00 
       3.847720348444e-02       2.805283969275e+00 
       4.135335538431e-02       2.614410698937e+00 
       4.429361667738e-02       2.448132223612e+00 
       4.724366439141e-02       2.309240697954e+00 
       5.016480835311e-02       2.196115256012e+00 
       5.303989620246e-02       2.104369933403e+00 
       5.586870669566e-02       2.028462682395e+00 
       5.866042680613e-02       1.963155417161e+00 
       6.142798932958e-02       1.903779832669e+00 
       6.418496440164e-02       1.846479351156e+00 
       6.694418833788e-02       1.788197636372e+00 
       6.971731106057e-02       1.726715855009e+00 
       7.251476155766e-02       1.660654580137e+00 
       7.534587671527e-02       1.589470057660e+00 
       7.821907666265e-02       1.513436793791e+00 
       8.114203772912e-02       1.433568996942e+00 
       8.412184535029e-02       1.351492508535e+00 
       8.716512279304e-02       1.269273998179e+00 
       9.027813695930e-02       1.189193448349e+00 
       9.346688431697e-02       1.113501400699e+00 
       9.673716028276e-02       1.044174753821e+00 
       1.000946150830e-01       9.827062957103e-01 
       1.035447986537e-01       9.299372334363e-01 
       1.070931966762e-01       8.859588219834e-01 
       1.107452594425e-01       8.500714060300e-01 
       1.145064249153e-01       8.208036529619e-01 
       1.183821370918e-01       7.960245694184e-01 
       1.223778605862e-01       7.731459832466e-01 
       1.264990921987e-01       7.494523886794e-01 
       1.307513701367e-01       7.225578926219e-01 
       1.351402814784e-01       6.909099516168e-01 
       1.396714684203e-01       6.541827730665e-01 
       1.443506338194e-01       6.134282487052e-01 
       1.491835465229e-01       5.708689347777e-01 
       1.541760469708e-01       5.293642413359e-01 
       1.593340535561e-01       4.917107895758e-01 
       1.646635702297e-01       4.599198924149e-01 
       1.701706958456e-01       4.347278349921e-01 
       1.758616357459e-01       4.154077294206e-01 
       1.817427160982e-01       3.999361375593e-01 
       1.878204015065e-01       3.856857092389e-01 
       1.941013164283e-01       3.698140131903e-01 
       2.005922709503e-01       3.505514180877e-01 
       2.073002914972e-01       3.280463597903e-01 
       2.142326570816e-01       3.042132959121e-01 
       2.213969417533e-01       2.816114584178e-01 
       2.288010639706e-01       2.622566789983e-01 
       2.364533437147e-01       2.469616549035e-01 
       2.443625682930e-01       2.350127776310e-01 
       2.525380679504e-01       2.244202000572e-01 
       2.609898026346e-01       2.130959209128e-01 
       2.697284615565e-01       2.001024308188e-01 
       2.787655775689e-01       1.860196591969e-01 
       2.881136588829e-01       1.725168796021e-01 
       2.977863412677e-01       1.610657693055e-01 
       3.077985646929e-01       1.517603355974e-01 
       3.181667794071e-01       1.435590705514e-01 
       3.289091877812e-01       1.351815544775e-01 
       3.400460299658e-01       1.261640083863e-01 
       3.515999236474e-01       1.172016409044e-01 
       3.635962711085e-01       1.091765888044e-01 
       3.760637506334e-01       1.023089819913e-01 
       3.890349143879e-01       9.593737011958e-02 
       4.025469216825e-01       8.950740877518e-02 
       4.166424456376e-01       8.311145752512e-02 
       4.313708035863e-01       7.721515361596e-02 
       4.467893782977e-01       7.190029585286e-02 
       4.629654199664e-01       6.686875514500e-02 
       4.799783501994e-01       6.191724232831e-02 
       4.979227319373e-01       5.722193104939e-02 
       5.169121270864e-01       5.290260332595e-02 
       5.370841404489e-01       4.876950007479e-02 
       5.586070464571e-01       4.479044958557e-02 
       5.816885094930e-01       4.105162835316e-02 
       6.065870144995e-01       3.748965662592e-02 
       6.336266468475e-01       3.407594875371e-02 
       6.632156059511e-01       3.083427660275e-02 
       6.958678639263e-01       2.772811604517e-02 
       7.322247985589e-01       2.476689644749e-02 
       7.730680195114e-01       2.193936804195e-02 
       8.193049553677e-01       1.925591526200e-02 
       8.718988016039e-01       1.672908487688e-02 
       9.317218031082e-01       1.438395421814e-02 
       9.993660908989e-01       1.225044192543e-02 
       1.075037110174e+00       1.035237684633e-02 
       1.158653485707e+00       8.699456293216e-03 
       1.250099157308e+00       7.284366425240e-03 
       1.349432401273e+00       6.085239948511e-03 
       1.456947457397e+00       5.075516799185e-03 
       1.573135111331e+00       4.228089984389e-03 
       1.698621895592e+00       3.518330542443e-03 
       1.834127512934e+00       2.924768127973e-03 
       1.980444934528e+00       2.428952244280e-03 
       2.138435191726e+00       2.015301524022e-03 
       2.309029199186e+00       1.670569361857e-03 
       2.493232377687e+00       1.383588702641e-03 
       2.692130395285e+00       1.144930806923e-03 
       2.906895534573e+00       9.466585762036e-04 
       3.138793597714e+00       7.820936612111e-04 
       3.389191366484e+00       6.456288006987e-04 
       3.659564657905e+00       5.325786265082e-04 
       3.951507022538e+00       4.389962317523e-04 
       4.266739136701e+00       3.616070403904e-04 
       4.607118943941e+00       2.976471004518e-04 
       4.974652605557e+00       2.448353522893e-04 
       5.371506324689e+00       2.012621387080e-04 
       5.800019113685e+00       1.653343564855e-04 
       6.262716579983e+00       1.357355632229e-04 
       6.762325811764e+00       1.113644050551e-04 
       7.301791451110e+00       9.131378801265e-05 
       7.884293049406e+00       7.482743790133e-05 
       8.513263807261e+00       6.128065441007e-05 
       9.192410809424e+00       5.015593374760e-05 
       9.925736873929e+00       4.102616545669e-05 
       1.071756414427e+01       3.353791838708e-05 
       1.157255956364e+01       2.739977288851e-05 
       1.249576238137e+01       2.237059595206e-05 
       1.349261385375e+01       1.825247130620e-05 
       1.456898931416e+01       1.488283679220e-05 
       1.573123280165e+01       1.212642246789e-05 
       1.698619445202e+01       9.873095016246e-06 
       1.834127087176e+01       8.032091299167e-06 
       1.980444873285e+01       6.528589498960e-06 
       2.138435184532e+01       5.301422844658e-06 
       2.309029198506e+01       4.300460369072e-06 
       2.493232377636e+01       3.484318335797e-06 
       2.692130395282e+01       2.819336496971e-06 
       2.906895534573e+01       2.277827173255e-06 
       3.138793597714e+01       1.837117051895e-06 
       3.389191366484e+01       1.478742130356e-06 
       3.659564657905e+01       1.187507927518e-06 
       3.951507022538e+01       9.510482490627e-07 
       4.266739136701e+01       7.592656365206e-07 
       4.607118943941e+01       6.038731220817e-07 
       4.974652605557e+01       4.781482537500e-07 
       5.371506324689e+01       3.765987550388e-07 
       5.800019113685e+01       2.947452664399e-07 
       6.262716579983e+01       2.289340887642e-07 
       6.762325811764e+01       1.762017769837e-07 
       7.301791451110e+01       1.341247283791e-07 
       7.884293049406e+01       1.007329296897e-07 
       8.513263807261e+01       7.442527753745e-08 
       9.192410809424e+01       5.389231030227e-08 
       9.925736873929e+01       3.806418918081e-08 
       1.071756414427e+02       2.606092027838e-08 
       1.157255956364e+02       1.715399440214e-08 
       1.249576238137e+02       1.073359065118e-08 
       1.349261385375e+02       6.282360929825e-09 
