# Matter power spectrum P(k) at redshift z=0
# for k=1.04775e-05 to 134.926 h/Mpc,
# number of wavenumbers equal to 255
#    1:k (h/Mpc)              2:P (Mpc/h)^3        
       1.047750691338e-05       5.020963906804e+01 
       1.131335172818e-05       5.407048937140e+01 
       1.221587619877e-05       5.822820724032e+01 
       1.319039970550e-05       6.270562047185e+01 
       1.424266598317e-05       6.752731476091e+01 
       1.537887697396e-05       7.271975715400e+01 
       1.660572938097e-05       7.831147101207e+01 
       1.793045413791e-05       8.433312302067e+01 
       1.936085902737e-05       9.081780130649e+01 
       2.090537469909e-05       9.780107396259e+01 
       2.257310435923e-05       1.053212938597e+02 
       2.437387742372e-05       1.134197268469e+02 
       2.631830745176e-05       1.221408285619e+02 
       2.841785470091e-05       1.315324590474e+02 
       3.068489367268e-05       1.416461671342e+02 
       3.313278604643e-05       1.525374478890e+02 
       3.577595943165e-05       1.642660517278e+02 
       3.862999240274e-05       1.768963429415e+02 
       4.171170631739e-05       1.904975997742e+02 
       4.503926445983e-05       2.051444243234e+02 
       4.863227909323e-05       2.209171412049e+02 
       5.251192705226e-05       2.379022266138e+02 
       5.670107455699e-05       2.561927841248e+02 
       6.122441198393e-05       2.758890480296e+02 
       6.610859938837e-05       2.970989213990e+02 
       7.138242363583e-05       3.199385559932e+02 
       7.707696806873e-05       3.445329727004e+02 
       8.322579570814e-05       3.710167324006e+02 
       8.986514707061e-05       3.995346444121e+02 
       9.703415376577e-05       4.302425389361e+02 
       1.047750691338e-04       4.633080773454e+02 
       1.131335172818e-04       4.989116268712e+02 
       1.221587619877e-04       5.372471939064e+02 
       1.319039970550e-04       5.785234123056e+02 
       1.424266598317e-04       6.229645932831e+02 
       1.537887697396e-04       6.708118495750e+02 
       1.660572938097e-04       7.223242658612e+02 
       1.793045413791e-04       7.777801569817e+02 
       1.936085902737e-04       8.374783640744e+02 
       2.090537469909e-04       9.017396277331e+02 
       2.257310435923e-04       9.709080297648e+02 
       2.437387742372e-04       1.045352453327e+03 
       2.631830745176e-04       1.125468127732e+03 
       2.841785470091e-04       1.211678185943e+03 
       3.068489367268e-04       1.304435256012e+03 
       3.313278604643e-04       1.404223062919e+03 
       3.577595943165e-04       1.511558029568e+03 
       3.862999240274e-04       1.626990852543e+03 
       4.171170631739e-04       1.751108045586e+03 
       4.503926445983e-04       1.884533404734e+03 
       4.863227909323e-04       2.027929406930e+03 
       5.251192705226e-04       2.181998483879e+03 
       5.670107455699e-04       2.347484146024e+03 
       6.122441198393e-04       2.525171925141e+03 
       6.610859938837e-04       2.715890054908e+03 
       7.138242363583e-04       2.920509779232e+03 
       7.707696806873e-04       3.139945207936e+03 
       8.322579570814e-04       3.375152476870e+03 
       8.986514707061e-04       3.627128020270e+03 
       9.703415376577e-04       3.896905669261e+03 
       1.047750691338e-03       4.185552452292e+03 
       1.131335172818e-03       4.494162775152e+03 
       1.221587619877e-03       4.823851150044e+03 
       1.319039970550e-03       5.175743277990e+03 
       1.424266598317e-03       5.551020297677e+03 
       1.537887697396e-03       5.950789183980e+03 
       1.660572938097e-03       6.376124147926e+03 
       1.793045413791e-03       6.828075233447e+03 
       1.936085902737e-03       7.307627046378e+03 
       2.090537469909e-03       7.815673952027e+03 
       2.257310435923e-03       8.352992912388e+03 
       2.437387742372e-03       8.920214290186e+03 
       2.631830745176e-03       9.517787142289e+03 
       2.841785470091e-03       1.014594129921e+04 
       3.068489367268e-03       1.080465135962e+04 
       3.313278604643e-03       1.149358221367e+04 
       3.577595943165e-03       1.221204584889e+04 
       3.862999240274e-03       1.295893724249e+04 
       4.171170631739e-03       1.373267452339e+04 
       4.503926445983e-03       1.453113571860e+04 
       4.863227909323e-03       1.535156985959e+04 
       5.251192705226e-03       1.619065714177e+04 
       5.670107455699e-03       1.704433586625e+04 
       6.122441198393e-03       1.790758081883e+04 
       6.610859938837e-03       1.877462151206e+04 
       7.138242363583e-03       1.963874256373e+04 
       7.707696806873e-03       2.049216389352e+04 
       8.322579570814e-03       2.132611526415e+04 
       8.986514707061e-03       2.213055926739e+04 
       9.703415376577e-03       2.289441622798e+04 
       1.047750691338e-02       2.360545624189e+04 
       1.131335172818e-02       2.425017193839e+04 
       1.221587619877e-02       2.481417056099e+04 
       1.319039970550e-02       2.528210858265e+04 
       1.424266598317e-02       2.563801153325e+04 
       1.537887697392e-02       2.586590200628e+04 
       1.660572938023e-02       2.595000091605e+04 
       1.793045412706e-02       2.587601139615e+04 
       1.936085890181e-02       2.563169967979e+04 
       2.090537352463e-02       2.520871099570e+04 
       2.257309535333e-02       2.460360092273e+04 
       2.437382002918e-02       2.381976682488e+04 
       2.631799944462e-02       2.286897282978e+04 
       2.841644545389e-02       2.177266705610e+04 
       3.067933355377e-02       2.056325945301e+04 
       3.311368470740e-02       1.928442606120e+04 
       3.571840443502e-02       1.799045088817e+04 
       3.847720348444e-02       1.674251777380e+04 
       4.135335538431e-02       1.559942298281e+04 
       4.429361667738e-02       1.460425393439e+04 
       4.724366439141e-02       1.377339339963e+04 
       5.016480835311e-02       1.309679383122e+04 
       5.303989620246e-02       1.254779038960e+04 
       5.586870669566e-02       1.209364563879e+04 
       5.866042680613e-02       1.170280086568e+04 
       6.142798932958e-02       1.134725825543e+04 
       6.418496440164e-02       1.100397614669e+04 
       6.694418833788e-02       1.065464218468e+04 
       6.971731106057e-02       1.028594628038e+04 
       7.251476155766e-02       9.889751202235e+03 
       7.534587671527e-02       9.462812147949e+03 
       7.821907666265e-02       9.006808589880e+03 
       8.114203772912e-02       8.527798852423e+03 
       8.412184535029e-02       8.035529003862e+03 
       8.716512279304e-02       7.542475146580e+03 
       9.027813695930e-02       7.062238069316e+03 
       9.346688431697e-02       6.608285210278e+03 
       9.673716028276e-02       6.192405911129e+03 
       1.000946150830e-01       5.823505287732e+03 
       1.035447986537e-01       5.506523836587e+03 
       1.070931966762e-01       5.241999654352e+03 
       1.107452594425e-01       5.025635184831e+03 
       1.145064249153e-01       4.848653281469e+03 
       1.183821370918e-01       4.698239124104e+03 
       1.223778605862e-01       4.558900920990e+03 
       1.264990921987e-01       4.414422981116e+03 
       1.307513701367e-01       4.250651531590e+03 
       1.351402814784e-01       4.058314995903e+03 
       1.396714684203e-01       3.835581161429e+03 
       1.443506338194e-01       3.588810937853e+03 
       1.491835465229e-01       3.331382166225e+03 
       1.541760469708e-01       3.080277276877e+03 
       1.593340535561e-01       2.852170724438e+03 
       1.646635702297e-01       2.658866921087e+03 
       1.701706958456e-01       2.504637460174e+03 
       1.758616357459e-01       2.385037680720e+03 
       1.817427160982e-01       2.287988923957e+03 
       1.878204015065e-01       2.197976626520e+03 
       1.941013164283e-01       2.098243870377e+03 
       2.005922709503e-01       1.978508008529e+03 
       2.073002914972e-01       1.839810723155e+03 
       2.142326570816e-01       1.693494099879e+03 
       2.213969417533e-01       1.554557539494e+03 
       2.288010639706e-01       1.434708635476e+03 
       2.364533437147e-01       1.338512906228e+03 
       2.443625682930e-01       1.261678057001e+03 
       2.525380679504e-01       1.192694713349e+03 
       2.609898026346e-01       1.119642804724e+03 
       2.697284615565e-01       1.037305911015e+03 
       2.787655775689e-01       9.491240652103e+02 
       2.881136588829e-01       8.645928795178e+02 
       2.977863412677e-01       7.918817785122e+02 
       3.077985646929e-01       7.314034512308e+02 
       3.181667794071e-01       6.773241090648e+02 
       3.289091877812e-01       6.227175536222e+02 
       3.400460299658e-01       5.652104972051e+02 
       3.515999236474e-01       5.085950197923e+02 
       3.635962711085e-01       4.575230561347e+02 
       3.760637506334e-01       4.130549172844e+02 
       3.890349143879e-01       3.717922680108e+02 
       4.025469216825e-01       3.310277176182e+02 
       4.166424456376e-01       2.913064561561e+02 
       4.313708035863e-01       2.548796137178e+02 
       4.467893782977e-01       2.221123599780e+02 
       4.629654199664e-01       1.916645929502e+02 
       4.799783501994e-01       1.627205427641e+02 
       4.979227319373e-01       1.360781673457e+02 
       5.169121270864e-01       1.122398014177e+02 
       5.370841404489e-01       9.052606373670e+01 
       5.586070464571e-01       7.089345891150e+01 
       5.816885094930e-01       5.369311815703e+01 
       6.065870144995e-01       3.879125247828e+01 
       6.336266468475e-01       2.619714792041e+01 
       6.632156059511e-01       1.605007327779e+01 
       6.958678639263e-01       8.347944380628e+00 
       7.322247985589e-01       3.160541784229e+00 
       7.730680195114e-01       4.647011143661e-01 
       8.193049553677e-01       1.413158345668e-01 
       8.718988016039e-01       1.857323788416e+00 
       9.317218031082e-01       4.971735300607e+00 
       9.993660908989e-01       8.516495558559e+00 
       1.075037110174e+00       1.136624563470e+01 
       1.158653485707e+00       1.259978700654e+01 
       1.250099157308e+00       1.183168228007e+01 
       1.349432401273e+00       9.378182096534e+00 
       1.456947457397e+00       6.076666032831e+00 
       1.573135111331e+00       2.965203567709e+00 
       1.698621895592e+00       8.549026458135e-01 
       1.834127512934e+00       3.048738043216e-02 
       1.980444934528e+00       1.867814943343e-01 
       2.138435191726e+00       6.745894252164e-01 
       2.309029199186e+00       9.174701260316e-01 
       2.493232377687e+00       7.315249201374e-01 
       2.692130395285e+00       3.367861562415e-01 
       2.906895534573e+00       5.444937002414e-02 
       3.138793597714e+00       5.416970372135e-03 
       3.389191366484e+00       6.507319303380e-02 
       3.659564657905e+00       7.840317915740e-02 
       3.951507022538e+00       3.300908267567e-02 
       4.266739136701e+00       1.514255504518e-03 
       4.607118943941e+00       4.378850620727e-03 
       4.974652605557e+00       8.143259832955e-03 
       5.371506324689e+00       2.284894112803e-03 
       5.800019113685e+00       5.596418294798e-05 
       6.262716579983e+00       8.941991594902e-04 
       6.762325811764e+00       2.868145628425e-04 
       7.301791451110e+00       2.093261011725e-05 
       7.884293049406e+00       6.482651006328e-05 
       8.513263807261e+00       3.002121880647e-06 
       9.192410809424e+00       5.751775199232e-06 
       9.925736873929e+00       4.299253529738e-06 
       1.071756414427e+01       1.119802953094e-05 
       1.157255956364e+01       1.431793535194e-06 
       1.249576238137e+01       3.656866576557e-06 
       1.349261385375e+01       1.610436817521e-05 
       1.456898931416e+01       6.530064050259e-06 
       1.573123280165e+01       2.486129962353e-07 
       1.698619445202e+01       7.271674631919e-07 
       1.834127087176e+01       1.257238146654e-05 
       1.980444873285e+01       4.252762091157e-05 
       2.138435184532e+01       1.474302042745e-07 
       2.309029198506e+01       2.092538199320e-05 
       2.493232377636e+01       3.398088847499e-06 
       2.692130395282e+01       6.551460050741e-06 
       2.906895534573e+01       1.731631980353e-05 
       3.138793597714e+01       3.961096492146e-06 
       3.389191366484e+01       2.596418181249e-05 
       3.659564657905e+01       6.388745472108e-07 
       3.951507022538e+01       8.706261938498e-06 
       4.266739136701e+01       1.314610590171e-06 
       4.607118943941e+01       1.548236135923e-06 
       4.974652605557e+01       1.751949117627e-08 
       5.371506324689e+01       3.282636503411e-07 
       5.800019113685e+01       6.060093528931e-08 
       6.262716579983e+01       7.851497025142e-11 
       6.762325811764e+01       8.364102608283e-08 
       7.301791451110e+01       5.709905616997e-07 
       7.884293049406e+01       1.567468229498e-06 
       8.513263807261e+01       1.575967329115e-07 
       9.192410809424e+01       2.993146721071e-06 
       9.925736873929e+01       6.078945388300e-07 
       1.071756414427e+02       8.418112025825e-08 
       1.157255956364e+02       1.039512508837e-09 
       1.249576238137e+02       7.519587697395e-08 
       1.349261385375e+02       3.250986361102e-08 
