# Matter power spectrum P(k) at redshift z=99
# for k=1.04775e-05 to 134.926 h/Mpc,
# number of wavenumbers equal to 255
#    1:k (h/Mpc)              2:P (Mpc/h)^3        
       1.047750691338e-05       7.261927095786e-03 
       1.131335172818e-05       7.820332151295e-03 
       1.221587619877e-05       8.421675382911e-03 
       1.319039970550e-05       9.069257738629e-03 
       1.424266598317e-05       9.766636451799e-03 
       1.537887697396e-05       1.051763973714e-02 
       1.660572938097e-05       1.132639250830e-02 
       1.793045413791e-05       1.219733201593e-02 
       1.936085902737e-05       1.313524187294e-02 
       2.090537469909e-05       1.414527085076e-02 
       2.257310435923e-05       1.523296544598e-02 
       2.437387742372e-05       1.640429654755e-02 
       2.631830745176e-05       1.766569603410e-02 
       2.841785470091e-05       1.902408711296e-02 
       3.068489367268e-05       2.048692967588e-02 
       3.313278604643e-05       2.206225467704e-02 
       3.577595943165e-05       2.375870884020e-02 
       3.862999240274e-05       2.558560670003e-02 
       4.171170631739e-05       2.755297672703e-02 
       4.503926445983e-05       2.967161933623e-02 
       4.863227909323e-05       3.195316455882e-02 
       5.251192705226e-05       3.441013466378e-02 
       5.670107455699e-05       3.705601741965e-02 
       6.122441198393e-05       3.990533413119e-02 
       6.610859938837e-05       4.297372242836e-02 
       7.138242363583e-05       4.627802055178e-02 
       7.707696806873e-05       4.983636160240e-02 
       8.322579570814e-05       5.366826787313e-02 
       8.986514707061e-05       5.779476320142e-02 
       9.703415376577e-05       6.223848222275e-02 
       1.047750691338e-04       6.702379825495e-02 
       1.131335172818e-04       7.217695031589e-02 
       1.221587619877e-04       7.772619030911e-02 
       1.319039970550e-04       8.370193380631e-02 
       1.424266598317e-04       9.013692507303e-02 
       1.537887697396e-04       9.706641131084e-02 
       1.660572938097e-04       1.045283343185e-01 
       1.793045413791e-04       1.125635329265e-01 
       1.936085902737e-04       1.212159592395e-01 
       2.090537469909e-04       1.305329107528e-01 
       2.257310435923e-04       1.405652819460e-01 
       2.437387742372e-04       1.513678275183e-01 
       2.631830745176e-04       1.629994475248e-01 
       2.841785470091e-04       1.755234890602e-01 
       3.068489367268e-04       1.890080645432e-01 
       3.313278604643e-04       2.035263977574e-01 
       3.577595943165e-04       2.191571778197e-01 
       3.862999240274e-04       2.359849423423e-01 
       4.171170631739e-04       2.541004713176e-01 
       4.503926445983e-04       2.736012061344e-01 
       4.863227909323e-04       2.945916774839e-01 
       5.251192705226e-04       3.171839508071e-01 
       5.670107455699e-04       3.414980769327e-01 
       6.122441198393e-04       3.676625416531e-01 
       6.610859938837e-04       3.958147273105e-01 
       7.138242363583e-04       4.261013332314e-01 
       7.707696806873e-04       4.586787881106e-01 
       8.322579570814e-04       4.937136113082e-01 
       8.986514707061e-04       5.313826962339e-01 
       9.703415376577e-04       5.718735177063e-01 
       1.047750691338e-03       6.153841926499e-01 
       1.131335172818e-03       6.621233623353e-01 
       1.221587619877e-03       7.123098743854e-01 
       1.319039970550e-03       7.661721263943e-01 
       1.424266598317e-03       8.239547181381e-01 
       1.537887697396e-03       8.859012282781e-01 
       1.660572938097e-03       9.522589495559e-01 
       1.793045413791e-03       1.023280284696e+00 
       1.936085902737e-03       1.099216542059e+00 
       2.090537469909e-03       1.180313284954e+00 
       2.257310435923e-03       1.266804486680e+00 
       2.437387742372e-03       1.358905328275e+00 
       2.631830745176e-03       1.456803285684e+00 
       2.841785470091e-03       1.560647662670e+00 
       3.068489367268e-03       1.670537010081e+00 
       3.313278604643e-03       1.786505038978e+00 
       3.577595943165e-03       1.908504409247e+00 
       3.862999240274e-03       2.036389467620e+00 
       4.171170631739e-03       2.169898251326e+00 
       4.503926445983e-03       2.308634490065e+00 
       4.863227909323e-03       2.452050672331e+00 
       5.251192705226e-03       2.599434678012e+00 
       5.670107455699e-03       2.749901122495e+00 
       6.122441198393e-03       2.902390053302e+00 
       6.610859938837e-03       3.055671263493e+00 
       7.138242363583e-03       3.208360114873e+00 
       7.707696806873e-03       3.358926559798e+00 
       8.322579570814e-03       3.505727964781e+00 
       8.986514707061e-03       3.647012361569e+00 
       9.703415376577e-03       3.780925817646e+00 
       1.047750691338e-02       3.905492850761e+00 
       1.131335172818e-02       4.018589872885e+00 
       1.221587619877e-02       4.117902856628e+00 
       1.319039970550e-02       4.200917656097e+00 
       1.424266598317e-02       4.264943693512e+00 
       1.537887697392e-02       4.307219564220e+00 
       1.660572938023e-02       4.325062327590e+00 
       1.793045412706e-02       4.316060263668e+00 
       1.936085890181e-02       4.278228735574e+00 
       2.090537352463e-02       4.210204381137e+00 
       2.257309535333e-02       4.111418509134e+00 
       2.437382002918e-02       3.982420719665e+00 
       2.631799944462e-02       3.825168414702e+00 
       2.841644545389e-02       3.643281930380e+00 
       3.067933355377e-02       3.442198319424e+00 
       3.311368470740e-02       3.229241124524e+00 
       3.571840443502e-02       3.013515782643e+00 
       3.847720348444e-02       2.805283292878e+00 
       4.135335538431e-02       2.614409906817e+00 
       4.429361667738e-02       2.448131298735e+00 
       4.724366439141e-02       2.309239629538e+00 
       5.016480835311e-02       2.196114032523e+00 
       5.303989620246e-02       2.104368543370e+00 
       5.586870669566e-02       2.028461114098e+00 
       5.866042680613e-02       1.963153658239e+00 
       6.142798932958e-02       1.903777870129e+00 
       6.418496440164e-02       1.846477171617e+00 
       6.694418833788e-02       1.788195226435e+00 
       6.971731106057e-02       1.726713201438e+00 
       7.251476155766e-02       1.660651670257e+00 
       7.534587671527e-02       1.589466887119e+00 
       7.821907666265e-02       1.513433338604e+00 
       8.114203772912e-02       1.433565255593e+00 
       8.412184535029e-02       1.351488476674e+00 
       8.716512279304e-02       1.269269666758e+00 
       9.027813695930e-02       1.189188806204e+00 
       9.346688431697e-02       1.113496351990e+00 
       9.673716028276e-02       1.044169475551e+00 
       1.000946150830e-01       9.827006632802e-01 
       1.035447986537e-01       9.299237564956e-01 
       1.070931966762e-01       8.859524132679e-01 
       1.107452594425e-01       8.500643900673e-01 
       1.145064249153e-01       8.207963171405e-01 
       1.183821370918e-01       7.960166937904e-01 
       1.223778605862e-01       7.731375369653e-01 
       1.264990921987e-01       7.494423183719e-01 
       1.307513701367e-01       7.225481806466e-01 
       1.351402814784e-01       6.908995849223e-01 
       1.396714684203e-01       6.541717493068e-01 
       1.443506338194e-01       6.134165262879e-01 
       1.491835465229e-01       5.708566554206e-01 
       1.541760469708e-01       5.293513247394e-01 
       1.593340535561e-01       4.916972261700e-01 
       1.646635702297e-01       4.599056570420e-01 
       1.701706958456e-01       4.347128336531e-01 
       1.758616357459e-01       4.153918522579e-01 
       1.817427160982e-01       3.999191958644e-01 
       1.878204015065e-01       3.856676713403e-01 
       1.941013164283e-01       3.697929402063e-01 
       2.005922709503e-01       3.505287006664e-01 
       2.073002914972e-01       3.280255166865e-01 
       2.142326570816e-01       3.041916793545e-01 
       2.213969417533e-01       2.815883754760e-01 
       2.288010639706e-01       2.622325705668e-01 
       2.364533437147e-01       2.469363413566e-01 
       2.443625682930e-01       2.349860773270e-01 
       2.525380679504e-01       2.243920343834e-01 
       2.609898026346e-01       2.130661858593e-01 
       2.697284615565e-01       2.000711295920e-01 
       2.787655775689e-01       1.859874140352e-01 
       2.881136588829e-01       1.724829850767e-01 
       2.977863412677e-01       1.610303100821e-01 
       3.077985646929e-01       1.517234455612e-01 
       3.181667794071e-01       1.435202542658e-01 
       3.289091877812e-01       1.351409859335e-01 
       3.400460299658e-01       1.261217186450e-01 
       3.515999236474e-01       1.171571081550e-01 
       3.635962711085e-01       1.091301364771e-01 
       3.760637506334e-01       1.022605177732e-01 
       3.890349143879e-01       9.588646804326e-02 
       4.025469216825e-01       8.945421055715e-02 
       4.166424456376e-01       8.305577047087e-02 
       4.313708035863e-01       7.715709732754e-02 
       4.467893782977e-01       7.183962589015e-02 
       4.629654199664e-01       6.680529877977e-02 
       4.799783501994e-01       6.185087826028e-02 
       4.979227319373e-01       5.715257986362e-02 
       5.169121270864e-01       5.283001164956e-02 
       5.370841404489e-01       4.869351193084e-02 
       5.586070464571e-01       4.471099244932e-02 
       5.816885094930e-01       4.096819790777e-02 
       6.065870144995e-01       3.740207284393e-02 
       6.336266468475e-01       3.398403570700e-02 
       6.632156059511e-01       3.073755219537e-02 
       6.958678639263e-01       2.762599902057e-02 
       7.322247985589e-01       2.465897483783e-02 
       7.730680195114e-01       2.182503894116e-02 
       8.193049553677e-01       1.913445668005e-02 
       8.718988016039e-01       1.659961720173e-02 
       9.317218031082e-01       1.424573341848e-02 
       9.993660908989e-01       1.210245395881e-02 
       1.075037110174e+00       1.019394156078e-02 
       1.158653485707e+00       8.529918673221e-03 
       1.250099157308e+00       7.103296474223e-03 
       1.349432401273e+00       5.892335759310e-03 
       1.456947457397e+00       4.870641314505e-03 
       1.573135111331e+00       4.011267271937e-03 
       1.698621895592e+00       3.289721162125e-03 
       1.834127512934e+00       2.684760101269e-03 
       1.980444934528e+00       2.178149027105e-03 
       2.138435191726e+00       1.754560888003e-03 
       2.309029199186e+00       1.401086724914e-03 
       2.493232377687e+00       1.106869414367e-03 
       2.692130395285e+00       8.628835120184e-04 
       2.906895534573e+00       6.615741615087e-04 
       3.138793597714e+00       4.966873272856e-04 
       3.389191366484e+00       3.630135944628e-04 
       3.659564657905e+00       2.562202231803e-04 
       3.951507022538e+00       1.726353659615e-04 
       4.266739136701e+00       1.091234209613e-04 
       4.607118943941e+00       6.288127941872e-05 
       4.974652605557e+00       3.133247934609e-05 
       5.371506324689e+00       1.198594800982e-05 
       5.800019113685e+00       2.383092969632e-06 
       6.262716579983e+00       1.859113529332e-08 
       6.762325811764e+00       2.409934236009e-06 
       7.301791451110e+00       7.170130433738e-06 
       7.884293049406e+00       1.218750123240e-05 
       8.513263807261e+00       1.580659238929e-05 
       9.192410809424e+00       1.705278769167e-05 
       9.925736873929e+00       1.571791957861e-05 
       1.071756414427e+01       1.234933861272e-05 
       1.157255956364e+01       8.042890870127e-06 
       1.249576238137e+01       4.036309031956e-06 
       1.349261385375e+01       1.275547459737e-06 
       1.456898931416e+01       9.244164225423e-08 
       1.573123280165e+01       1.365805754747e-07 
       1.698619445202e+01       6.629907630408e-07 
       1.834127087176e+01       9.837794439812e-07 
       1.980444873285e+01       8.434220623678e-07 
       2.138435184532e+01       4.330178936885e-07 
       2.309029198506e+01       9.894601604971e-08 
       2.493232377636e+01       9.920087479020e-15 
       2.692130395282e+01       3.959635782416e-08 
       2.906895534573e+01       6.158447259894e-08 
       3.138793597714e+01       3.153743269414e-08 
       3.389191366484e+01       3.517432825096e-09 
       3.659564657905e+01       1.095963866621e-09 
       3.951507022538e+01       3.547031536103e-09 
       4.266739136701e+01       1.316204128856e-09 
       4.607118943941e+01       2.011424110920e-12 
       4.974652605557e+01       1.654713918325e-10 
       5.371506324689e+01       4.995315609222e-11 
       5.800019113685e+01       8.019742548627e-12 
       6.262716579983e+01       4.934628921477e-12 
       6.762325811764e+01       1.413907907521e-14 
       7.301791451110e+01       2.713141196335e-13 
       7.884293049406e+01       1.787482834895e-13 
       8.513263807261e+01       2.563956453881e-14 
       9.192410809424e+01       4.227914432475e-13 
       9.925736873929e+01       2.346019941436e-14 
       1.071756414427e+02       6.177273263626e-14 
       1.157255956364e+02       1.260216773255e-12 
       1.249576238137e+02       1.294529487078e-13 
       1.349261385375e+02       2.982538447341e-12 
