# Matter power spectrum P(k) at redshift z=0
# for k=1.04775e-05 to 67.6233 h/Mpc,
# number of wavenumbers equal to 246
#    1:k (h/Mpc)              2:P (Mpc/h)^3        
       1.047750691338e-05       5.020964806749e+01 
       1.131335172818e-05       5.407048206554e+01 
       1.221587619877e-05       5.822819063820e+01 
       1.319039970550e-05       6.270562589688e+01 
       1.424266598317e-05       6.752731788102e+01 
       1.537887697396e-05       7.271977200258e+01 
       1.660572938097e-05       7.831147241542e+01 
       1.793045413791e-05       8.433311815128e+01 
       1.936085902737e-05       9.081778242446e+01 
       2.090537469909e-05       9.780108061341e+01 
       2.257310435923e-05       1.053213197032e+02 
       2.437387742372e-05       1.134197377001e+02 
       2.631830745176e-05       1.221408202816e+02 
       2.841785470091e-05       1.315324720916e+02 
       3.068489367268e-05       1.416462093731e+02 
       3.313278604643e-05       1.525374500691e+02 
       3.577595943165e-05       1.642660687078e+02 
       3.862999240274e-05       1.768963504868e+02 
       4.171170631739e-05       1.904975992460e+02 
       4.503926445983e-05       2.051444490305e+02 
       4.863227909323e-05       2.209171463752e+02 
       5.251192705226e-05       2.379022222314e+02 
       5.670107455699e-05       2.561927925429e+02 
       6.122441198393e-05       2.758890441791e+02 
       6.610859938837e-05       2.970989225464e+02 
       7.138242363583e-05       3.199385558200e+02 
       7.707696806873e-05       3.445329780878e+02 
       8.322579570814e-05       3.710167315928e+02 
       8.986514707061e-05       3.995346440954e+02 
       9.703415376577e-05       4.302425403884e+02 
       1.047750691338e-04       4.633080762974e+02 
       1.131335172818e-04       4.989116267507e+02 
       1.221587619877e-04       5.372471946561e+02 
       1.319039970550e-04       5.785234124632e+02 
       1.424266598317e-04       6.229645930980e+02 
       1.537887697396e-04       6.708118484951e+02 
       1.660572938097e-04       7.223242660219e+02 
       1.793045413791e-04       7.777801554019e+02 
       1.936085902737e-04       8.374783607332e+02 
       2.090537469909e-04       9.017396264495e+02 
       2.257310435923e-04       9.709080260151e+02 
       2.437387742372e-04       1.045352448644e+03 
       2.631830745176e-04       1.125468122836e+03 
       2.841785470091e-04       1.211678179510e+03 
       3.068489367268e-04       1.304435249091e+03 
       3.313278604643e-04       1.404223052541e+03 
       3.577595943165e-04       1.511558013390e+03 
       3.862999240274e-04       1.626990836414e+03 
       4.171170631739e-04       1.751108027370e+03 
       4.503926445983e-04       1.884533381345e+03 
       4.863227909323e-04       2.027929376471e+03 
       5.251192705226e-04       2.181998446367e+03 
       5.670107455699e-04       2.347484100856e+03 
       6.122441198393e-04       2.525171869336e+03 
       6.610859938837e-04       2.715889981399e+03 
       7.138242363583e-04       2.920509686077e+03 
       7.707696806873e-04       3.139945097708e+03 
       8.322579570814e-04       3.375152334393e+03 
       8.986514707061e-04       3.627127828227e+03 
       9.703415376577e-04       3.896905450011e+03 
       1.047750691338e-03       4.185552170966e+03 
       1.131335172818e-03       4.494162426784e+03 
       1.221587619877e-03       4.823850702662e+03 
       1.319039970550e-03       5.175742740248e+03 
       1.424266598317e-03       5.551019592502e+03 
       1.537887697396e-03       5.950788335851e+03 
       1.660572938097e-03       6.376123046754e+03 
       1.793045413791e-03       6.828073896089e+03 
       1.936085902737e-03       7.307625375347e+03 
       2.090537469909e-03       7.815671859034e+03 
       2.257310435923e-03       8.352990369326e+03 
       2.437387742372e-03       8.920211057441e+03 
       2.631830745176e-03       9.517783061785e+03 
       2.841785470091e-03       1.014593703658e+04 
       3.068489367268e-03       1.080464505712e+04 
       3.313278604643e-03       1.149357459523e+04 
       3.577595943165e-03       1.221203620799e+04 
       3.862999240274e-03       1.295892538471e+04 
       4.171170631739e-03       1.373266002129e+04 
       4.503926445983e-03       1.453111834542e+04 
       4.863227909323e-03       1.535154982308e+04 
       5.251192705226e-03       1.619063602072e+04 
       5.670107455699e-03       1.704431255951e+04 
       6.122441198393e-03       1.790755945040e+04 
       6.610859938837e-03       1.877460425360e+04 
       7.138242363583e-03       1.963872450498e+04 
       7.707696806873e-03       2.049215712290e+04 
       8.322579570814e-03       2.132611017344e+04 
       8.986514707061e-03       2.213054885328e+04 
       9.703415376577e-03       2.289445549999e+04 
       1.047750691338e-02       2.360548013837e+04 
       1.131335172818e-02       2.425023222120e+04 
       1.221587619877e-02       2.481423938712e+04 
       1.319039970550e-02       2.528218916107e+04 
       1.424266598317e-02       2.563814830264e+04 
       1.537887697392e-02       2.586607684441e+04 
       1.660572938023e-02       2.595026244423e+04 
       1.793045412706e-02       2.587635893425e+04 
       1.936085890181e-02       2.563218395151e+04 
       2.090537352463e-02       2.520933056602e+04 
       2.257309535333e-02       2.460448793336e+04 
       2.437382002918e-02       2.382097561666e+04 
       2.631799944462e-02       2.287037336207e+04 
       2.841644545389e-02       2.177447800711e+04 
       3.067933355377e-02       2.056552401061e+04 
       3.311368470740e-02       1.928728897164e+04 
       3.571840443502e-02       1.799402088125e+04 
       3.847720348444e-02       1.674677543225e+04 
       4.135335538431e-02       1.560457044435e+04 
       4.429361667738e-02       1.461028686328e+04 
       4.724366439141e-02       1.378051477504e+04 
       5.016480835311e-02       1.310499807425e+04 
       5.303989620246e-02       1.255718837767e+04 
       5.586870669566e-02       1.210419688169e+04 
       5.866042680613e-02       1.171466584716e+04 
       6.142798932958e-02       1.136048274310e+04 
       6.418496440164e-02       1.101859522533e+04 
       6.694418833788e-02       1.067067081442e+04 
       6.971731106057e-02       1.030352691851e+04 
       7.251476155766e-02       9.909051386333e+03 
       7.534587671527e-02       9.483701013175e+03 
       7.821907666265e-02       9.029400287464e+03 
       8.114203772912e-02       8.552203860348e+03 
       8.412184535029e-02       8.061959291694e+03 
       8.716512279304e-02       7.570801413932e+03 
       9.027813695930e-02       7.092492079068e+03 
       9.346688431697e-02       6.640523915263e+03 
       9.673716028276e-02       6.226714206887e+03 
       1.000946150830e-01       5.859937069600e+03 
       1.035447986537e-01       5.545268767835e+03 
       1.070931966762e-01       5.283139512517e+03 
       1.107452594425e-01       5.069431246904e+03 
       1.145064249153e-01       4.895244477583e+03 
       1.183821370918e-01       4.747855877588e+03 
       1.223778605862e-01       4.611728710480e+03 
       1.264990921987e-01       4.470609902928e+03 
       1.307513701367e-01       4.310265234095e+03 
       1.351402814784e-01       4.121279680899e+03 
       1.396714684203e-01       3.902056572281e+03 
       1.443506338194e-01       3.658636690250e+03 
       1.491835465229e-01       3.404473507762e+03 
       1.541760469708e-01       3.156652467203e+03 
       1.593340535561e-01       2.931925562959e+03 
       1.646635702297e-01       2.742353317766e+03 
       1.701706958456e-01       2.592236215034e+03 
       1.758616357459e-01       2.477211966801e+03 
       1.817427160982e-01       2.385172930176e+03 
       1.878204015065e-01       2.300313861440e+03 
       1.941013164283e-01       2.205718448761e+03 
       2.005922709503e-01       2.090777851993e+03 
       2.073002914972e-01       1.956435041715e+03 
       2.142326570816e-01       1.814169068112e+03 
       2.213969417533e-01       1.679251044209e+03 
       2.288010639706e-01       1.563809344705e+03 
       2.364533437147e-01       1.472651685692e+03 
       2.443625682930e-01       1.401488325308e+03 
       2.525380679504e-01       1.338380780526e+03 
       2.609898026346e-01       1.270858452203e+03 
       2.697284615565e-01       1.193342969740e+03 
       2.787655775689e-01       1.109293129567e+03 
       2.881136588829e-01       1.028722488800e+03 
       2.977863412677e-01       9.604349209403e+02 
       3.077985646929e-01       9.049728088183e+02 
       3.181667794071e-01       8.560946185678e+02 
       3.289091877812e-01       8.061361704403e+02 
       3.400460299658e-01       7.523385470698e+02 
       3.515999236474e-01       6.988636956230e+02 
       3.635962711085e-01       6.510016156321e+02 
       3.760637506334e-01       6.100557149728e+02 
       3.890349143879e-01       5.720639538493e+02 
       4.025469216825e-01       5.337097702433e+02 
       4.166424456376e-01       4.955562428635e+02 
       4.313708035863e-01       4.603894970544e+02 
       4.467893782977e-01       4.286935048040e+02 
       4.629654199664e-01       3.986837124671e+02 
       4.799783501994e-01       3.691486845331e+02 
       4.979227319373e-01       3.411419229863e+02 
       5.169121270864e-01       3.153792498564e+02 
       5.370841404489e-01       2.907264906107e+02 
       5.586070464571e-01       2.669903850496e+02 
       5.816885094930e-01       2.446863091292e+02 
       6.065870144995e-01       2.234373979776e+02 
       6.336266468475e-01       2.030720607381e+02 
       6.632156059511e-01       1.837312018432e+02 
       6.958678639263e-01       1.651964456735e+02 
       7.322247985589e-01       1.475258117077e+02 
       7.730680195114e-01       1.306510098383e+02 
       8.193049553677e-01       1.146333637237e+02 
       8.718988016039e-01       9.954773136956e+01 
       9.317218031082e-01       8.554331574241e+01 
       9.993660908989e-01       7.279782528358e+01 
       1.075037110174e+00       6.145383634438e+01 
       1.158653485707e+00       5.156893663136e+01 
       1.250099157308e+00       4.309935405783e+01 
       1.349432401273e+00       3.591526124617e+01 
       1.456947457397e+00       2.985815663930e+01 
       1.573135111331e+00       2.476623950398e+01 
       1.698621895592e+00       2.049318586351e+01 
       1.834127512934e+00       1.691042012046e+01 
       1.980444934528e+00       1.390870978545e+01 
       2.138435191726e+00       1.139515575468e+01 
       2.309029199186e+00       9.291164068493e+00 
       2.493232377687e+00       7.530991011007e+00 
       2.692130395285e+00       6.059224552150e+00 
       2.906895534573e+00       4.829593707078e+00 
       3.138793597714e+00       3.803755396017e+00 
       3.389191366484e+00       2.950143196468e+00 
       3.659564657905e+00       2.242802902246e+00 
       3.951507022538e+00       1.660831489795e+00 
       4.266739136701e+00       1.187284210457e+00 
       4.607118943941e+00       8.087120364490e-01 
       4.974652605557e+00       5.142229588429e-01 
       5.371506324689e+00       2.947915597266e-01 
       5.800019113685e+00       1.423276794008e-01 
       6.262716579983e+00       4.890417209807e-02 
       6.762325811764e+00       5.831422733520e-03 
       7.301791451110e+00       2.978282292939e-03 
       7.884293049406e+00       2.840414102280e-02 
       8.513263807261e+00       6.859205631786e-02 
       9.192410809424e+00       1.094766354015e-01 
       9.925736873929e+00       1.383266468103e-01 
       1.071756414427e+01       1.462716585470e-01 
       1.157255956364e+01       1.307161450075e-01 
       1.249576238137e+01       9.657477214126e-02 
       1.349261385375e+01       5.518112633330e-02 
       1.456898931416e+01       2.026231429816e-02 
       1.573123280165e+01       2.006027524708e-03 
       1.698619445202e+01       1.925139222086e-03 
       1.834127087176e+01       1.205232260853e-02 
       1.980444873285e+01       2.021389529590e-02 
       2.138435184532e+01       1.870210723745e-02 
       2.309029198506e+01       9.648224061645e-03 
       2.493232377636e+01       1.642969964707e-03 
       2.692130395282e+01       2.647735273747e-04 
       2.906895534573e+01       2.773546688057e-03 
       3.138793597714e+01       3.337516904627e-03 
       3.389191366484e+01       1.232065314002e-03 
       3.659564657905e+01       2.424806927779e-06 
       3.951507022538e+01       4.760468913226e-04 
       4.266739136701e+01       5.350292365664e-04 
       4.607118943941e+01       5.759203343282e-05 
       4.974652605557e+01       6.057136708307e-05 
       5.371506324689e+01       9.959659377807e-05 
       5.800019113685e+01       2.772149347849e-06 
       6.262716579983e+01       2.020996792136e-05 
       6.762325811764e+01       5.913570629976e-06 
