# Matter power spectrum P(k) at redshift z=99
# for k=1.04775e-05 to 134.926 h/Mpc,
# number of wavenumbers equal to 255
#    1:k (h/Mpc)              2:P (Mpc/h)^3        
       1.047750691338e-05       7.261927095216e-03 
       1.131335172818e-05       7.820332150681e-03 
       1.221587619877e-05       8.421675382250e-03 
       1.319039970550e-05       9.069257737917e-03 
       1.424266598317e-05       9.766636451033e-03 
       1.537887697396e-05       1.051763973631e-02 
       1.660572938097e-05       1.132639250741e-02 
       1.793045413791e-05       1.219733201497e-02 
       1.936085902737e-05       1.313524187191e-02 
       2.090537469909e-05       1.414527084965e-02 
       2.257310435923e-05       1.523296544479e-02 
       2.437387742372e-05       1.640429654626e-02 
       2.631830745176e-05       1.766569603271e-02 
       2.841785470091e-05       1.902408711147e-02 
       3.068489367268e-05       2.048692967427e-02 
       3.313278604643e-05       2.206225467531e-02 
       3.577595943165e-05       2.375870883834e-02 
       3.862999240274e-05       2.558560669802e-02 
       4.171170631739e-05       2.755297672486e-02 
       4.503926445983e-05       2.967161933390e-02 
       4.863227909323e-05       3.195316455632e-02 
       5.251192705226e-05       3.441013466109e-02 
       5.670107455699e-05       3.705601741674e-02 
       6.122441198393e-05       3.990533412805e-02 
       6.610859938837e-05       4.297372242498e-02 
       7.138242363583e-05       4.627802054815e-02 
       7.707696806873e-05       4.983636159849e-02 
       8.322579570814e-05       5.366826786892e-02 
       8.986514707061e-05       5.779476319689e-02 
       9.703415376577e-05       6.223848221789e-02 
       1.047750691338e-04       6.702379824971e-02 
       1.131335172818e-04       7.217695031025e-02 
       1.221587619877e-04       7.772619030304e-02 
       1.319039970550e-04       8.370193379979e-02 
       1.424266598317e-04       9.013692506602e-02 
       1.537887697396e-04       9.706641130329e-02 
       1.660572938097e-04       1.045283343104e-01 
       1.793045413791e-04       1.125635329178e-01 
       1.936085902737e-04       1.212159592301e-01 
       2.090537469909e-04       1.305329107427e-01 
       2.257310435923e-04       1.405652819352e-01 
       2.437387742372e-04       1.513678275067e-01 
       2.631830745176e-04       1.629994475124e-01 
       2.841785470091e-04       1.755234890469e-01 
       3.068489367268e-04       1.890080645289e-01 
       3.313278604643e-04       2.035263977421e-01 
       3.577595943165e-04       2.191571778034e-01 
       3.862999240274e-04       2.359849423249e-01 
       4.171170631739e-04       2.541004712991e-01 
       4.503926445983e-04       2.736012061147e-01 
       4.863227909323e-04       2.945916774631e-01 
       5.251192705226e-04       3.171839507851e-01 
       5.670107455699e-04       3.414980769095e-01 
       6.122441198393e-04       3.676625416287e-01 
       6.610859938837e-04       3.958147272851e-01 
       7.138242363583e-04       4.261013332051e-01 
       7.707696806873e-04       4.586787880836e-01 
       8.322579570814e-04       4.937136112807e-01 
       8.986514707061e-04       5.313826962063e-01 
       9.703415376577e-04       5.718735176792e-01 
       1.047750691338e-03       6.153841926239e-01 
       1.131335172818e-03       6.621233623113e-01 
       1.221587619877e-03       7.123098743645e-01 
       1.319039970550e-03       7.661721263781e-01 
       1.424266598317e-03       8.239547181300e-01 
       1.537887697396e-03       8.859012282819e-01 
       1.660572938097e-03       9.522589495760e-01 
       1.793045413791e-03       1.023280284738e+00 
       1.936085902737e-03       1.099216542130e+00 
       2.090537469909e-03       1.180313285064e+00 
       2.257310435923e-03       1.266804486840e+00 
       2.437387742372e-03       1.358905328500e+00 
       2.631830745176e-03       1.456803285994e+00 
       2.841785470091e-03       1.560647663088e+00 
       3.068489367268e-03       1.670537010637e+00 
       3.313278604643e-03       1.786505039710e+00 
       3.577595943165e-03       1.908504410202e+00 
       3.862999240274e-03       2.036389468858e+00 
       4.171170631739e-03       2.169898252920e+00 
       4.503926445983e-03       2.308634492108e+00 
       4.863227909323e-03       2.452050674939e+00 
       5.251192705226e-03       2.599434681326e+00 
       5.670107455699e-03       2.749901126695e+00 
       6.122441198393e-03       2.902390058604e+00 
       6.610859938837e-03       3.055671270165e+00 
       7.138242363583e-03       3.208360123262e+00 
       7.707696806873e-03       3.358926651883e+00 
       8.322579570814e-03       3.505726890531e+00 
       8.986514707061e-03       3.647012438716e+00 
       9.703415376577e-03       3.780926180485e+00 
       1.047750691338e-02       3.905492882194e+00 
       1.131335172818e-02       4.018589828037e+00 
       1.221587619877e-02       4.117902891406e+00 
       1.319039970550e-02       4.200917703807e+00 
       1.424266598317e-02       4.264943743429e+00 
       1.537887697392e-02       4.307219675507e+00 
       1.660572938023e-02       4.325062465351e+00 
       1.793045412706e-02       4.316060401633e+00 
       1.936085890181e-02       4.278228943851e+00 
       2.090537352463e-02       4.210204487191e+00 
       2.257309535333e-02       4.111418764686e+00 
       2.437382002918e-02       3.982420955074e+00 
       2.631799944462e-02       3.825168705872e+00 
       2.841644545389e-02       3.643282268378e+00 
       3.067933355377e-02       3.442198730056e+00 
       3.311368470740e-02       3.229241626766e+00 
       3.571840443502e-02       3.013516365845e+00 
       3.847720348444e-02       2.805283981069e+00 
       4.135335538431e-02       2.614410712177e+00 
       4.429361667738e-02       2.448132238428e+00 
       4.724366439141e-02       2.309240714393e+00 
       5.016480835311e-02       2.196115274144e+00 
       5.303989620246e-02       2.104369953288e+00 
       5.586870669566e-02       2.028462704084e+00 
       5.866042680613e-02       1.963155440701e+00 
       6.142798932958e-02       1.903779858093e+00 
       6.418496440164e-02       1.846479377458e+00 
       6.694418833788e-02       1.788197658877e+00 
       6.971731106057e-02       1.726715869699e+00 
       7.251476155766e-02       1.660654588923e+00 
       7.534587671527e-02       1.589470069116e+00 
       7.821907666265e-02       1.513436818888e+00 
       8.114203772912e-02       1.433569035052e+00 
       8.412184535029e-02       1.351492548204e+00 
       8.716512279304e-02       1.269274039270e+00 
       9.027813695930e-02       1.189193490854e+00 
       9.346688431697e-02       1.113501444577e+00 
       9.673716028276e-02       1.044174799126e+00 
       1.000946150830e-01       9.827063425070e-01 
       1.035447986537e-01       9.299357716634e-01 
       1.070931966762e-01       8.859588722485e-01 
       1.107452594425e-01       8.500714582782e-01 
       1.145064249153e-01       8.208037076323e-01 
       1.183821370918e-01       7.960246264939e-01 
       1.223778605862e-01       7.731457627117e-01 
       1.264990921987e-01       7.494518306858e-01 
       1.307513701367e-01       7.225568561159e-01 
       1.351402814784e-01       6.909081506715e-01 
       1.396714684203e-01       6.541804057924e-01 
       1.443506338194e-01       6.134259631285e-01 
       1.491835465229e-01       5.708670961067e-01 
       1.541760469708e-01       5.293643153154e-01 
       1.593340535561e-01       4.917108649750e-01 
       1.646635702297e-01       4.599199695301e-01 
       1.701706958456e-01       4.347279142264e-01 
       1.758616357459e-01       4.154078112708e-01 
       1.817427160982e-01       3.999362278623e-01 
       1.878204015065e-01       3.856831514537e-01 
       1.941013164283e-01       3.698097162860e-01 
       2.005922709503e-01       3.505468683171e-01 
       2.073002914972e-01       3.280458619023e-01 
       2.142326570816e-01       3.042137455926e-01 
       2.213969417533e-01       2.816115567125e-01 
       2.288010639706e-01       2.622567705313e-01 
       2.364533437147e-01       2.469617501168e-01 
       2.443625682930e-01       2.350128826904e-01 
       2.525380679504e-01       2.244203081852e-01 
       2.609898026346e-01       2.130958482787e-01 
       2.697284615565e-01       2.001026196365e-01 
       2.787655775689e-01       1.860199334987e-01 
       2.881136588829e-01       1.725169150027e-01 
       2.977863412677e-01       1.610658893941e-01 
       3.077985646929e-01       1.517604562913e-01 
       3.181667794071e-01       1.435592552558e-01 
       3.289091877812e-01       1.351816803994e-01 
       3.400460299658e-01       1.261642701748e-01 
       3.515999236474e-01       1.172017703679e-01 
       3.635962711085e-01       1.091767066011e-01 
       3.760637506334e-01       1.023092943420e-01 
       3.890349143879e-01       9.593749843016e-02 
       4.025469216825e-01       8.950754602929e-02 
       4.166424456376e-01       8.311162705261e-02 
       4.313708035863e-01       7.721532274114e-02 
       4.467893782977e-01       7.190045267604e-02 
       4.629654199664e-01       6.686889873585e-02 
       4.799783501994e-01       6.191739519938e-02 
       4.979227319373e-01       5.722207642820e-02 
       5.169121270864e-01       5.290274771745e-02 
       5.370841404489e-01       4.876965389042e-02 
       5.586070464571e-01       4.479059261234e-02 
       5.816885094930e-01       4.105178385373e-02 
       6.065870144995e-01       3.748980652281e-02 
       6.336266468475e-01       3.407611054987e-02 
       6.632156059511e-01       3.083444062964e-02 
       6.958678639263e-01       2.772828089026e-02 
       7.322247985589e-01       2.476706417650e-02 
       7.730680195114e-01       2.193953632404e-02 
       8.193049553677e-01       1.925608523317e-02 
       8.718988016039e-01       1.672925714999e-02 
       9.317218031082e-01       1.438412736462e-02 
       9.993660908989e-01       1.225061655320e-02 
       1.075037110174e+00       1.035255245131e-02 
       1.158653485707e+00       8.699633019166e-03 
       1.250099157308e+00       7.284560679687e-03 
       1.349432401273e+00       6.085415484879e-03 
       1.456947457397e+00       5.075682646385e-03 
       1.573135111331e+00       4.228270839464e-03 
       1.698621895592e+00       3.518513269936e-03 
       1.834127512934e+00       2.924946647861e-03 
       1.980444934528e+00       2.429126197387e-03 
       2.138435191726e+00       2.015472476060e-03 
       2.309029199186e+00       1.670730765034e-03 
       2.493232377687e+00       1.383756777544e-03 
       2.692130395285e+00       1.145097304377e-03 
       2.906895534573e+00       9.468200216955e-04 
       3.138793597714e+00       7.822525533627e-04 
       3.389191366484e+00       6.457841113500e-04 
       3.659564657905e+00       5.327316616768e-04 
       3.951507022538e+00       4.391457802817e-04 
       4.266739136701e+00       3.617476346781e-04 
       4.607118943941e+00       2.977891179187e-04 
       4.974652605557e+00       2.449697002151e-04 
       5.371506324689e+00       2.013914184925e-04 
       5.800019113685e+00       1.654560879039e-04 
       6.262716579983e+00       1.358527022260e-04 
       6.762325811764e+00       1.114771914341e-04 
       7.301791451110e+00       9.142062979446e-05 
       7.884293049406e+00       7.492705561554e-05 
       8.513263807261e+00       6.137316986723e-05 
       9.192410809424e+00       5.024147677938e-05 
       9.925736873929e+00       4.110423103437e-05 
       1.071756414427e+01       3.360765757249e-05 
       1.157255956364e+01       2.746067807097e-05 
       1.249576238137e+01       2.242265834070e-05 
       1.349261385375e+01       1.829515270688e-05 
       1.456898931416e+01       1.491557614595e-05 
       1.573123280165e+01       1.214891271345e-05 
       1.698619445202e+01       9.884781495952e-06 
       1.834127087176e+01       8.032413656434e-06 
       1.980444873285e+01       6.517408642388e-06 
       2.138435184532e+01       5.278297365942e-06 
       2.309029198506e+01       4.264870697526e-06 
       2.493232377636e+01       3.436124175820e-06 
       2.692130395282e+01       2.758342370481e-06 
       2.906895534573e+01       2.203950783059e-06 
       3.138793597714e+01       1.750538289582e-06 
       3.389191366484e+01       1.379806263667e-06 
       3.659564657905e+01       1.076860180833e-06 
       3.951507022538e+01       8.296852268856e-07 
       4.266739136701e+01       6.285210672338e-07 
       4.607118943941e+01       4.656959060022e-07 
       4.974652605557e+01       3.349383970894e-07 
       5.371506324689e+01       2.313133407972e-07 
       5.800019113685e+01       1.509160177935e-07 
       6.262716579983e+01       9.055225944385e-08 
       6.762325811764e+01       4.764204660564e-08 
       7.301791451110e+01       1.979314007638e-08 
       7.884293049406e+01       4.724522775220e-09 
       8.513263807261e+01       1.063249853317e-11 
       9.192410809424e+01       2.964154116878e-09 
       9.925736873929e+01       1.063166674698e-08 
       1.071756414427e+02       1.991832779093e-08 
       1.157255956364e+02       2.773554821377e-08 
       1.249576238137e+02       3.170756798889e-08 
       1.349261385375e+02       3.076315274289e-08 
