# Matter power spectrum P(k) at redshift z=0
# for k=1.04775e-05 to 67.6233 h/Mpc,
# number of wavenumbers equal to 246
#    1:k (h/Mpc)              2:P (Mpc/h)^3        
       1.047750691338e-05       5.020964806755e+01 
       1.131335172818e-05       5.407048206554e+01 
       1.221587619877e-05       5.822819063938e+01 
       1.319039970550e-05       6.270562589683e+01 
       1.424266598317e-05       6.752731788102e+01 
       1.537887697396e-05       7.271977200257e+01 
       1.660572938097e-05       7.831147241541e+01 
       1.793045413791e-05       8.433311815128e+01 
       1.936085902737e-05       9.081778242446e+01 
       2.090537469909e-05       9.780108061339e+01 
       2.257310435923e-05       1.053213197032e+02 
       2.437387742372e-05       1.134197377001e+02 
       2.631830745176e-05       1.221408202816e+02 
       2.841785470091e-05       1.315324720916e+02 
       3.068489367268e-05       1.416462093730e+02 
       3.313278604643e-05       1.525374500691e+02 
       3.577595943165e-05       1.642660687078e+02 
       3.862999240274e-05       1.768963504868e+02 
       4.171170631739e-05       1.904975992460e+02 
       4.503926445983e-05       2.051444490305e+02 
       4.863227909323e-05       2.209171463752e+02 
       5.251192705226e-05       2.379022222314e+02 
       5.670107455699e-05       2.561927925596e+02 
       6.122441198393e-05       2.758890441791e+02 
       6.610859938837e-05       2.970989225465e+02 
       7.138242363583e-05       3.199385558200e+02 
       7.707696806873e-05       3.445329780878e+02 
       8.322579570814e-05       3.710167315928e+02 
       8.986514707061e-05       3.995346440954e+02 
       9.703415376577e-05       4.302425403884e+02 
       1.047750691338e-04       4.633080762974e+02 
       1.131335172818e-04       4.989116267507e+02 
       1.221587619877e-04       5.372471946561e+02 
       1.319039970550e-04       5.785234124636e+02 
       1.424266598317e-04       6.229645930980e+02 
       1.537887697396e-04       6.708118484951e+02 
       1.660572938097e-04       7.223242660220e+02 
       1.793045413791e-04       7.777801554394e+02 
       1.936085902737e-04       8.374783607333e+02 
       2.090537469909e-04       9.017396264495e+02 
       2.257310435923e-04       9.709080260152e+02 
       2.437387742372e-04       1.045352448644e+03 
       2.631830745176e-04       1.125468122836e+03 
       2.841785470091e-04       1.211678179511e+03 
       3.068489367268e-04       1.304435249091e+03 
       3.313278604643e-04       1.404223052541e+03 
       3.577595943165e-04       1.511558013390e+03 
       3.862999240274e-04       1.626990836459e+03 
       4.171170631739e-04       1.751108027370e+03 
       4.503926445983e-04       1.884533381345e+03 
       4.863227909323e-04       2.027929376470e+03 
       5.251192705226e-04       2.181998446367e+03 
       5.670107455699e-04       2.347484100857e+03 
       6.122441198393e-04       2.525171869338e+03 
       6.610859938837e-04       2.715889981400e+03 
       7.138242363583e-04       2.920509686089e+03 
       7.707696806873e-04       3.139945097711e+03 
       8.322579570814e-04       3.375152334396e+03 
       8.986514707061e-04       3.627127828231e+03 
       9.703415376577e-04       3.896905450016e+03 
       1.047750691338e-03       4.185552170956e+03 
       1.131335172818e-03       4.494162426791e+03 
       1.221587619877e-03       4.823850702667e+03 
       1.319039970550e-03       5.175742732498e+03 
       1.424266598317e-03       5.551019592516e+03 
       1.537887697396e-03       5.950788335879e+03 
       1.660572938097e-03       6.376123046808e+03 
       1.793045413791e-03       6.828073896118e+03 
       1.936085902737e-03       7.307625375387e+03 
       2.090537469909e-03       7.815671862370e+03 
       2.257310435923e-03       8.352990369400e+03 
       2.437387742372e-03       8.920211057546e+03 
       2.631830745176e-03       9.517783061890e+03 
       2.841785470091e-03       1.014593703671e+04 
       3.068489367268e-03       1.080464505731e+04 
       3.313278604643e-03       1.149357459508e+04 
       3.577595943165e-03       1.221203620826e+04 
       3.862999240274e-03       1.295892538506e+04 
       4.171170631739e-03       1.373266002014e+04 
       4.503926445983e-03       1.453111834595e+04 
       4.863227909323e-03       1.535154984227e+04 
       5.251192705226e-03       1.619063613436e+04 
       5.670107455699e-03       1.704431256571e+04 
       6.122441198393e-03       1.790755938449e+04 
       6.610859938837e-03       1.877460421768e+04 
       7.138242363583e-03       1.963872429095e+04 
       7.707696806873e-03       2.049215713260e+04 
       8.322579570814e-03       2.132607230596e+04 
       8.986514707061e-03       2.213055109366e+04 
       9.703415376577e-03       2.289445470783e+04 
       1.047750691338e-02       2.360548460926e+04 
       1.131335172818e-02       2.425022856817e+04 
       1.221587619877e-02       2.481423924838e+04 
       1.319039970550e-02       2.528218808357e+04 
       1.424266598317e-02       2.563813655998e+04 
       1.537887697392e-02       2.586608305395e+04 
       1.660572938023e-02       2.595027390917e+04 
       1.793045412706e-02       2.587634745089e+04 
       1.936085890181e-02       2.563221848767e+04 
       2.090537352463e-02       2.520934519516e+04 
       2.257309535333e-02       2.460445874422e+04 
       2.437382002918e-02       2.382089067965e+04 
       2.631799944462e-02       2.287043264493e+04 
       2.841644545389e-02       2.177450815461e+04 
       3.067933355377e-02       2.056553675528e+04 
       3.311368470740e-02       1.928727998411e+04 
       3.571840443502e-02       1.799401625002e+04 
       3.847720348444e-02       1.674681179351e+04 
       4.135335538431e-02       1.560464268517e+04 
       4.429361667738e-02       1.461038879924e+04 
       4.724366439141e-02       1.378052539453e+04 
       5.016480835311e-02       1.310508812850e+04 
       5.303989620246e-02       1.255716071133e+04 
       5.586870669566e-02       1.210424574927e+04 
       5.866042680613e-02       1.171465630474e+04 
       6.142798932958e-02       1.136048396597e+04 
       6.418496440164e-02       1.101856985038e+04 
       6.694418833788e-02       1.067067847668e+04 
       6.971731106057e-02       1.030358959573e+04 
       7.251476155766e-02       9.908982451551e+03 
       7.534587671527e-02       9.483782093846e+03 
       7.821907666265e-02       9.029493485393e+03 
       8.114203772912e-02       8.552320839818e+03 
       8.412184535029e-02       8.061959038463e+03 
       8.716512279304e-02       7.570792697384e+03 
       9.027813695930e-02       7.092507525005e+03 
       9.346688431697e-02       6.640493425883e+03 
       9.673716028276e-02       6.226705638593e+03 
       1.000946150830e-01       5.859932509375e+03 
       1.035447986537e-01       5.545238380998e+03 
       1.070931966762e-01       5.283118393672e+03 
       1.107452594425e-01       5.069425836506e+03 
       1.145064249153e-01       4.895242488573e+03 
       1.183821370918e-01       4.747840406641e+03 
       1.223778605862e-01       4.611730500286e+03 
       1.264990921987e-01       4.470628256782e+03 
       1.307513701367e-01       4.310269918730e+03 
       1.351402814784e-01       4.121392153871e+03 
       1.396714684203e-01       3.902063130015e+03 
       1.443506338194e-01       3.658640690867e+03 
       1.491835465229e-01       3.404483262796e+03 
       1.541760469708e-01       3.156675956448e+03 
       1.593340535561e-01       2.931979836820e+03 
       1.646635702297e-01       2.742371788487e+03 
       1.701706958456e-01       2.592261669013e+03 
       1.758616357459e-01       2.477235358623e+03 
       1.817427160982e-01       2.385183604879e+03 
       1.878204015065e-01       2.300358515703e+03 
       1.941013164283e-01       2.205757694925e+03 
       2.005922709503e-01       2.090814485633e+03 
       2.073002914972e-01       1.956462750417e+03 
       2.142326570816e-01       1.814192810173e+03 
       2.213969417533e-01       1.679294151529e+03 
       2.288010639706e-01       1.563846704732e+03 
       2.364533437147e-01       1.472686630527e+03 
       2.443625682930e-01       1.401512948551e+03 
       2.525380679504e-01       1.338414979052e+03 
       2.609898026346e-01       1.270900378355e+03 
       2.697284615565e-01       1.193380776545e+03 
       2.787655775689e-01       1.109338759563e+03 
       2.881136588829e-01       1.028771319612e+03 
       2.977863412677e-01       9.604830785009e+02 
       3.077985646929e-01       9.050266872277e+02 
       3.181667794071e-01       8.561451839238e+02 
       3.289091877812e-01       8.061902251852e+02 
       3.400460299658e-01       7.523906608414e+02 
       3.515999236474e-01       6.989244428225e+02 
       3.635962711085e-01       6.510630739854e+02 
       3.760637506334e-01       6.101233846925e+02 
       3.890349143879e-01       5.721337395338e+02 
       4.025469216825e-01       5.337826037010e+02 
       4.166424456376e-01       4.956324259098e+02 
       4.313708035863e-01       4.604691580753e+02 
       4.467893782977e-01       4.287793433450e+02 
       4.629654199664e-01       3.987735340236e+02 
       4.799783501994e-01       3.692409206628e+02 
       4.979227319373e-01       3.412410182163e+02 
       5.169121270864e-01       3.154843269369e+02 
       5.370841404489e-01       2.908352750094e+02 
       5.586070464571e-01       2.671067778839e+02 
       5.816885094930e-01       2.448094189919e+02 
       6.065870144995e-01       2.235682340504e+02 
       6.336266468475e-01       2.032110164179e+02 
       6.632156059511e-01       1.838792730105e+02 
       6.958678639263e-01       1.653552058926e+02 
       7.322247985589e-01       1.476957020243e+02 
       7.730680195114e-01       1.308338569799e+02 
       8.193049553677e-01       1.148314651284e+02 
       8.718988016039e-01       9.976318570807e+01 
       9.317218031082e-01       8.577795095463e+01 
       9.993660908989e-01       7.305506132211e+01 
       1.075037110174e+00       6.173619231134e+01 
       1.158653485707e+00       5.187937056911e+01 
       1.250099157308e+00       4.344041570876e+01 
       1.349432401273e+00       3.628976374432e+01 
       1.456947457397e+00       3.026809501490e+01 
       1.573135111331e+00       2.521468788271e+01 
       1.698621895592e+00       2.098218961690e+01 
       1.834127512934e+00       1.744245612111e+01 
       1.980444934528e+00       1.448579605227e+01 
       2.138435191726e+00       1.201902423052e+01 
       2.309029199186e+00       9.963254175865e+00 
       2.493232377687e+00       8.251924659322e+00 
       2.692130395285e+00       6.828630763621e+00 
       2.906895534573e+00       5.646313456241e+00 
       3.138793597714e+00       4.664926761228e+00 
       3.389191366484e+00       3.851137543485e+00 
       3.659564657905e+00       3.176955215743e+00 
       3.951507022538e+00       2.618901242555e+00 
       4.266739136701e+00       2.157371902268e+00 
       4.607118943941e+00       1.775947542186e+00 
       4.974652605557e+00       1.461009862353e+00 
       5.371506324689e+00       1.201145741021e+00 
       5.800019113685e+00       9.868858779142e-01 
       6.262716579983e+00       8.103590627813e-01 
       6.762325811764e+00       6.650126921398e-01 
       7.301791451110e+00       5.454300543034e-01 
       7.884293049406e+00       4.471009740370e-01 
       8.513263807261e+00       3.662974510979e-01 
       9.192410809424e+00       2.999430362397e-01 
       9.925736873929e+00       2.454834203748e-01 
       1.071756414427e+01       2.008091405084e-01 
       1.157255956364e+01       1.641848499554e-01 
       1.249576238137e+01       1.341775586279e-01 
       1.349261385375e+01       1.096035350215e-01 
       1.456898931416e+01       8.948974581902e-02 
       1.573123280165e+01       7.303442073287e-02 
       1.698619445202e+01       5.957834724131e-02 
       1.834127087176e+01       4.858140727627e-02 
       1.980444873285e+01       3.959691556856e-02 
       2.138435184532e+01       3.226130736198e-02 
       2.309029198506e+01       2.627341547491e-02 
       2.493232377636e+01       2.138845526085e-02 
       2.692130395282e+01       1.740472188281e-02 
       2.906895534573e+01       1.415752144755e-02 
       3.138793597714e+01       1.151131998125e-02 
       3.389191366484e+01       9.356067200371e-03 
       3.659564657905e+01       7.601295051753e-03 
       3.951507022538e+01       6.173090950745e-03 
       4.266739136701e+01       5.011187565813e-03 
       4.607118943941e+01       4.066237715579e-03 
       4.974652605557e+01       3.298040150697e-03 
       5.371506324689e+01       2.673739504919e-03 
       5.800019113685e+01       2.166576886869e-03 
       6.262716579983e+01       1.754775703993e-03 
       6.762325811764e+01       1.420470820930e-03 
