# Matter power spectrum P(k) at redshift z=99
# for k=1.04775e-05 to 134.926 h/Mpc,
# number of wavenumbers equal to 255
#    1:k (h/Mpc)              2:P (Mpc/h)^3        
       1.047750691338e-05       7.261927095217e-03 
       1.131335172818e-05       7.820332150682e-03 
       1.221587619877e-05       8.421675382251e-03 
       1.319039970550e-05       9.069257737918e-03 
       1.424266598317e-05       9.766636451034e-03 
       1.537887697396e-05       1.051763973631e-02 
       1.660572938097e-05       1.132639250741e-02 
       1.793045413791e-05       1.219733201497e-02 
       1.936085902737e-05       1.313524187191e-02 
       2.090537469909e-05       1.414527084965e-02 
       2.257310435923e-05       1.523296544479e-02 
       2.437387742372e-05       1.640429654627e-02 
       2.631830745176e-05       1.766569603272e-02 
       2.841785470091e-05       1.902408711147e-02 
       3.068489367268e-05       2.048692967428e-02 
       3.313278604643e-05       2.206225467531e-02 
       3.577595943165e-05       2.375870883834e-02 
       3.862999240274e-05       2.558560669803e-02 
       4.171170631739e-05       2.755297672487e-02 
       4.503926445983e-05       2.967161933391e-02 
       4.863227909323e-05       3.195316455632e-02 
       5.251192705226e-05       3.441013466109e-02 
       5.670107455699e-05       3.705601741675e-02 
       6.122441198393e-05       3.990533412806e-02 
       6.610859938837e-05       4.297372242499e-02 
       7.138242363583e-05       4.627802054816e-02 
       7.707696806873e-05       4.983636159850e-02 
       8.322579570814e-05       5.366826786893e-02 
       8.986514707061e-05       5.779476319690e-02 
       9.703415376577e-05       6.223848221790e-02 
       1.047750691338e-04       6.702379824972e-02 
       1.131335172818e-04       7.217695031027e-02 
       1.221587619877e-04       7.772619030305e-02 
       1.319039970550e-04       8.370193379980e-02 
       1.424266598317e-04       9.013692506603e-02 
       1.537887697396e-04       9.706641130331e-02 
       1.660572938097e-04       1.045283343104e-01 
       1.793045413791e-04       1.125635329178e-01 
       1.936085902737e-04       1.212159592301e-01 
       2.090537469909e-04       1.305329107427e-01 
       2.257310435923e-04       1.405652819352e-01 
       2.437387742372e-04       1.513678275067e-01 
       2.631830745176e-04       1.629994475124e-01 
       2.841785470091e-04       1.755234890469e-01 
       3.068489367268e-04       1.890080645289e-01 
       3.313278604643e-04       2.035263977421e-01 
       3.577595943165e-04       2.191571778034e-01 
       3.862999240274e-04       2.359849423249e-01 
       4.171170631739e-04       2.541004712991e-01 
       4.503926445983e-04       2.736012061148e-01 
       4.863227909323e-04       2.945916774631e-01 
       5.251192705226e-04       3.171839507852e-01 
       5.670107455699e-04       3.414980769096e-01 
       6.122441198393e-04       3.676625416288e-01 
       6.610859938837e-04       3.958147272852e-01 
       7.138242363583e-04       4.261013332051e-01 
       7.707696806873e-04       4.586787880836e-01 
       8.322579570814e-04       4.937136112808e-01 
       8.986514707061e-04       5.313826962064e-01 
       9.703415376577e-04       5.718735176792e-01 
       1.047750691338e-03       6.153841926239e-01 
       1.131335172818e-03       6.621233623113e-01 
       1.221587619877e-03       7.123098743646e-01 
       1.319039970550e-03       7.661721263782e-01 
       1.424266598317e-03       8.239547181300e-01 
       1.537887697396e-03       8.859012282819e-01 
       1.660572938097e-03       9.522589495760e-01 
       1.793045413791e-03       1.023280284738e+00 
       1.936085902737e-03       1.099216542130e+00 
       2.090537469909e-03       1.180313285064e+00 
       2.257310435923e-03       1.266804486840e+00 
       2.437387742372e-03       1.358905328500e+00 
       2.631830745176e-03       1.456803285993e+00 
       2.841785470091e-03       1.560647663087e+00 
       3.068489367268e-03       1.670537010636e+00 
       3.313278604643e-03       1.786505039708e+00 
       3.577595943165e-03       1.908504410200e+00 
       3.862999240274e-03       2.036389468855e+00 
       4.171170631739e-03       2.169898252916e+00 
       4.503926445983e-03       2.308634492103e+00 
       4.863227909323e-03       2.452050674933e+00 
       5.251192705226e-03       2.599434681319e+00 
       5.670107455699e-03       2.749901126685e+00 
       6.122441198393e-03       2.902390058592e+00 
       6.610859938837e-03       3.055671270149e+00 
       7.138242363583e-03       3.208360123241e+00 
       7.707696806873e-03       3.358926651855e+00 
       8.322579570814e-03       3.505726890496e+00 
       8.986514707061e-03       3.647012438670e+00 
       9.703415376577e-03       3.780926180423e+00 
       1.047750691338e-02       3.905492882113e+00 
       1.131335172818e-02       4.018589827926e+00 
       1.221587619877e-02       4.117902891262e+00 
       1.319039970550e-02       4.200917703614e+00 
       1.424266598317e-02       4.264943743175e+00 
       1.537887697392e-02       4.307219675158e+00 
       1.660572938023e-02       4.325062407817e+00 
       1.793045412706e-02       4.316060365244e+00 
       1.936085890181e-02       4.278228825232e+00 
       2.090537352463e-02       4.210204486004e+00 
       2.257309535333e-02       4.111418763081e+00 
       2.437382002918e-02       3.982420952898e+00 
       2.631799944462e-02       3.825168702923e+00 
       2.841644545389e-02       3.643282264424e+00 
       3.067933355377e-02       3.442198724719e+00 
       3.311368470740e-02       3.229241619520e+00 
       3.571840443502e-02       3.013516356600e+00 
       3.847720348444e-02       2.805283968692e+00 
       4.135335538431e-02       2.614410696231e+00 
       4.429361667738e-02       2.448132217897e+00 
       4.724366439141e-02       2.309240688591e+00 
       5.016480835311e-02       2.196115242129e+00 
       5.303989620246e-02       2.104369914074e+00 
       5.586870669566e-02       2.028462656582e+00 
       5.866042680613e-02       1.963155383676e+00 
       6.142798932958e-02       1.903779790143e+00 
       6.418496440164e-02       1.846479298027e+00 
       6.694418833788e-02       1.788197570891e+00 
       6.971731106057e-02       1.726715775211e+00 
       7.251476155766e-02       1.660654483780e+00 
       7.534587671527e-02       1.589469942774e+00 
       7.821907666265e-02       1.513436657562e+00 
       8.114203772912e-02       1.433568837022e+00 
       8.412184535029e-02       1.351492322667e+00 
       8.716512279304e-02       1.269273783575e+00 
       9.027813695930e-02       1.189193201664e+00 
       9.346688431697e-02       1.113501119648e+00 
       9.673716028276e-02       1.044174434712e+00 
       1.000946150830e-01       9.827059349347e-01 
       1.035447986537e-01       9.299368672191e-01 
       1.070931966762e-01       8.859583634916e-01 
       1.107452594425e-01       8.500708923228e-01 
       1.145064249153e-01       8.208030696467e-01 
       1.183821370918e-01       7.960237129814e-01 
       1.223778605862e-01       7.731449872673e-01 
       1.264990921987e-01       7.494512422672e-01 
       1.307513701367e-01       7.225562166483e-01 
       1.351402814784e-01       6.909074952533e-01 
       1.396714684203e-01       6.541797058870e-01 
       1.443506338194e-01       6.134252115408e-01 
       1.491835465229e-01       5.708663309658e-01 
       1.541760469708e-01       5.293628497652e-01 
       1.593340535561e-01       4.917091561046e-01 
       1.646635702297e-01       4.599181102779e-01 
       1.701706958456e-01       4.347258863876e-01 
       1.758616357459e-01       4.154061119414e-01 
       1.817427160982e-01       3.999347049746e-01 
       1.878204015065e-01       3.856801736349e-01 
       1.941013164283e-01       3.698066535318e-01 
       2.005922709503e-01       3.505435451995e-01 
       2.073002914972e-01       3.280399674046e-01 
       2.142326570816e-01       3.042105204058e-01 
       2.213969417533e-01       2.816084370131e-01 
       2.288010639706e-01       2.622532375237e-01 
       2.364533437147e-01       2.469580262382e-01 
       2.443625682930e-01       2.350086542850e-01 
       2.525380679504e-01       2.244132817880e-01 
       2.609898026346e-01       2.130889456576e-01 
       2.697284615565e-01       2.000965974476e-01 
       2.787655775689e-01       1.860145409118e-01 
       2.881136588829e-01       1.725115313071e-01 
       2.977863412677e-01       1.610594379762e-01 
       3.077985646929e-01       1.517545880818e-01 
       3.181667794071e-01       1.435526008346e-01 
       3.289091877812e-01       1.351743738592e-01 
       3.400460299658e-01       1.261568478994e-01 
       3.515999236474e-01       1.171940055403e-01 
       3.635962711085e-01       1.091686008266e-01 
       3.760637506334e-01       1.023006483717e-01 
       3.890349143879e-01       9.592834999934e-02 
       4.025469216825e-01       8.949775374109e-02 
       4.166424456376e-01       8.310137137494e-02 
       4.313708035863e-01       7.720461008543e-02 
       4.467893782977e-01       7.188904126550e-02 
       4.629654199664e-01       6.685662434951e-02 
       4.799783501994e-01       6.190456926667e-02 
       4.979227319373e-01       5.720873612978e-02 
       5.169121270864e-01       5.288861711622e-02 
       5.370841404489e-01       4.875466305763e-02 
       5.586070464571e-01       4.477488485383e-02 
       5.816885094930e-01       4.103499260014e-02 
       6.065870144995e-01       3.747200089810e-02 
       6.336266468475e-01       3.405723127957e-02 
       6.632156059511e-01       3.081430965878e-02 
       6.958678639263e-01       2.770666421117e-02 
       7.322247985589e-01       2.474385337946e-02 
       7.730680195114e-01       2.191461266060e-02 
       8.193049553677e-01       1.922916528850e-02 
       8.718988016039e-01       1.670007413780e-02 
       9.317218031082e-01       1.435232620828e-02 
       9.993660908989e-01       1.221577162257e-02 
       1.075037110174e+00       1.031439491729e-02 
       1.158653485707e+00       8.657791554561e-03 
       1.250099157308e+00       7.238617122999e-03 
       1.349432401273e+00       6.035124604045e-03 
       1.456947457397e+00       5.020670808628e-03 
       1.573135111331e+00       4.168273008354e-03 
       1.698621895592e+00       3.453213013189e-03 
       1.834127512934e+00       2.854048555394e-03 
       1.980444934528e+00       2.352364992834e-03 
       2.138435191726e+00       1.932611193919e-03 
       2.309029199186e+00       1.581585374126e-03 
       2.493232377687e+00       1.288206848629e-03 
       2.692130395285e+00       1.043138810299e-03 
       2.906895534573e+00       8.385622072385e-04 
       3.138793597714e+00       6.679523523959e-04 
       3.389191366484e+00       5.259040806149e-04 
       3.659564657905e+00       4.079572749423e-04 
       3.951507022538e+00       3.104520459067e-04 
       4.266739136701e+00       2.304064202188e-04 
       4.607118943941e+00       1.654099429515e-04 
       4.974652605557e+00       1.135025677658e-04 
       5.371506324689e+00       7.311832818931e-05 
       5.800019113685e+00       4.290155027865e-05 
       6.262716579983e+00       2.167339928815e-05 
       6.762325811764e+00       8.284283426948e-06 
       7.301791451110e+00       1.529468294645e-06 
       7.884293049406e+00       6.006262496723e-08 
       8.513263807261e+00       2.351729460157e-06 
       9.192410809424e+00       6.736391879611e-06 
       9.925736873929e+00       1.153065708448e-05 
       1.071756414427e+01       1.517377867065e-05 
       1.157255956364e+01       1.660383584215e-05 
       1.249576238137e+01       1.537215459252e-05 
       1.349261385375e+01       1.196228201242e-05 
       1.456898931416e+01       7.448829057165e-06 
       1.573123280165e+01       3.288625625232e-06 
       1.698619445202e+01       6.738499026330e-07 
       1.834127087176e+01       1.269201908340e-08 
       1.980444873285e+01       7.203387802448e-07 
       2.138435184532e+01       1.660863168135e-06 
       2.309029198506e+01       1.853824862672e-06 
       2.493232377636e+01       1.248963176615e-06 
       2.692130395282e+01       4.034801647540e-07 
       2.906895534573e+01       1.071874519993e-08 
       3.138793597714e+01       1.064375483095e-07 
       3.389191366484e+01       2.518287789108e-07 
       3.659564657905e+01       1.752124526183e-07 
       3.951507022538e+01       2.918662907623e-08 
       4.266739136701e+01       5.998738076437e-09 
       4.607118943941e+01       3.642659385185e-08 
       4.974652605557e+01       1.653220829309e-08 
       5.371506324689e+01       1.481558485285e-10 
       5.800019113685e+01       4.157113600140e-09 
       6.262716579983e+01       3.052674391352e-09 
       6.762325811764e+01       9.761805121163e-11 
       7.301791451110e+01       1.309575680931e-09 
       7.884293049406e+01       9.376562465583e-11 
       8.513263807261e+01       6.703206041472e-12 
       9.192410809424e+01       3.039431303207e-10 
       9.925736873929e+01       5.233420324165e-11 
       1.071756414427e+02       4.726448244626e-12 
       1.157255956364e+02       4.652213148650e-12 
       1.249576238137e+02       6.451409664937e-10 
       1.349261385375e+02       1.011321423082e-10 
