# Matter power spectrum P(k) at redshift z=0
# for k=1.04775e-05 to 67.6233 h/Mpc,
# number of wavenumbers equal to 246
#    1:k (h/Mpc)              2:P (Mpc/h)^3        
       1.047750691338e-05       5.020964806751e+01 
       1.131335172818e-05       5.407048206554e+01 
       1.221587619877e-05       5.822819063890e+01 
       1.319039970550e-05       6.270562589674e+01 
       1.424266598317e-05       6.752731788102e+01 
       1.537887697396e-05       7.271977200258e+01 
       1.660572938097e-05       7.831147241541e+01 
       1.793045413791e-05       8.433311815128e+01 
       1.936085902737e-05       9.081778242446e+01 
       2.090537469909e-05       9.780108061342e+01 
       2.257310435923e-05       1.053213197032e+02 
       2.437387742372e-05       1.134197377001e+02 
       2.631830745176e-05       1.221408202816e+02 
       2.841785470091e-05       1.315324720916e+02 
       3.068489367268e-05       1.416462093730e+02 
       3.313278604643e-05       1.525374500691e+02 
       3.577595943165e-05       1.642660687078e+02 
       3.862999240274e-05       1.768963504868e+02 
       4.171170631739e-05       1.904975992460e+02 
       4.503926445983e-05       2.051444490305e+02 
       4.863227909323e-05       2.209171463752e+02 
       5.251192705226e-05       2.379022222314e+02 
       5.670107455699e-05       2.561927925427e+02 
       6.122441198393e-05       2.758890441790e+02 
       6.610859938837e-05       2.970989225466e+02 
       7.138242363583e-05       3.199385558200e+02 
       7.707696806873e-05       3.445329780878e+02 
       8.322579570814e-05       3.710167315928e+02 
       8.986514707061e-05       3.995346440954e+02 
       9.703415376577e-05       4.302425403884e+02 
       1.047750691338e-04       4.633080762974e+02 
       1.131335172818e-04       4.989116267507e+02 
       1.221587619877e-04       5.372471946561e+02 
       1.319039970550e-04       5.785234124628e+02 
       1.424266598317e-04       6.229645930980e+02 
       1.537887697396e-04       6.708118484951e+02 
       1.660572938097e-04       7.223242660220e+02 
       1.793045413791e-04       7.777801553517e+02 
       1.936085902737e-04       8.374783607333e+02 
       2.090537469909e-04       9.017396264495e+02 
       2.257310435923e-04       9.709080260152e+02 
       2.437387742372e-04       1.045352448644e+03 
       2.631830745176e-04       1.125468122836e+03 
       2.841785470091e-04       1.211678179511e+03 
       3.068489367268e-04       1.304435249091e+03 
       3.313278604643e-04       1.404223052541e+03 
       3.577595943165e-04       1.511558013390e+03 
       3.862999240274e-04       1.626990836477e+03 
       4.171170631739e-04       1.751108027371e+03 
       4.503926445983e-04       1.884533381345e+03 
       4.863227909323e-04       2.027929376471e+03 
       5.251192705226e-04       2.181998446367e+03 
       5.670107455699e-04       2.347484100857e+03 
       6.122441198393e-04       2.525171869336e+03 
       6.610859938837e-04       2.715889981401e+03 
       7.138242363583e-04       2.920509686089e+03 
       7.707696806873e-04       3.139945097711e+03 
       8.322579570814e-04       3.375152334397e+03 
       8.986514707061e-04       3.627127828231e+03 
       9.703415376577e-04       3.896905450016e+03 
       1.047750691338e-03       4.185552170959e+03 
       1.131335172818e-03       4.494162426791e+03 
       1.221587619877e-03       4.823850702667e+03 
       1.319039970550e-03       5.175742735242e+03 
       1.424266598317e-03       5.551019592528e+03 
       1.537887697396e-03       5.950788335876e+03 
       1.660572938097e-03       6.376123046803e+03 
       1.793045413791e-03       6.828073896115e+03 
       1.936085902737e-03       7.307625375387e+03 
       2.090537469909e-03       7.815671897402e+03 
       2.257310435923e-03       8.352990369398e+03 
       2.437387742372e-03       8.920211057528e+03 
       2.631830745176e-03       9.517783061889e+03 
       2.841785470091e-03       1.014593703671e+04 
       3.068489367268e-03       1.080464505738e+04 
       3.313278604643e-03       1.149357459544e+04 
       3.577595943165e-03       1.221203620826e+04 
       3.862999240274e-03       1.295892538505e+04 
       4.171170631739e-03       1.373266002077e+04 
       4.503926445983e-03       1.453111834595e+04 
       4.863227909323e-03       1.535154984212e+04 
       5.251192705226e-03       1.619063613348e+04 
       5.670107455699e-03       1.704431256578e+04 
       6.122441198393e-03       1.790755938507e+04 
       6.610859938837e-03       1.877460424586e+04 
       7.138242363583e-03       1.963872429260e+04 
       7.707696806873e-03       2.049215713730e+04 
       8.322579570814e-03       2.132607231134e+04 
       8.986514707061e-03       2.213055077124e+04 
       9.703415376577e-03       2.289445471447e+04 
       1.047750691338e-02       2.360549270247e+04 
       1.131335172818e-02       2.425022855454e+04 
       1.221587619877e-02       2.481423923492e+04 
       1.319039970550e-02       2.528218788354e+04 
       1.424266598317e-02       2.563814406182e+04 
       1.537887697392e-02       2.586608003533e+04 
       1.660572938023e-02       2.595027960575e+04 
       1.793045412706e-02       2.587635620931e+04 
       1.936085890181e-02       2.563220414848e+04 
       2.090537352463e-02       2.520935496315e+04 
       2.257309535333e-02       2.460447487140e+04 
       2.437382002918e-02       2.382089000549e+04 
       2.631799944462e-02       2.287043354537e+04 
       2.841644545389e-02       2.177449037089e+04 
       3.067933355377e-02       2.056555832805e+04 
       3.311368470740e-02       1.928724733900e+04 
       3.571840443502e-02       1.799401809331e+04 
       3.847720348444e-02       1.674685826768e+04 
       4.135335538431e-02       1.560471046558e+04 
       4.429361667738e-02       1.461037840911e+04 
       4.724366439141e-02       1.378055554654e+04 
       5.016480835311e-02       1.310510656546e+04 
       5.303989620246e-02       1.255716029808e+04 
       5.586870669566e-02       1.210424527042e+04 
       5.866042680613e-02       1.171466469000e+04 
       6.142798932958e-02       1.136045541189e+04 
       6.418496440164e-02       1.101855030355e+04 
       6.694418833788e-02       1.067070462005e+04 
       6.971731106057e-02       1.030354478070e+04 
       7.251476155766e-02       9.908991107171e+03 
       7.534587671527e-02       9.483732504489e+03 
       7.821907666265e-02       9.029494710671e+03 
       8.114203772912e-02       8.552310215528e+03 
       8.412184535029e-02       8.061942638124e+03 
       8.716512279304e-02       7.570758847251e+03 
       9.027813695930e-02       7.092456795000e+03 
       9.346688431697e-02       6.640478663417e+03 
       9.673716028276e-02       6.226694671524e+03 
       1.000946150830e-01       5.859939220660e+03 
       1.035447986537e-01       5.545251072055e+03 
       1.070931966762e-01       5.283121016012e+03 
       1.107452594425e-01       5.069436075587e+03 
       1.145064249153e-01       4.895232023830e+03 
       1.183821370918e-01       4.747834900429e+03 
       1.223778605862e-01       4.611725180515e+03 
       1.264990921987e-01       4.470622903771e+03 
       1.307513701367e-01       4.310265005152e+03 
       1.351402814784e-01       4.121377840587e+03 
       1.396714684203e-01       3.902067908113e+03 
       1.443506338194e-01       3.658649630738e+03 
       1.491835465229e-01       3.404481400433e+03 
       1.541760469708e-01       3.156668743783e+03 
       1.593340535561e-01       2.931981222924e+03 
       1.646635702297e-01       2.742374586186e+03 
       1.701706958456e-01       2.592267253854e+03 
       1.758616357459e-01       2.477238421904e+03 
       1.817427160982e-01       2.385184198537e+03 
       1.878204015065e-01       2.300360549924e+03 
       1.941013164283e-01       2.205763225255e+03 
       2.005922709503e-01       2.090812938714e+03 
       2.073002914972e-01       1.956466114431e+03 
       2.142326570816e-01       1.814189785029e+03 
       2.213969417533e-01       1.679292880480e+03 
       2.288010639706e-01       1.563847795985e+03 
       2.364533437147e-01       1.472684114622e+03 
       2.443625682930e-01       1.401511920403e+03 
       2.525380679504e-01       1.338415744040e+03 
       2.609898026346e-01       1.270901617565e+03 
       2.697284615565e-01       1.193380782146e+03 
       2.787655775689e-01       1.109339631642e+03 
       2.881136588829e-01       1.028770014464e+03 
       2.977863412677e-01       9.604790881065e+02 
       3.077985646929e-01       9.050220568016e+02 
       3.181667794071e-01       8.561416141585e+02 
       3.289091877812e-01       8.061844596315e+02 
       3.400460299658e-01       7.523863696268e+02 
       3.515999236474e-01       6.989213747489e+02 
       3.635962711085e-01       6.510591859707e+02 
       3.760637506334e-01       6.101169437303e+02 
       3.890349143879e-01       5.721268661327e+02 
       4.025469216825e-01       5.337752398516e+02 
       4.166424456376e-01       4.956274108338e+02 
       4.313708035863e-01       4.604635467329e+02 
       4.467893782977e-01       4.287727805420e+02 
       4.629654199664e-01       3.987676197235e+02 
       4.799783501994e-01       3.692349990773e+02 
       4.979227319373e-01       3.412328584378e+02 
       5.169121270864e-01       3.154764032373e+02 
       5.370841404489e-01       2.908285960477e+02 
       5.586070464571e-01       2.670978940434e+02 
       5.816885094930e-01       2.448006700631e+02 
       6.065870144995e-01       2.235591470170e+02 
       6.336266468475e-01       2.032011623118e+02 
       6.632156059511e-01       1.838685503172e+02 
       6.958678639263e-01       1.653447466608e+02 
       7.322247985589e-01       1.476847055131e+02 
       7.730680195114e-01       1.308213906062e+02 
       8.193049553677e-01       1.148188149118e+02 
       8.718988016039e-01       9.974879559177e+01 
       9.317218031082e-01       8.576324949988e+01 
       9.993660908989e-01       7.303868244995e+01 
       1.075037110174e+00       6.171868781170e+01 
       1.158653485707e+00       5.186002579249e+01 
       1.250099157308e+00       4.341935024610e+01 
       1.349432401273e+00       3.626674399054e+01 
       1.456947457397e+00       3.024355693028e+01 
       1.573135111331e+00       2.518797330539e+01 
       1.698621895592e+00       2.095324472454e+01 
       1.834127512934e+00       1.741142676920e+01 
       1.980444934528e+00       1.445226533556e+01 
       2.138435191726e+00       1.198295721140e+01 
       2.309029199186e+00       9.924470637156e+00 
       2.493232377687e+00       8.210339435736e+00 
       2.692130395285e+00       6.784170560366e+00 
       2.906895534573e+00       5.598748308942e+00 
       3.138793597714e+00       4.614162945653e+00 
       3.389191366484e+00       3.797098660670e+00 
       3.659564657905e+00       3.119546013515e+00 
       3.951507022538e+00       2.558038002606e+00 
       4.266739136701e+00       2.092987014625e+00 
       4.607118943941e+00       1.708060587297e+00 
       4.974652605557e+00       1.389609886473e+00 
       5.371506324689e+00       1.126342553562e+00 
       5.800019113685e+00       9.088007195904e-01 
       6.262716579983e+00       7.291870746757e-01 
       6.762325811764e+00       5.810424242838e-01 
       7.301791451110e+00       4.590358539282e-01 
       7.884293049406e+00       3.587661264737e-01 
       8.513263807261e+00       2.766316158137e-01 
       9.192410809424e+00       2.096716903270e-01 
       9.925736873929e+00       1.554702426580e-01 
       1.071756414427e+01       1.120466691291e-01 
       1.157255956364e+01       7.777837576087e-02 
       1.249576238137e+01       5.131882184235e-02 
       1.349261385375e+01       3.152982751561e-02 
       1.456898931416e+01       1.741622652574e-02 
       1.573123280165e+01       8.075851687080e-03 
       1.698619445202e+01       2.650281893895e-03 
       1.834127087176e+01       2.942469111618e-04 
       1.980444873285e+01       1.611873427287e-04 
       2.138435184532e+01       1.413069033122e-03 
       2.309029198506e+01       3.255109823704e-03 
       2.493232377636e+01       4.993253994798e-03 
       2.692130395282e+01       6.107163473542e-03 
       2.906895534573e+01       6.314621986041e-03 
       3.138793597714e+01       5.609361048179e-03 
       3.389191366484e+01       4.241243052998e-03 
       3.659564657905e+01       2.629495864149e-03 
       3.951507022538e+01       1.218272337494e-03 
       4.266739136701e+01       3.194722751594e-04 
       4.607118943941e+01       4.821356683774e-06 
       4.974652605557e+01       1.054263603064e-04 
       5.371506324689e+01       3.283498870473e-04 
       5.800019113685e+01       4.304805005858e-04 
       6.262716579983e+01       3.428305825652e-04 
       6.762325811764e+01       1.629422825032e-04 
