# Matter power spectrum P(k) at redshift z=0
# for k=1.04775e-05 to 67.6233 h/Mpc,
# number of wavenumbers equal to 246
#    1:k (h/Mpc)              2:P (Mpc/h)^3        
       1.047750691338e-05       5.020964806750e+01 
       1.131335172818e-05       5.407048206553e+01 
       1.221587619877e-05       5.822819063791e+01 
       1.319039970550e-05       6.270562589681e+01 
       1.424266598317e-05       6.752731788102e+01 
       1.537887697396e-05       7.271977200258e+01 
       1.660572938097e-05       7.831147241542e+01 
       1.793045413791e-05       8.433311815128e+01 
       1.936085902737e-05       9.081778242446e+01 
       2.090537469909e-05       9.780108061339e+01 
       2.257310435923e-05       1.053213197032e+02 
       2.437387742372e-05       1.134197377001e+02 
       2.631830745176e-05       1.221408202816e+02 
       2.841785470091e-05       1.315324720916e+02 
       3.068489367268e-05       1.416462093729e+02 
       3.313278604643e-05       1.525374500691e+02 
       3.577595943165e-05       1.642660687078e+02 
       3.862999240274e-05       1.768963504868e+02 
       4.171170631739e-05       1.904975992460e+02 
       4.503926445983e-05       2.051444490305e+02 
       4.863227909323e-05       2.209171463752e+02 
       5.251192705226e-05       2.379022222314e+02 
       5.670107455699e-05       2.561927925427e+02 
       6.122441198393e-05       2.758890441791e+02 
       6.610859938837e-05       2.970989225465e+02 
       7.138242363583e-05       3.199385558200e+02 
       7.707696806873e-05       3.445329780878e+02 
       8.322579570814e-05       3.710167315928e+02 
       8.986514707061e-05       3.995346440954e+02 
       9.703415376577e-05       4.302425403884e+02 
       1.047750691338e-04       4.633080762974e+02 
       1.131335172818e-04       4.989116267507e+02 
       1.221587619877e-04       5.372471946561e+02 
       1.319039970550e-04       5.785234124633e+02 
       1.424266598317e-04       6.229645930980e+02 
       1.537887697396e-04       6.708118484951e+02 
       1.660572938097e-04       7.223242660220e+02 
       1.793045413791e-04       7.777801554238e+02 
       1.936085902737e-04       8.374783607333e+02 
       2.090537469909e-04       9.017396264495e+02 
       2.257310435923e-04       9.709080260152e+02 
       2.437387742372e-04       1.045352448644e+03 
       2.631830745176e-04       1.125468122835e+03 
       2.841785470091e-04       1.211678179511e+03 
       3.068489367268e-04       1.304435249091e+03 
       3.313278604643e-04       1.404223052541e+03 
       3.577595943165e-04       1.511558013390e+03 
       3.862999240274e-04       1.626990836477e+03 
       4.171170631739e-04       1.751108027370e+03 
       4.503926445983e-04       1.884533381345e+03 
       4.863227909323e-04       2.027929376471e+03 
       5.251192705226e-04       2.181998446368e+03 
       5.670107455699e-04       2.347484100857e+03 
       6.122441198393e-04       2.525171869337e+03 
       6.610859938837e-04       2.715889981400e+03 
       7.138242363583e-04       2.920509686083e+03 
       7.707696806873e-04       3.139945097710e+03 
       8.322579570814e-04       3.375152334393e+03 
       8.986514707061e-04       3.627127828231e+03 
       9.703415376577e-04       3.896905450016e+03 
       1.047750691338e-03       4.185552170959e+03 
       1.131335172818e-03       4.494162426791e+03 
       1.221587619877e-03       4.823850702663e+03 
       1.319039970550e-03       5.175742738678e+03 
       1.424266598317e-03       5.551019592526e+03 
       1.537887697396e-03       5.950788335877e+03 
       1.660572938097e-03       6.376123046805e+03 
       1.793045413791e-03       6.828073896124e+03 
       1.936085902737e-03       7.307625375386e+03 
       2.090537469909e-03       7.815671859878e+03 
       2.257310435923e-03       8.352990369401e+03 
       2.437387742372e-03       8.920211057530e+03 
       2.631830745176e-03       9.517783061890e+03 
       2.841785470091e-03       1.014593703671e+04 
       3.068489367268e-03       1.080464505732e+04 
       3.313278604643e-03       1.149357459439e+04 
       3.577595943165e-03       1.221203620826e+04 
       3.862999240274e-03       1.295892538505e+04 
       4.171170631739e-03       1.373266001086e+04 
       4.503926445983e-03       1.453111834595e+04 
       4.863227909323e-03       1.535154984225e+04 
       5.251192705226e-03       1.619063613424e+04 
       5.670107455699e-03       1.704431256572e+04 
       6.122441198393e-03       1.790755938463e+04 
       6.610859938837e-03       1.877460418799e+04 
       7.138242363583e-03       1.963872429119e+04 
       7.707696806873e-03       2.049215713588e+04 
       8.322579570814e-03       2.132606932701e+04 
       8.986514707061e-03       2.213055085248e+04 
       9.703415376577e-03       2.289445470875e+04 
       1.047750691338e-02       2.360548677779e+04 
       1.131335172818e-02       2.425023398302e+04 
       1.221587619877e-02       2.481423922612e+04 
       1.319039970550e-02       2.528218779740e+04 
       1.424266598317e-02       2.563814153287e+04 
       1.537887697392e-02       2.586608537551e+04 
       1.660572938023e-02       2.595027993857e+04 
       1.793045412706e-02       2.587635008959e+04 
       1.936085890181e-02       2.563219595092e+04 
       2.090537352463e-02       2.520934054761e+04 
       2.257309535333e-02       2.460448710128e+04 
       2.437382002918e-02       2.382088866954e+04 
       2.631799944462e-02       2.287042964773e+04 
       2.841644545389e-02       2.177453784857e+04 
       3.067933355377e-02       2.056555517891e+04 
       3.311368470740e-02       1.928726469801e+04 
       3.571840443502e-02       1.799396038807e+04 
       3.847720348444e-02       1.674683219180e+04 
       4.135335538431e-02       1.560460086299e+04 
       4.429361667738e-02       1.461036790625e+04 
       4.724366439141e-02       1.378054939786e+04 
       5.016480835311e-02       1.310506913870e+04 
       5.303989620246e-02       1.255716811746e+04 
       5.586870669566e-02       1.210424183098e+04 
       5.866042680613e-02       1.171466790009e+04 
       6.142798932958e-02       1.136046796256e+04 
       6.418496440164e-02       1.101857209048e+04 
       6.694418833788e-02       1.067069352509e+04 
       6.971731106057e-02       1.030358231016e+04 
       7.251476155766e-02       9.909006100549e+03 
       7.534587671527e-02       9.483781959108e+03 
       7.821907666265e-02       9.029486668817e+03 
       8.114203772912e-02       8.552354011508e+03 
       8.412184535029e-02       8.061913547309e+03 
       8.716512279304e-02       7.570787711951e+03 
       9.027813695930e-02       7.092490096090e+03 
       9.346688431697e-02       6.640522393843e+03 
       9.673716028276e-02       6.226691674773e+03 
       1.000946150830e-01       5.859915625305e+03 
       1.035447986537e-01       5.545256964658e+03 
       1.070931966762e-01       5.283134500047e+03 
       1.107452594425e-01       5.069408292687e+03 
       1.145064249153e-01       4.895258332487e+03 
       1.183821370918e-01       4.747852531908e+03 
       1.223778605862e-01       4.611737172485e+03 
       1.264990921987e-01       4.470612915413e+03 
       1.307513701367e-01       4.310252456411e+03 
       1.351402814784e-01       4.121379726285e+03 
       1.396714684203e-01       3.902055594531e+03 
       1.443506338194e-01       3.658663994377e+03 
       1.491835465229e-01       3.404486429790e+03 
       1.541760469708e-01       3.156666375778e+03 
       1.593340535561e-01       2.931979799611e+03 
       1.646635702297e-01       2.742363499872e+03 
       1.701706958456e-01       2.592258027006e+03 
       1.758616357459e-01       2.477242578204e+03 
       1.817427160982e-01       2.385181810700e+03 
       1.878204015065e-01       2.300361225049e+03 
       1.941013164283e-01       2.205759712603e+03 
       2.005922709503e-01       2.090812021022e+03 
       2.073002914972e-01       1.956466753000e+03 
       2.142326570816e-01       1.814194324376e+03 
       2.213969417533e-01       1.679297222214e+03 
       2.288010639706e-01       1.563846432182e+03 
       2.364533437147e-01       1.472687207687e+03 
       2.443625682930e-01       1.401515371727e+03 
       2.525380679504e-01       1.338416776374e+03 
       2.609898026346e-01       1.270904986758e+03 
       2.697284615565e-01       1.193381953252e+03 
       2.787655775689e-01       1.109340083048e+03 
       2.881136588829e-01       1.028773231437e+03 
       2.977863412677e-01       9.604811455142e+02 
       3.077985646929e-01       9.050216813592e+02 
       3.181667794071e-01       8.561433048085e+02 
       3.289091877812e-01       8.061872953976e+02 
       3.400460299658e-01       7.523959612686e+02 
       3.515999236474e-01       6.989240933235e+02 
       3.635962711085e-01       6.510637589056e+02 
       3.760637506334e-01       6.101238055430e+02 
       3.890349143879e-01       5.721312507181e+02 
       4.025469216825e-01       5.337824225187e+02 
       4.166424456376e-01       4.956339860418e+02 
       4.313708035863e-01       4.604689163601e+02 
       4.467893782977e-01       4.287768550206e+02 
       4.629654199664e-01       3.987727399929e+02 
       4.799783501994e-01       3.692418497687e+02 
       4.979227319373e-01       3.412407354442e+02 
       5.169121270864e-01       3.154837793647e+02 
       5.370841404489e-01       2.908360793760e+02 
       5.586070464571e-01       2.671065729188e+02 
       5.816885094930e-01       2.448088348193e+02 
       6.065870144995e-01       2.235679579748e+02 
       6.336266468475e-01       2.032100953002e+02 
       6.632156059511e-01       1.838791036491e+02 
       6.958678639263e-01       1.653545895092e+02 
       7.322247985589e-01       1.476954843007e+02 
       7.730680195114e-01       1.308333693384e+02 
       8.193049553677e-01       1.148307308061e+02 
       8.718988016039e-01       9.976238663599e+01 
       9.317218031082e-01       8.577829721145e+01 
       9.993660908989e-01       7.305505445809e+01 
       1.075037110174e+00       6.173609289517e+01 
       1.158653485707e+00       5.187903366586e+01 
       1.250099157308e+00       4.344010973472e+01 
       1.349432401273e+00       3.628930804645e+01 
       1.456947457397e+00       3.026788187168e+01 
       1.573135111331e+00       2.521463458465e+01 
       1.698621895592e+00       2.098204087761e+01 
       1.834127512934e+00       1.744231645091e+01 
       1.980444934528e+00       1.448565786773e+01 
       2.138435191726e+00       1.201893681979e+01 
       2.309029199186e+00       9.963153600562e+00 
       2.493232377687e+00       8.251804149551e+00 
       2.692130395285e+00       6.828579921559e+00 
       2.906895534573e+00       5.646201735323e+00 
       3.138793597714e+00       4.664828847554e+00 
       3.389191366484e+00       3.851067263471e+00 
       3.659564657905e+00       3.176866487867e+00 
       3.951507022538e+00       2.618800651153e+00 
       4.266739136701e+00       2.157266362419e+00 
       4.607118943941e+00       1.775842405447e+00 
       4.974652605557e+00       1.460902456314e+00 
       5.371506324689e+00       1.201024788332e+00 
       5.800019113685e+00       9.867646439088e-01 
       6.262716579983e+00       8.102258844903e-01 
       6.762325811764e+00       6.648716083088e-01 
       7.301791451110e+00       5.452794929625e-01 
       7.884293049406e+00       4.469405511915e-01 
       8.513263807261e+00       3.661263567628e-01 
       9.192410809424e+00       2.997589957338e-01 
       9.925736873929e+00       2.452853376086e-01 
       1.071756414427e+01       2.005988876435e-01 
       1.157255956364e+01       1.639595477233e-01 
       1.249576238137e+01       1.339392671588e-01 
       1.349261385375e+01       1.093500963062e-01 
       1.456898931416e+01       8.921996139775e-02 
       1.573123280165e+01       7.274789427749e-02 
       1.698619445202e+01       5.927574836758e-02 
       1.834127087176e+01       4.826104234607e-02 
       1.980444873285e+01       3.925891866455e-02 
       2.138435184532e+01       3.190433685005e-02 
       2.309029198506e+01       2.589785958863e-02 
       2.493232377636e+01       2.099354664661e-02 
       2.692130395282e+01       1.699048057569e-02 
       2.906895534573e+01       1.372395565178e-02 
       3.138793597714e+01       1.105870104166e-02 
       3.389191366484e+01       8.884981064093e-03 
       3.659564657905e+01       7.112537292203e-03 
       3.951507022538e+01       5.667897185700e-03 
       4.266739136701e+01       4.491004469612e-03 
       4.607118943941e+01       3.533500288727e-03 
       4.974652605557e+01       2.755255484452e-03 
       5.371506324689e+01       2.124321890773e-03 
       5.800019113685e+01       1.614579743420e-03 
       6.262716579983e+01       1.204937845682e-03 
       6.762325811764e+01       8.782364022147e-04 
