# Matter power spectrum P(k) at redshift z=0
# for k=1.04775e-05 to 67.6233 h/Mpc,
# number of wavenumbers equal to 246
#    1:k (h/Mpc)              2:P (Mpc/h)^3        
       1.047750691338e-05       5.020964806749e+01 
       1.131335172818e-05       5.407048206554e+01 
       1.221587619877e-05       5.822819063816e+01 
       1.319039970550e-05       6.270562589679e+01 
       1.424266598317e-05       6.752731788102e+01 
       1.537887697396e-05       7.271977200258e+01 
       1.660572938097e-05       7.831147241541e+01 
       1.793045413791e-05       8.433311815128e+01 
       1.936085902737e-05       9.081778242446e+01 
       2.090537469909e-05       9.780108061340e+01 
       2.257310435923e-05       1.053213197032e+02 
       2.437387742372e-05       1.134197377001e+02 
       2.631830745176e-05       1.221408202816e+02 
       2.841785470091e-05       1.315324720916e+02 
       3.068489367268e-05       1.416462093729e+02 
       3.313278604643e-05       1.525374500691e+02 
       3.577595943165e-05       1.642660687078e+02 
       3.862999240274e-05       1.768963504868e+02 
       4.171170631739e-05       1.904975992461e+02 
       4.503926445983e-05       2.051444490305e+02 
       4.863227909323e-05       2.209171463752e+02 
       5.251192705226e-05       2.379022222314e+02 
       5.670107455699e-05       2.561927925763e+02 
       6.122441198393e-05       2.758890441791e+02 
       6.610859938837e-05       2.970989225465e+02 
       7.138242363583e-05       3.199385558200e+02 
       7.707696806873e-05       3.445329780878e+02 
       8.322579570814e-05       3.710167315928e+02 
       8.986514707061e-05       3.995346440954e+02 
       9.703415376577e-05       4.302425403884e+02 
       1.047750691338e-04       4.633080762974e+02 
       1.131335172818e-04       4.989116267507e+02 
       1.221587619877e-04       5.372471946561e+02 
       1.319039970550e-04       5.785234124635e+02 
       1.424266598317e-04       6.229645930980e+02 
       1.537887697396e-04       6.708118484951e+02 
       1.660572938097e-04       7.223242660220e+02 
       1.793045413791e-04       7.777801556961e+02 
       1.936085902737e-04       8.374783607334e+02 
       2.090537469909e-04       9.017396264495e+02 
       2.257310435923e-04       9.709080260152e+02 
       2.437387742372e-04       1.045352448644e+03 
       2.631830745176e-04       1.125468122836e+03 
       2.841785470091e-04       1.211678179511e+03 
       3.068489367268e-04       1.304435249091e+03 
       3.313278604643e-04       1.404223052541e+03 
       3.577595943165e-04       1.511558013390e+03 
       3.862999240274e-04       1.626990836479e+03 
       4.171170631739e-04       1.751108027371e+03 
       4.503926445983e-04       1.884533381345e+03 
       4.863227909323e-04       2.027929376470e+03 
       5.251192705226e-04       2.181998446367e+03 
       5.670107455699e-04       2.347484100857e+03 
       6.122441198393e-04       2.525171869334e+03 
       6.610859938837e-04       2.715889981400e+03 
       7.138242363583e-04       2.920509686086e+03 
       7.707696806873e-04       3.139945097710e+03 
       8.322579570814e-04       3.375152334394e+03 
       8.986514707061e-04       3.627127828231e+03 
       9.703415376577e-04       3.896905450016e+03 
       1.047750691338e-03       4.185552170958e+03 
       1.131335172818e-03       4.494162426791e+03 
       1.221587619877e-03       4.823850702673e+03 
       1.319039970550e-03       5.175742734642e+03 
       1.424266598317e-03       5.551019592523e+03 
       1.537887697396e-03       5.950788335877e+03 
       1.660572938097e-03       6.376123046812e+03 
       1.793045413791e-03       6.828073896111e+03 
       1.936085902737e-03       7.307625375386e+03 
       2.090537469909e-03       7.815671859358e+03 
       2.257310435923e-03       8.352990369404e+03 
       2.437387742372e-03       8.920211057528e+03 
       2.631830745176e-03       9.517783061890e+03 
       2.841785470091e-03       1.014593703671e+04 
       3.068489367268e-03       1.080464505731e+04 
       3.313278604643e-03       1.149357459459e+04 
       3.577595943165e-03       1.221203620827e+04 
       3.862999240274e-03       1.295892538505e+04 
       4.171170631739e-03       1.373266000634e+04 
       4.503926445983e-03       1.453111834595e+04 
       4.863227909323e-03       1.535154984223e+04 
       5.251192705226e-03       1.619063613413e+04 
       5.670107455699e-03       1.704431256576e+04 
       6.122441198393e-03       1.790755938453e+04 
       6.610859938837e-03       1.877460414017e+04 
       7.138242363583e-03       1.963872429141e+04 
       7.707696806873e-03       2.049215713359e+04 
       8.322579570814e-03       2.132606952559e+04 
       8.986514707061e-03       2.213055132492e+04 
       9.703415376577e-03       2.289445470969e+04 
       1.047750691338e-02       2.360548732021e+04 
       1.131335172818e-02       2.425023447126e+04 
       1.221587619877e-02       2.481424191814e+04 
       1.319039970550e-02       2.528218645925e+04 
       1.424266598317e-02       2.563814149025e+04 
       1.537887697392e-02       2.586608269548e+04 
       1.660572938023e-02       2.595027593221e+04 
       1.793045412706e-02       2.587634788624e+04 
       1.936085890181e-02       2.563219500533e+04 
       2.090537352463e-02       2.520935725903e+04 
       2.257309535333e-02       2.460445894355e+04 
       2.437382002918e-02       2.382090878099e+04 
       2.631799944462e-02       2.287047556845e+04 
       2.841644545389e-02       2.177453351553e+04 
       3.067933355377e-02       2.056558776917e+04 
       3.311368470740e-02       1.928729980946e+04 
       3.571840443502e-02       1.799402043855e+04 
       3.847720348444e-02       1.674676469188e+04 
       4.135335538431e-02       1.560461515694e+04 
       4.429361667738e-02       1.461040483740e+04 
       4.724366439141e-02       1.378052233707e+04 
       5.016480835311e-02       1.310509520350e+04 
       5.303989620246e-02       1.255715811690e+04 
       5.586870669566e-02       1.210426956466e+04 
       5.866042680613e-02       1.171467453029e+04 
       6.142798932958e-02       1.136044787559e+04 
       6.418496440164e-02       1.101855683766e+04 
       6.694418833788e-02       1.067067459692e+04 
       6.971731106057e-02       1.030357006271e+04 
       7.251476155766e-02       9.909014730858e+03 
       7.534587671527e-02       9.483754374877e+03 
       7.821907666265e-02       9.029513665275e+03 
       8.114203772912e-02       8.552338720141e+03 
       8.412184535029e-02       8.061906845558e+03 
       8.716512279304e-02       7.570783374847e+03 
       9.027813695930e-02       7.092473890561e+03 
       9.346688431697e-02       6.640517814112e+03 
       9.673716028276e-02       6.226712089158e+03 
       1.000946150830e-01       5.859955918170e+03 
       1.035447986537e-01       5.545245352210e+03 
       1.070931966762e-01       5.283137795193e+03 
       1.107452594425e-01       5.069424881739e+03 
       1.145064249153e-01       4.895248595293e+03 
       1.183821370918e-01       4.747830738218e+03 
       1.223778605862e-01       4.611757005732e+03 
       1.264990921987e-01       4.470635295396e+03 
       1.307513701367e-01       4.310256642480e+03 
       1.351402814784e-01       4.121374041247e+03 
       1.396714684203e-01       3.902052518724e+03 
       1.443506338194e-01       3.658659049465e+03 
       1.491835465229e-01       3.404481384345e+03 
       1.541760469708e-01       3.156669235869e+03 
       1.593340535561e-01       2.931970246758e+03 
       1.646635702297e-01       2.742374317752e+03 
       1.701706958456e-01       2.592262205194e+03 
       1.758616357459e-01       2.477240436665e+03 
       1.817427160982e-01       2.385188155333e+03 
       1.878204015065e-01       2.300364630210e+03 
       1.941013164283e-01       2.205761820234e+03 
       2.005922709503e-01       2.090822612899e+03 
       2.073002914972e-01       1.956467420393e+03 
       2.142326570816e-01       1.814192357688e+03 
       2.213969417533e-01       1.679301412801e+03 
       2.288010639706e-01       1.563849292974e+03 
       2.364533437147e-01       1.472684864399e+03 
       2.443625682930e-01       1.401512808310e+03 
       2.525380679504e-01       1.338415897946e+03 
       2.609898026346e-01       1.270898452919e+03 
       2.697284615565e-01       1.193385125427e+03 
       2.787655775689e-01       1.109345121673e+03 
       2.881136588829e-01       1.028769512672e+03 
       2.977863412677e-01       9.604834876968e+02 
       3.077985646929e-01       9.050217271126e+02 
       3.181667794071e-01       8.561412185886e+02 
       3.289091877812e-01       8.061877116263e+02 
       3.400460299658e-01       7.523913776413e+02 
       3.515999236474e-01       6.989227645562e+02 
       3.635962711085e-01       6.510643535038e+02 
       3.760637506334e-01       6.101219273238e+02 
       3.890349143879e-01       5.721318822753e+02 
       4.025469216825e-01       5.337814725485e+02 
       4.166424456376e-01       4.956315316961e+02 
       4.313708035863e-01       4.604680977214e+02 
       4.467893782977e-01       4.287766640322e+02 
       4.629654199664e-01       3.987727141485e+02 
       4.799783501994e-01       3.692427200113e+02 
       4.979227319373e-01       3.412399027258e+02 
       5.169121270864e-01       3.154842134398e+02 
       5.370841404489e-01       2.908353717580e+02 
       5.586070464571e-01       2.671065291106e+02 
       5.816885094930e-01       2.448087035843e+02 
       6.065870144995e-01       2.235675365620e+02 
       6.336266468475e-01       2.032101424267e+02 
       6.632156059511e-01       1.838785224197e+02 
       6.958678639263e-01       1.653537456046e+02 
       7.322247985589e-01       1.476953817643e+02 
       7.730680195114e-01       1.308337539790e+02 
       8.193049553677e-01       1.148308546441e+02 
       8.718988016039e-01       9.976286268504e+01 
       9.317218031082e-01       8.577819937131e+01 
       9.993660908989e-01       7.305500904428e+01 
       1.075037110174e+00       6.173604583840e+01 
       1.158653485707e+00       5.187936139181e+01 
       1.250099157308e+00       4.344015500432e+01 
       1.349432401273e+00       3.628947921054e+01 
       1.456947457397e+00       3.026792543070e+01 
       1.573135111331e+00       2.521424947494e+01 
       1.698621895592e+00       2.098178079646e+01 
       1.834127512934e+00       1.744218432304e+01 
       1.980444934528e+00       1.448542800393e+01 
       2.138435191726e+00       1.201861947137e+01 
       2.309029199186e+00       9.962819135105e+00 
       2.493232377687e+00       8.251418581848e+00 
       2.692130395285e+00       6.828180539451e+00 
       2.906895534573e+00       5.645790149889e+00 
       3.138793597714e+00       4.664400823128e+00 
       3.389191366484e+00       3.850578946012e+00 
       3.659564657905e+00       3.176329242041e+00 
       3.951507022538e+00       2.618224540033e+00 
       4.266739136701e+00       2.156645276137e+00 
       4.607118943941e+00       1.775177358302e+00 
       4.974652605557e+00       1.460182461238e+00 
       5.371506324689e+00       1.200259184601e+00 
       5.800019113685e+00       9.859458092408e-01 
       6.262716579983e+00       8.093516571177e-01 
       6.762325811764e+00       6.639394171865e-01 
       7.301791451110e+00       5.442754588971e-01 
       7.884293049406e+00       4.458723278657e-01 
       8.513263807261e+00       3.649960278179e-01 
       9.192410809424e+00       2.985556697306e-01 
       9.925736873929e+00       2.440095306561e-01 
       1.071756414427e+01       1.992487783171e-01 
       1.157255956364e+01       1.625337425514e-01 
       1.249576238137e+01       1.324324937506e-01 
       1.349261385375e+01       1.077639515850e-01 
       1.456898931416e+01       8.755272679087e-02 
       1.573123280165e+01       7.100003332988e-02 
       1.698619445202e+01       5.744773835302e-02 
       1.834127087176e+01       4.635531543693e-02 
       1.980444873285e+01       3.727857265614e-02 
       2.138435184532e+01       2.985528055265e-02 
       2.309029198506e+01       2.378645999964e-02 
       2.493232377636e+01       1.882903106995e-02 
       2.692130395282e+01       1.478476122998e-02 
       2.906895534573e+01       1.149148109289e-02 
       3.138793597714e+01       8.817168832357e-03 
       3.389191366484e+01       6.655099542381e-03 
       3.659564657905e+01       4.918465811014e-03 
       3.951507022538e+01       3.537084758549e-03 
       4.266739136701e+01       2.453511337106e-03 
       4.607118943941e+01       1.620831548173e-03 
       4.974652605557e+01       1.000012888050e-03 
       5.371506324689e+01       5.575071988354e-04 
       5.800019113685e+01       2.635802569504e-04 
       6.262716579983e+01       9.070535179319e-05 
       6.762325811764e+01       1.243005501632e-05 
