# Matter power spectrum P(k) at redshift z=99
# for k=1.04775e-05 to 67.6233 h/Mpc,
# number of wavenumbers equal to 246
#    1:k (h/Mpc)              2:P (Mpc/h)^3        
       1.047750691338e-05       7.261927673119e-03 
       1.131335172818e-05       7.820331745737e-03 
       1.221587619877e-05       8.421675986488e-03 
       1.319039970550e-05       9.069258192194e-03 
       1.424266598317e-05       9.766638404421e-03 
       1.537887697396e-05       1.051764069682e-02 
       1.660572938097e-05       1.132639105520e-02 
       1.793045413791e-05       1.219733231416e-02 
       1.936085902737e-05       1.313524224380e-02 
       2.090537469909e-05       1.414527121893e-02 
       2.257310435923e-05       1.523296272192e-02 
       2.437387742372e-05       1.640429444530e-02 
       2.631830745176e-05       1.766569582178e-02 
       2.841785470091e-05       1.902408601793e-02 
       3.068489367268e-05       2.048692970591e-02 
       3.313278604643e-05       2.206225513594e-02 
       3.577595943165e-05       2.375870704909e-02 
       3.862999240274e-05       2.558560727479e-02 
       4.171170631739e-05       2.755297763344e-02 
       4.503926445983e-05       2.967161927316e-02 
       4.863227909323e-05       3.195316450832e-02 
       5.251192705226e-05       3.441013519284e-02 
       5.670107455699e-05       3.705601722522e-02 
       6.122441198393e-05       3.990533413562e-02 
       6.610859938837e-05       4.297372168203e-02 
       7.138242363583e-05       4.627802141688e-02 
       7.707696806873e-05       4.983636194159e-02 
       8.322579570814e-05       5.366826847231e-02 
       8.986514707061e-05       5.779476394569e-02 
       9.703415376577e-05       6.223848243885e-02 
       1.047750691338e-04       6.702379865640e-02 
       1.131335172818e-04       7.217695153381e-02 
       1.221587619877e-04       7.772619073572e-02 
       1.319039970550e-04       8.370193432376e-02 
       1.424266598317e-04       9.013692507545e-02 
       1.537887697396e-04       9.706641242570e-02 
       1.660572938097e-04       1.045283354271e-01 
       1.793045413791e-04       1.125635349068e-01 
       1.936085902737e-04       1.212159614968e-01 
       2.090537469909e-04       1.305329132714e-01 
       2.257310435923e-04       1.405652846215e-01 
       2.437387742372e-04       1.513678302540e-01 
       2.631830745176e-04       1.629994504870e-01 
       2.841785470091e-04       1.755234921224e-01 
       3.068489367268e-04       1.890080670413e-01 
       3.313278604643e-04       2.035264002435e-01 
       3.577595943165e-04       2.191571803681e-01 
       3.862999240274e-04       2.359849437593e-01 
       4.171170631739e-04       2.541004741539e-01 
       4.503926445983e-04       2.736012080278e-01 
       4.863227909323e-04       2.945916790965e-01 
       5.251192705226e-04       3.171839525183e-01 
       5.670107455699e-04       3.414980764002e-01 
       6.122441198393e-04       3.676625413100e-01 
       6.610859938837e-04       3.958147252304e-01 
       7.138242363583e-04       4.261013284911e-01 
       7.707696806873e-04       4.586787792353e-01 
       8.322579570814e-04       4.937136001348e-01 
       8.986514707061e-04       5.313826801402e-01 
       9.703415376577e-04       5.718734972157e-01 
       1.047750691338e-03       6.153841629505e-01 
       1.131335172818e-03       6.621233239466e-01 
       1.221587619877e-03       7.123098220434e-01 
       1.319039970550e-03       7.661720584436e-01 
       1.424266598317e-03       8.239546297729e-01 
       1.537887697396e-03       8.859011173467e-01 
       1.660572938097e-03       9.522588006422e-01 
       1.793045413791e-03       1.023280099819e+00 
       1.936085902737e-03       1.099216304579e+00 
       2.090537469909e-03       1.180312990454e+00 
       2.257310435923e-03       1.266804115851e+00 
       2.437387742372e-03       1.358904853406e+00 
       2.631830745176e-03       1.456802683156e+00 
       2.841785470091e-03       1.560646890522e+00 
       3.068489367268e-03       1.670536062499e+00 
       3.313278604643e-03       1.786503852157e+00 
       3.577595943165e-03       1.908502930789e+00 
       3.862999240274e-03       2.036387730709e+00 
       4.171170631739e-03       2.169896178851e+00 
       4.503926445983e-03       2.308631878994e+00 
       4.863227909323e-03       2.452047290962e+00 
       5.251192705226e-03       2.599430628088e+00 
       5.670107455699e-03       2.749896931790e+00 
       6.122441198393e-03       2.902386513383e+00 
       6.610859938837e-03       3.055668708035e+00 
       7.138242363583e-03       3.208356461542e+00 
       7.707696806873e-03       3.358923892648e+00 
       8.322579570814e-03       3.505725140575e+00 
       8.986514707061e-03       3.647009565067e+00 
       9.703415376577e-03       3.780923304268e+00 
       1.047750691338e-02       3.905491572411e+00 
       1.131335172818e-02       4.018587641276e+00 
       1.221587619877e-02       4.117901584693e+00 
       1.319039970550e-02       4.200915330174e+00 
       1.424266598317e-02       4.264942488148e+00 
       1.537887697392e-02       4.307217300907e+00 
       1.660572938023e-02       4.325060449872e+00 
       1.793045412706e-02       4.316059483013e+00 
       1.936085890181e-02       4.278225639064e+00 
       2.090537352463e-02       4.210203780697e+00 
       2.257309535333e-02       4.111420367773e+00 
       2.437382002918e-02       3.982419078592e+00 
       2.631799944462e-02       3.825165415406e+00 
       2.841644545389e-02       3.643283952867e+00 
       3.067933355377e-02       3.442196271997e+00 
       3.311368470740e-02       3.229238878650e+00 
       3.571840443502e-02       3.013520270493e+00 
       3.847720348444e-02       2.805282500833e+00 
       4.135335538431e-02       2.614406349054e+00 
       4.429361667738e-02       2.448135700403e+00 
       4.724366439141e-02       2.309236757694e+00 
       5.016480835311e-02       2.196116839583e+00 
       5.303989620246e-02       2.104364993149e+00 
       5.586870669566e-02       2.028463980731e+00 
       5.866042680613e-02       1.963153656920e+00 
       6.142798932958e-02       1.903777946903e+00 
       6.418496440164e-02       1.846477519153e+00 
       6.694418833788e-02       1.788199008422e+00 
       6.971731106057e-02       1.726716385174e+00 
       7.251476155766e-02       1.660657110841e+00 
       7.534587671527e-02       1.589474162784e+00 
       7.821907666265e-02       1.513439300037e+00 
       8.114203772912e-02       1.433572429985e+00 
       8.412184535029e-02       1.351492236080e+00 
       8.716512279304e-02       1.269274497864e+00 
       9.027813695930e-02       1.189193752487e+00 
       9.346688431697e-02       1.113502736130e+00 
       9.673716028276e-02       1.044176466504e+00 
       1.000946150830e-01       9.827069926788e-01 
       1.035447986537e-01       9.299372833425e-01 
       1.070931966762e-01       8.859572508517e-01 
       1.107452594425e-01       8.500712564366e-01 
       1.145064249153e-01       8.208044611086e-01 
       1.183821370918e-01       7.960242899759e-01 
       1.223778605862e-01       7.731471315805e-01 
       1.264990921987e-01       7.494535042695e-01 
       1.307513701367e-01       7.225585035768e-01 
       1.351402814784e-01       6.909092711939e-01 
       1.396714684203e-01       6.541816504848e-01 
       1.443506338194e-01       6.134258018212e-01 
       1.491835465229e-01       5.708680035462e-01 
       1.541760469708e-01       5.293638391802e-01 
       1.593340535561e-01       4.917106711623e-01 
       1.646635702297e-01       4.599200659487e-01 
       1.701706958456e-01       4.347277543373e-01 
       1.758616357459e-01       4.154084500033e-01 
       1.817427160982e-01       3.999367437350e-01 
       1.878204015065e-01       3.856830524876e-01 
       1.941013164283e-01       3.698098453747e-01 
       2.005922709503e-01       3.505464962933e-01 
       2.073002914972e-01       3.280429344929e-01 
       2.142326570816e-01       3.042141995750e-01 
       2.213969417533e-01       2.816121783435e-01 
       2.288010639706e-01       2.622573167471e-01 
       2.364533437147e-01       2.469621542228e-01 
       2.443625682930e-01       2.350131726063e-01 
       2.525380679504e-01       2.244182090211e-01 
       2.609898026346e-01       2.130938292674e-01 
       2.697284615565e-01       2.001015071988e-01 
       2.787655775689e-01       1.860195617068e-01 
       2.881136588829e-01       1.725170897943e-01 
       2.977863412677e-01       1.610662886698e-01 
       3.077985646929e-01       1.517610360075e-01 
       3.181667794071e-01       1.435595850578e-01 
       3.289091877812e-01       1.351815529573e-01 
       3.400460299658e-01       1.261641673472e-01 
       3.515999236474e-01       1.172018260189e-01 
       3.635962711085e-01       1.091767884738e-01 
       3.760637506334e-01       1.023093604603e-01 
       3.890349143879e-01       9.593741043643e-02 
       4.025469216825e-01       8.950784681111e-02 
       4.166424456376e-01       8.311190834982e-02 
       4.313708035863e-01       7.721574874890e-02 
       4.467893782977e-01       7.190082552964e-02 
       4.629654199664e-01       6.686903604437e-02 
       4.799783501994e-01       6.191744714859e-02 
       4.979227319373e-01       5.722234587399e-02 
       5.169121270864e-01       5.290289318701e-02 
       5.370841404489e-01       4.876989283390e-02 
       5.586070464571e-01       4.479094325680e-02 
       5.816885094930e-01       4.105196491689e-02 
       6.065870144995e-01       3.748970855468e-02 
       6.336266468475e-01       3.407626412479e-02 
       6.632156059511e-01       3.083462620687e-02 
       6.958678639263e-01       2.772832008670e-02 
       7.322247985589e-01       2.476703600427e-02 
       7.730680195114e-01       2.193953639153e-02 
       8.193049553677e-01       1.925609308903e-02 
       8.718988016039e-01       1.672924278338e-02 
       9.317218031082e-01       1.438422383103e-02 
       9.993660908989e-01       1.225069420254e-02 
       1.075037110174e+00       1.035259769947e-02 
       1.158653485707e+00       8.699703084102e-03 
       1.250099157308e+00       7.284605470335e-03 
       1.349432401273e+00       6.085456052093e-03 
       1.456947457397e+00       5.075723667493e-03 
       1.573135111331e+00       4.228301097873e-03 
       1.698621895592e+00       3.518543406970e-03 
       1.834127512934e+00       2.924987711889e-03 
       1.980444934528e+00       2.429159454465e-03 
       2.138435191726e+00       2.015505252261e-03 
       2.309029199186e+00       1.670766799339e-03 
       2.493232377687e+00       1.383796727593e-03 
       2.692130395285e+00       1.145129471350e-03 
       2.906895534573e+00       9.468523376443e-04 
       3.138793597714e+00       7.822881209674e-04 
       3.389191366484e+00       6.458258164542e-04 
       3.659564657905e+00       5.327688113150e-04 
       3.951507022538e+00       4.391857062188e-04 
       4.266739136701e+00       3.617888872569e-04 
       4.607118943941e+00       2.978273220330e-04 
       4.974652605557e+00       2.450131284737e-04 
       5.371506324689e+00       2.014351420654e-04 
       5.800019113685e+00       1.655064899236e-04 
       6.262716579983e+00       1.359027813352e-04 
       6.762325811764e+00       1.115297685228e-04 
       7.301791451110e+00       9.147531994915e-05 
       7.884293049406e+00       7.498569518790e-05 
       8.513263807261e+00       6.143555287069e-05 
       9.192410809424e+00       5.030758493310e-05 
       9.925736873929e+00       4.117464483461e-05 
       1.071756414427e+01       3.368295294771e-05 
       1.157255956364e+01       2.754083422540e-05 
       1.249576238137e+01       2.250854453466e-05 
       1.349261385375e+01       1.838697833071e-05 
       1.456898931416e+01       1.501373553286e-05 
       1.573123280165e+01       1.225392570945e-05 
       1.698619445202e+01       9.997203313788e-06 
       1.834127087176e+01       8.152717190003e-06 
       1.980444873285e+01       6.645907270972e-06 
       2.138435184532e+01       5.415359691266e-06 
       2.309029198506e+01       4.410999258630e-06 
       2.493232377636e+01       3.591536467593e-06 
       2.692130395282e+01       2.923246366181e-06 
       2.906895534573e+01       2.378441551872e-06 
       3.138793597714e+01       1.934472216965e-06 
       3.389191366484e+01       1.572824936494e-06 
       3.659564657905e+01       1.278344918252e-06 
       3.951507022538e+01       1.038648019784e-06 
       4.266739136701e+01       8.436096990880e-07 
       4.607118943941e+01       6.849575018855e-07 
       4.974652605557e+01       5.559667188501e-07 
       5.371506324689e+01       4.511054582961e-07 
       5.800019113685e+01       3.659061912964e-07 
       6.262716579983e+01       2.966972857338e-07 
       6.762325811764e+01       2.404967072530e-07 
