# Matter power spectrum P(k) at redshift z=0
# for k=1.04775e-05 to 134.926 h/Mpc,
# number of wavenumbers equal to 255
#    1:k (h/Mpc)              2:P (Mpc/h)^3        
       1.047750691338e-05       5.020963906804e+01 
       1.131335172818e-05       5.407048937147e+01 
       1.221587619877e-05       5.822820724029e+01 
       1.319039970550e-05       6.270562047243e+01 
       1.424266598317e-05       6.752731476098e+01 
       1.537887697396e-05       7.271975715395e+01 
       1.660572938097e-05       7.831147101246e+01 
       1.793045413791e-05       8.433312302135e+01 
       1.936085902737e-05       9.081780130646e+01 
       2.090537469909e-05       9.780107449024e+01 
       2.257310435923e-05       1.053212938596e+02 
       2.437387742372e-05       1.134197268469e+02 
       2.631830745176e-05       1.221408285622e+02 
       2.841785470091e-05       1.315324590474e+02 
       3.068489367268e-05       1.416461671361e+02 
       3.313278604643e-05       1.525374478882e+02 
       3.577595943165e-05       1.642660517275e+02 
       3.862999240274e-05       1.768963429383e+02 
       4.171170631739e-05       1.904975997821e+02 
       4.503926445983e-05       2.051444243234e+02 
       4.863227909323e-05       2.209171412050e+02 
       5.251192705226e-05       2.379022266144e+02 
       5.670107455699e-05       2.561927841236e+02 
       6.122441198393e-05       2.758890479370e+02 
       6.610859938837e-05       2.970989213975e+02 
       7.138242363583e-05       3.199385559930e+02 
       7.707696806873e-05       3.445329727006e+02 
       8.322579570814e-05       3.710167324012e+02 
       8.986514707061e-05       3.995346444120e+02 
       9.703415376577e-05       4.302425389349e+02 
       1.047750691338e-04       4.633080773457e+02 
       1.131335172818e-04       4.989116271611e+02 
       1.221587619877e-04       5.372471938794e+02 
       1.319039970550e-04       5.785234116880e+02 
       1.424266598317e-04       6.229645933134e+02 
       1.537887697396e-04       6.708118487510e+02 
       1.660572938097e-04       7.223242657768e+02 
       1.793045413791e-04       7.777801571274e+02 
       1.936085902737e-04       8.374783638365e+02 
       2.090537469909e-04       9.017396276738e+02 
       2.257310435923e-04       9.709080297651e+02 
       2.437387742372e-04       1.045352453376e+03 
       2.631830745176e-04       1.125468127721e+03 
       2.841785470091e-04       1.211678185928e+03 
       3.068489367268e-04       1.304435256065e+03 
       3.313278604643e-04       1.404223062921e+03 
       3.577595943165e-04       1.511558029577e+03 
       3.862999240274e-04       1.626990852555e+03 
       4.171170631739e-04       1.751108045603e+03 
       4.503926445983e-04       1.884533404755e+03 
       4.863227909323e-04       2.027929406956e+03 
       5.251192705226e-04       2.181998483913e+03 
       5.670107455699e-04       2.347484146066e+03 
       6.122441198393e-04       2.525171925196e+03 
       6.610859938837e-04       2.715890054979e+03 
       7.138242363583e-04       2.920509779321e+03 
       7.707696806873e-04       3.139945208052e+03 
       8.322579570814e-04       3.375152477019e+03 
       8.986514707061e-04       3.627128020463e+03 
       9.703415376577e-04       3.896905669506e+03 
       1.047750691338e-03       4.185552452615e+03 
       1.131335172818e-03       4.494162775573e+03 
       1.221587619877e-03       4.823851150596e+03 
       1.319039970550e-03       5.175743278712e+03 
       1.424266598317e-03       5.551020298685e+03 
       1.537887697396e-03       5.950789185438e+03 
       1.660572938097e-03       6.376124150065e+03 
       1.793045413791e-03       6.828075236609e+03 
       1.936085902737e-03       7.307627051086e+03 
       2.090537469909e-03       7.815673959103e+03 
       2.257310435923e-03       8.352992923054e+03 
       2.437387742372e-03       8.920214306458e+03 
       2.631830745176e-03       9.517787166841e+03 
       2.841785470091e-03       1.014594130691e+04 
       3.068489367268e-03       1.080465136506e+04 
       3.313278604643e-03       1.149358239544e+04 
       3.577595943165e-03       1.221204586901e+04 
       3.862999240274e-03       1.295893666550e+04 
       4.171170631739e-03       1.373267338693e+04 
       4.503926445983e-03       1.453113500131e+04 
       4.863227909323e-03       1.535157115436e+04 
       5.251192705226e-03       1.619066155509e+04 
       5.670107455699e-03       1.704433881591e+04 
       6.122441198393e-03       1.790758153379e+04 
       6.610859938837e-03       1.877462059345e+04 
       7.138242363583e-03       1.963874437193e+04 
       7.707696806873e-03       2.049217405279e+04 
       8.322579570814e-03       2.132608745840e+04 
       8.986514707061e-03       2.213057143761e+04 
       9.703415376577e-03       2.289447201359e+04 
       1.047750691338e-02       2.360549538935e+04 
       1.131335172818e-02       2.425024002113e+04 
       1.221587619877e-02       2.481424706833e+04 
       1.319039970550e-02       2.528219966727e+04 
       1.424266598317e-02       2.563815129655e+04 
       1.537887697392e-02       2.586607594930e+04 
       1.660572938023e-02       2.595027099618e+04 
       1.793045412706e-02       2.587635544457e+04 
       1.936085890181e-02       2.563219742172e+04 
       2.090537352463e-02       2.520936127693e+04 
       2.257309535333e-02       2.460445349260e+04 
       2.437382002918e-02       2.382088768680e+04 
       2.631799944462e-02       2.287044791659e+04 
       2.841644545389e-02       2.177450542976e+04 
       3.067933355377e-02       2.056556668555e+04 
       3.311368470740e-02       1.928731573095e+04 
       3.571840443502e-02       1.799401886013e+04 
       3.847720348444e-02       1.674683642427e+04 
       4.135335538431e-02       1.560459653661e+04 
       4.429361667738e-02       1.461036656159e+04 
       4.724366439141e-02       1.378054628521e+04 
       5.016480835311e-02       1.310507252214e+04 
       5.303989620246e-02       1.255716366372e+04 
       5.586870669566e-02       1.210422508363e+04 
       5.866042680613e-02       1.171463426944e+04 
       6.142798932958e-02       1.136044381482e+04 
       6.418496440164e-02       1.101853969924e+04 
       6.694418833788e-02       1.067065457704e+04 
       6.971731106057e-02       1.030354423843e+04 
       7.251476155766e-02       9.908960139463e+03 
       7.534587671527e-02       9.483730979065e+03 
       7.821907666265e-02       9.029441147571e+03 
       8.114203772912e-02       8.552274444849e+03 
       8.412184535029e-02       8.061906113778e+03 
       8.716512279304e-02       7.570708596921e+03 
       9.027813695930e-02       7.092436521198e+03 
       9.346688431697e-02       6.640427649206e+03 
       9.673716028276e-02       6.226620580086e+03 
       1.000946150830e-01       5.859848597846e+03 
       1.035447986537e-01       5.545141896837e+03 
       1.070931966762e-01       5.283027275387e+03 
       1.107452594425e-01       5.069314682478e+03 
       1.145064249153e-01       4.895133858377e+03 
       1.183821370918e-01       4.747716134104e+03 
       1.223778605862e-01       4.611609025788e+03 
       1.264990921987e-01       4.470485167292e+03 
       1.307513701367e-01       4.310123954196e+03 
       1.351402814784e-01       4.121231081030e+03 
       1.396714684203e-01       3.901901953343e+03 
       1.443506338194e-01       3.658456886853e+03 
       1.491835465229e-01       3.404292573074e+03 
       1.541760469708e-01       3.156474202270e+03 
       1.593340535561e-01       2.931769103203e+03 
       1.646635702297e-01       2.742149190952e+03 
       1.701706958456e-01       2.592023525652e+03 
       1.758616357459e-01       2.476995254631e+03 
       1.817427160982e-01       2.384922176845e+03 
       1.878204015065e-01       2.300083127719e+03 
       1.941013164283e-01       2.205466063574e+03 
       2.005922709503e-01       2.090506738169e+03 
       2.073002914972e-01       1.956142616720e+03 
       2.142326570816e-01       1.813853544955e+03 
       2.213969417533e-01       1.678943091270e+03 
       2.288010639706e-01       1.563477662177e+03 
       2.364533437147e-01       1.472298990616e+03 
       2.443625682930e-01       1.401104386745e+03 
       2.525380679504e-01       1.337982419254e+03 
       2.609898026346e-01       1.270448789733e+03 
       2.697284615565e-01       1.192906041409e+03 
       2.787655775689e-01       1.108842800487e+03 
       2.881136588829e-01       1.028256477646e+03 
       2.977863412677e-01       9.599438965734e+02 
       3.077985646929e-01       9.044615066158e+02 
       3.181667794071e-01       8.555574961820e+02 
       3.289091877812e-01       8.055738936045e+02 
       3.400460299658e-01       7.517504891955e+02 
       3.515999236474e-01       6.982567721596e+02 
       3.635962711085e-01       6.503704121070e+02 
       3.760637506334e-01       6.093991557346e+02 
       3.890349143879e-01       5.713766707668e+02 
       4.025469216825e-01       5.329948771875e+02 
       4.166424456376e-01       4.948142886557e+02 
       4.313708035863e-01       4.596190132308e+02 
       4.467893782977e-01       4.278910180643e+02 
       4.629654199664e-01       3.978503523894e+02 
       4.799783501994e-01       3.682817315856e+02 
       4.979227319373e-01       3.402419408732e+02 
       5.169121270864e-01       3.144447029215e+02 
       5.370841404489e-01       2.897526257715e+02 
       5.586070464571e-01       2.659789186665e+02 
       5.816885094930e-01       2.436356773276e+02 
       6.065870144995e-01       2.223426471227e+02 
       6.336266468475e-01       2.019322052967e+02 
       6.632156059511e-01       1.825435285103e+02 
       6.958678639263e-01       1.639573487126e+02 
       7.322247985589e-01       1.462324463755e+02 
       7.730680195114e-01       1.292985634902e+02 
       8.193049553677e-01       1.132177330207e+02 
       8.718988016039e-01       9.806360009511e+01 
       9.317218031082e-01       8.398680097003e+01 
       9.993660908989e-01       7.116559754064e+01 
       1.075037110174e+00       5.974511449321e+01 
       1.158653485707e+00       4.978467775061e+01 
       1.250099157308e+00       4.124323617575e+01 
       1.349432401273e+00       3.399267995994e+01 
       1.456947457397e+00       2.787677584378e+01 
       1.573135111331e+00       2.273612574763e+01 
       1.698621895592e+00       1.842561227191e+01 
       1.834127512934e+00       1.481989259858e+01 
       1.980444934528e+00       1.181125076523e+01 
       2.138435191726e+00       9.309778730539e+00 
       2.309029199186e+00       7.239030514053e+00 
       2.493232377687e+00       5.535300385495e+00 
       2.692130395285e+00       4.145009241050e+00 
       2.906895534573e+00       3.023100043913e+00 
       3.138793597714e+00       2.131432357374e+00 
       3.389191366484e+00       1.437516446508e+00 
       3.659564657905e+00       9.127727445690e-01 
       3.951507022538e+00       5.320592335657e-01 
       4.266739136701e+00       2.720262365290e-01 
       4.607118943941e+00       1.106818409739e-01 
       4.974652605557e+00       2.694430340757e-02 
       5.371506324689e+00       3.022974097723e-04 
       5.800019113685e+00       1.121409287273e-02 
       6.262716579983e+00       4.168668859461e-02 
       6.762325811764e+00       7.625185028505e-02 
       7.301791451110e+00       1.031446838703e-01 
       7.884293049406e+00       1.150861744878e-01 
       8.513263807261e+00       1.101233312285e-01 
       9.192410809424e+00       9.100108405748e-02 
       9.925736873929e+00       6.364973814189e-02 
       1.071756414427e+01       3.625893552480e-02 
       1.157255956364e+01       1.494982057713e-02 
       1.249576238137e+01       3.064518838642e-03 
       1.349261385375e+01       8.038660203205e-06 
       1.456898931416e+01       2.150905513068e-03 
       1.573123280165e+01       5.060349253343e-03 
       1.698619445202e+01       5.902719511210e-03 
       1.834127087176e+01       4.309335264835e-03 
       1.980444873285e+01       1.886947358063e-03 
       2.138435184532e+01       3.105090317414e-04 
       2.309029198506e+01       1.930067114997e-05 
       2.493232377636e+01       3.027374426858e-04 
       2.692130395282e+01       3.951976751082e-04 
       2.906895534573e+01       1.999412416952e-04 
       3.138793597714e+01       1.739583367214e-05 
       3.389191366484e+01       7.132259521805e-06 
       3.659564657905e+01       2.944987489752e-05 
       3.951507022538e+01       1.609705809133e-05 
       4.266739136701e+01       3.113171351546e-07 
       4.607118943941e+01       1.213428802003e-06 
       4.974652605557e+01       2.210752265584e-06 
       5.371506324689e+01       3.782426484426e-08 
       5.800019113685e+01       1.437409839329e-09 
       6.262716579983e+01       5.815706160179e-08 
       6.762325811764e+01       8.030829135687e-09 
       7.301791451110e+01       1.388814687008e-08 
       7.884293049406e+01       5.639027031999e-07 
       8.513263807261e+01       3.758522475799e-07 
       9.192410809424e+01       2.019931131051e-05 
       9.925736873929e+01       1.187147232426e-05 
       1.071756414427e+02       3.809335195634e-06 
       1.157255956364e+02       3.612573036711e-06 
       1.249576238137e+02       4.540898127224e-07 
       1.349261385375e+02       6.549620663408e-06 
