# Matter power spectrum P(k) at redshift z=0
# for k=1.04775e-05 to 67.6233 h/Mpc,
# number of wavenumbers equal to 246
#    1:k (h/Mpc)              2:P (Mpc/h)^3        
       1.047750691338e-05       5.020964806755e+01 
       1.131335172818e-05       5.407048206553e+01 
       1.221587619877e-05       5.822819063936e+01 
       1.319039970550e-05       6.270562589677e+01 
       1.424266598317e-05       6.752731788102e+01 
       1.537887697396e-05       7.271977200258e+01 
       1.660572938097e-05       7.831147241542e+01 
       1.793045413791e-05       8.433311815128e+01 
       1.936085902737e-05       9.081778242446e+01 
       2.090537469909e-05       9.780108061340e+01 
       2.257310435923e-05       1.053213197032e+02 
       2.437387742372e-05       1.134197377001e+02 
       2.631830745176e-05       1.221408202816e+02 
       2.841785470091e-05       1.315324720916e+02 
       3.068489367268e-05       1.416462093729e+02 
       3.313278604643e-05       1.525374500691e+02 
       3.577595943165e-05       1.642660687078e+02 
       3.862999240274e-05       1.768963504868e+02 
       4.171170631739e-05       1.904975992460e+02 
       4.503926445983e-05       2.051444490305e+02 
       4.863227909323e-05       2.209171463752e+02 
       5.251192705226e-05       2.379022222314e+02 
       5.670107455699e-05       2.561927925590e+02 
       6.122441198393e-05       2.758890441790e+02 
       6.610859938837e-05       2.970989225465e+02 
       7.138242363583e-05       3.199385558200e+02 
       7.707696806873e-05       3.445329780878e+02 
       8.322579570814e-05       3.710167315928e+02 
       8.986514707061e-05       3.995346440954e+02 
       9.703415376577e-05       4.302425403884e+02 
       1.047750691338e-04       4.633080762974e+02 
       1.131335172818e-04       4.989116267507e+02 
       1.221587619877e-04       5.372471946561e+02 
       1.319039970550e-04       5.785234124629e+02 
       1.424266598317e-04       6.229645930980e+02 
       1.537887697396e-04       6.708118484951e+02 
       1.660572938097e-04       7.223242660220e+02 
       1.793045413791e-04       7.777801553016e+02 
       1.936085902737e-04       8.374783607333e+02 
       2.090537469909e-04       9.017396264495e+02 
       2.257310435923e-04       9.709080260152e+02 
       2.437387742372e-04       1.045352448644e+03 
       2.631830745176e-04       1.125468122836e+03 
       2.841785470091e-04       1.211678179511e+03 
       3.068489367268e-04       1.304435249091e+03 
       3.313278604643e-04       1.404223052541e+03 
       3.577595943165e-04       1.511558013390e+03 
       3.862999240274e-04       1.626990836453e+03 
       4.171170631739e-04       1.751108027371e+03 
       4.503926445983e-04       1.884533381345e+03 
       4.863227909323e-04       2.027929376470e+03 
       5.251192705226e-04       2.181998446367e+03 
       5.670107455699e-04       2.347484100857e+03 
       6.122441198393e-04       2.525171869334e+03 
       6.610859938837e-04       2.715889981400e+03 
       7.138242363583e-04       2.920509686084e+03 
       7.707696806873e-04       3.139945097710e+03 
       8.322579570814e-04       3.375152334395e+03 
       8.986514707061e-04       3.627127828231e+03 
       9.703415376577e-04       3.896905450016e+03 
       1.047750691338e-03       4.185552170961e+03 
       1.131335172818e-03       4.494162426791e+03 
       1.221587619877e-03       4.823850702664e+03 
       1.319039970550e-03       5.175742739608e+03 
       1.424266598317e-03       5.551019592511e+03 
       1.537887697396e-03       5.950788335886e+03 
       1.660572938097e-03       6.376123046805e+03 
       1.793045413791e-03       6.828073896123e+03 
       1.936085902737e-03       7.307625375386e+03 
       2.090537469909e-03       7.815671860057e+03 
       2.257310435923e-03       8.352990369403e+03 
       2.437387742372e-03       8.920211057519e+03 
       2.631830745176e-03       9.517783061890e+03 
       2.841785470091e-03       1.014593703671e+04 
       3.068489367268e-03       1.080464505732e+04 
       3.313278604643e-03       1.149357459445e+04 
       3.577595943165e-03       1.221203620826e+04 
       3.862999240274e-03       1.295892538505e+04 
       4.171170631739e-03       1.373266002081e+04 
       4.503926445983e-03       1.453111834595e+04 
       4.863227909323e-03       1.535154984226e+04 
       5.251192705226e-03       1.619063613430e+04 
       5.670107455699e-03       1.704431256576e+04 
       6.122441198393e-03       1.790755938457e+04 
       6.610859938837e-03       1.877460413565e+04 
       7.138242363583e-03       1.963872429107e+04 
       7.707696806873e-03       2.049215713363e+04 
       8.322579570814e-03       2.132607230662e+04 
       8.986514707061e-03       2.213055074211e+04 
       9.703415376577e-03       2.289445470819e+04 
       1.047750691338e-02       2.360548574199e+04 
       1.131335172818e-02       2.425022856738e+04 
       1.221587619877e-02       2.481423921756e+04 
       1.319039970550e-02       2.528218622934e+04 
       1.424266598317e-02       2.563814368514e+04 
       1.537887697392e-02       2.586606487781e+04 
       1.660572938023e-02       2.595028088232e+04 
       1.793045412706e-02       2.587633801033e+04 
       1.936085890181e-02       2.563217389515e+04 
       2.090537352463e-02       2.520935383421e+04 
       2.257309535333e-02       2.460445046603e+04 
       2.437382002918e-02       2.382087524252e+04 
       2.631799944462e-02       2.287045315292e+04 
       2.841644545389e-02       2.177447579532e+04 
       3.067933355377e-02       2.056556997727e+04 
       3.311368470740e-02       1.928736872750e+04 
       3.571840443502e-02       1.799395502962e+04 
       3.847720348444e-02       1.674687467963e+04 
       4.135335538431e-02       1.560461498008e+04 
       4.429361667738e-02       1.461037921549e+04 
       4.724366439141e-02       1.378052658093e+04 
       5.016480835311e-02       1.310508641390e+04 
       5.303989620246e-02       1.255716234868e+04 
       5.586870669566e-02       1.210425266390e+04 
       5.866042680613e-02       1.171463917732e+04 
       6.142798932958e-02       1.136044269622e+04 
       6.418496440164e-02       1.101858117929e+04 
       6.694418833788e-02       1.067066945021e+04 
       6.971731106057e-02       1.030355496825e+04 
       7.251476155766e-02       9.909004408614e+03 
       7.534587671527e-02       9.483783025299e+03 
       7.821907666265e-02       9.029497767903e+03 
       8.114203772912e-02       8.552325469847e+03 
       8.412184535029e-02       8.061949253219e+03 
       8.716512279304e-02       7.570785910129e+03 
       9.027813695930e-02       7.092505256007e+03 
       9.346688431697e-02       6.640517456397e+03 
       9.673716028276e-02       6.226684924070e+03 
       1.000946150830e-01       5.859940809161e+03 
       1.035447986537e-01       5.545243735220e+03 
       1.070931966762e-01       5.283133800796e+03 
       1.107452594425e-01       5.069409700524e+03 
       1.145064249153e-01       4.895251801795e+03 
       1.183821370918e-01       4.747878228416e+03 
       1.223778605862e-01       4.611728093175e+03 
       1.264990921987e-01       4.470618660475e+03 
       1.307513701367e-01       4.310271672652e+03 
       1.351402814784e-01       4.121388736338e+03 
       1.396714684203e-01       3.902050415554e+03 
       1.443506338194e-01       3.658638885186e+03 
       1.491835465229e-01       3.404484274699e+03 
       1.541760469708e-01       3.156671405237e+03 
       1.593340535561e-01       2.931984523428e+03 
       1.646635702297e-01       2.742377977321e+03 
       1.701706958456e-01       2.592263472005e+03 
       1.758616357459e-01       2.477243519766e+03 
       1.817427160982e-01       2.385183951803e+03 
       1.878204015065e-01       2.300360864663e+03 
       1.941013164283e-01       2.205760877842e+03 
       2.005922709503e-01       2.090815291824e+03 
       2.073002914972e-01       1.956472307700e+03 
       2.142326570816e-01       1.814188279716e+03 
       2.213969417533e-01       1.679294500887e+03 
       2.288010639706e-01       1.563849081822e+03 
       2.364533437147e-01       1.472685570867e+03 
       2.443625682930e-01       1.401510436356e+03 
       2.525380679504e-01       1.338410973198e+03 
       2.609898026346e-01       1.270900685612e+03 
       2.697284615565e-01       1.193381840320e+03 
       2.787655775689e-01       1.109336395317e+03 
       2.881136588829e-01       1.028770139100e+03 
       2.977863412677e-01       9.604843314317e+02 
       3.077985646929e-01       9.050235940458e+02 
       3.181667794071e-01       8.561455390952e+02 
       3.289091877812e-01       8.061884217728e+02 
       3.400460299658e-01       7.523922914172e+02 
       3.515999236474e-01       6.989231705752e+02 
       3.635962711085e-01       6.510652611278e+02 
       3.760637506334e-01       6.101226961909e+02 
       3.890349143879e-01       5.721330692524e+02 
       4.025469216825e-01       5.337824808426e+02 
       4.166424456376e-01       4.956318140083e+02 
       4.313708035863e-01       4.604695751054e+02 
       4.467893782977e-01       4.287765404478e+02 
       4.629654199664e-01       3.987722374026e+02 
       4.799783501994e-01       3.692420050129e+02 
       4.979227319373e-01       3.412400702306e+02 
       5.169121270864e-01       3.154830390151e+02 
       5.370841404489e-01       2.908346812559e+02 
       5.586070464571e-01       2.671060779887e+02 
       5.816885094930e-01       2.448098332735e+02 
       6.065870144995e-01       2.235680187044e+02 
       6.336266468475e-01       2.032105403638e+02 
       6.632156059511e-01       1.838793864097e+02 
       6.958678639263e-01       1.653550080393e+02 
       7.322247985589e-01       1.476955438677e+02 
       7.730680195114e-01       1.308340006928e+02 
       8.193049553677e-01       1.148315279419e+02 
       8.718988016039e-01       9.976228975307e+01 
       9.317218031082e-01       8.577793587443e+01 
       9.993660908989e-01       7.305500587352e+01 
       1.075037110174e+00       6.173597550589e+01 
       1.158653485707e+00       5.187906957069e+01 
       1.250099157308e+00       4.344023928168e+01 
       1.349432401273e+00       3.628955204814e+01 
       1.456947457397e+00       3.026797445601e+01 
       1.573135111331e+00       2.521451566702e+01 
       1.698621895592e+00       2.098199216734e+01 
       1.834127512934e+00       1.744235722306e+01 
       1.980444934528e+00       1.448568134862e+01 
       2.138435191726e+00       1.201894620506e+01 
       2.309029199186e+00       9.963140497147e+00 
       2.493232377687e+00       8.251850630562e+00 
       2.692130395285e+00       6.828587505779e+00 
       2.906895534573e+00       5.646291652910e+00 
       3.138793597714e+00       4.664890037168e+00 
       3.389191366484e+00       3.851129418316e+00 
       3.659564657905e+00       3.176924472522e+00 
       3.951507022538e+00       2.618884783327e+00 
       4.266739136701e+00       2.157344185529e+00 
       4.607118943941e+00       1.775937242065e+00 
       4.974652605557e+00       1.460995098275e+00 
       5.371506324689e+00       1.201120775634e+00 
       5.800019113685e+00       9.868731840863e-01 
       6.262716579983e+00       8.103460787129e-01 
       6.762325811764e+00       6.650027907302e-01 
       7.301791451110e+00       5.454187076079e-01 
       7.884293049406e+00       4.470881724886e-01 
       8.513263807261e+00       3.662876808000e-01 
       9.192410809424e+00       2.999305407068e-01 
       9.925736873929e+00       2.454688792679e-01 
       1.071756414427e+01       2.007960695724e-01 
       1.157255956364e+01       1.641694140094e-01 
       1.249576238137e+01       1.341629598149e-01 
       1.349261385375e+01       1.095868671528e-01 
       1.456898931416e+01       8.947115082759e-02 
       1.573123280165e+01       7.301533837711e-02 
       1.698619445202e+01       5.955805089903e-02 
       1.834127087176e+01       4.856022180088e-02 
       1.980444873285e+01       3.957487271279e-02 
       2.138435184532e+01       3.223721952004e-02 
       2.309029198506e+01       2.624813827651e-02 
       2.493232377636e+01       2.136142096170e-02 
       2.692130395282e+01       1.737616742905e-02 
       2.906895534573e+01       1.412702203438e-02 
       3.138793597714e+01       1.147927812752e-02 
       3.389191366484e+01       9.322190794189e-03 
       3.659564657905e+01       7.565471983897e-03 
       3.951507022538e+01       6.135310271441e-03 
       4.266739136701e+01       4.971325717747e-03 
       4.607118943941e+01       4.024376955363e-03 
       4.974652605557e+01       3.254078953705e-03 
       5.371506324689e+01       2.627681774979e-03 
       5.800019113685e+01       2.118476254668e-03 
       6.262716579983e+01       1.704559223038e-03 
       6.762325811764e+01       1.368230957062e-03 
