# Matter power spectrum P(k) at redshift z=99
# for k=1.04775e-05 to 67.6233 h/Mpc,
# number of wavenumbers equal to 246
#    1:k (h/Mpc)              2:P (Mpc/h)^3        
       1.047750691338e-05       7.261927673119e-03 
       1.131335172818e-05       7.820331745737e-03 
       1.221587619877e-05       8.421675986489e-03 
       1.319039970550e-05       9.069258192195e-03 
       1.424266598317e-05       9.766638404421e-03 
       1.537887697396e-05       1.051764069682e-02 
       1.660572938097e-05       1.132639105520e-02 
       1.793045413791e-05       1.219733231417e-02 
       1.936085902737e-05       1.313524224381e-02 
       2.090537469909e-05       1.414527121893e-02 
       2.257310435923e-05       1.523296272192e-02 
       2.437387742372e-05       1.640429444530e-02 
       2.631830745176e-05       1.766569582178e-02 
       2.841785470091e-05       1.902408601793e-02 
       3.068489367268e-05       2.048692970592e-02 
       3.313278604643e-05       2.206225513594e-02 
       3.577595943165e-05       2.375870704909e-02 
       3.862999240274e-05       2.558560727479e-02 
       4.171170631739e-05       2.755297763344e-02 
       4.503926445983e-05       2.967161927315e-02 
       4.863227909323e-05       3.195316450832e-02 
       5.251192705226e-05       3.441013519284e-02 
       5.670107455699e-05       3.705601722528e-02 
       6.122441198393e-05       3.990533413561e-02 
       6.610859938837e-05       4.297372168203e-02 
       7.138242363583e-05       4.627802141688e-02 
       7.707696806873e-05       4.983636194159e-02 
       8.322579570814e-05       5.366826847232e-02 
       8.986514707061e-05       5.779476394569e-02 
       9.703415376577e-05       6.223848243885e-02 
       1.047750691338e-04       6.702379865640e-02 
       1.131335172818e-04       7.217695153381e-02 
       1.221587619877e-04       7.772619073571e-02 
       1.319039970550e-04       8.370193432377e-02 
       1.424266598317e-04       9.013692507547e-02 
       1.537887697396e-04       9.706641242571e-02 
       1.660572938097e-04       1.045283354271e-01 
       1.793045413791e-04       1.125635349068e-01 
       1.936085902737e-04       1.212159614968e-01 
       2.090537469909e-04       1.305329132715e-01 
       2.257310435923e-04       1.405652846215e-01 
       2.437387742372e-04       1.513678302540e-01 
       2.631830745176e-04       1.629994504871e-01 
       2.841785470091e-04       1.755234921224e-01 
       3.068489367268e-04       1.890080670413e-01 
       3.313278604643e-04       2.035264002435e-01 
       3.577595943165e-04       2.191571803681e-01 
       3.862999240274e-04       2.359849437593e-01 
       4.171170631739e-04       2.541004741539e-01 
       4.503926445983e-04       2.736012080277e-01 
       4.863227909323e-04       2.945916790965e-01 
       5.251192705226e-04       3.171839525183e-01 
       5.670107455699e-04       3.414980764002e-01 
       6.122441198393e-04       3.676625413101e-01 
       6.610859938837e-04       3.958147252304e-01 
       7.138242363583e-04       4.261013284905e-01 
       7.707696806873e-04       4.586787792354e-01 
       8.322579570814e-04       4.937136001356e-01 
       8.986514707061e-04       5.313826801402e-01 
       9.703415376577e-04       5.718734972158e-01 
       1.047750691338e-03       6.153841629505e-01 
       1.131335172818e-03       6.621233239466e-01 
       1.221587619877e-03       7.123098220426e-01 
       1.319039970550e-03       7.661720584608e-01 
       1.424266598317e-03       8.239546297731e-01 
       1.537887697396e-03       8.859011173466e-01 
       1.660572938097e-03       9.522588006394e-01 
       1.793045413791e-03       1.023280099819e+00 
       1.936085902737e-03       1.099216304579e+00 
       2.090537469909e-03       1.180312990453e+00 
       2.257310435923e-03       1.266804115851e+00 
       2.437387742372e-03       1.358904853405e+00 
       2.631830745176e-03       1.456802683156e+00 
       2.841785470091e-03       1.560646890521e+00 
       3.068489367268e-03       1.670536062499e+00 
       3.313278604643e-03       1.786503852158e+00 
       3.577595943165e-03       1.908502930788e+00 
       3.862999240274e-03       2.036387730707e+00 
       4.171170631739e-03       2.169896152997e+00 
       4.503926445983e-03       2.308631878990e+00 
       4.863227909323e-03       2.452047290957e+00 
       5.251192705226e-03       2.599430628080e+00 
       5.670107455699e-03       2.749896931786e+00 
       6.122441198393e-03       2.902386513368e+00 
       6.610859938837e-03       3.055668699778e+00 
       7.138242363583e-03       3.208356461516e+00 
       7.707696806873e-03       3.358923892927e+00 
       8.322579570814e-03       3.505725595271e+00 
       8.986514707061e-03       3.647009710762e+00 
       9.703415376577e-03       3.780923304172e+00 
       1.047750691338e-02       3.905491447052e+00 
       1.131335172818e-02       4.018588039140e+00 
       1.221587619877e-02       4.117901585167e+00 
       1.319039970550e-02       4.200915327828e+00 
       1.424266598317e-02       4.264942427792e+00 
       1.537887697392e-02       4.307220958590e+00 
       1.660572938023e-02       4.325062778916e+00 
       1.793045412706e-02       4.316057048374e+00 
       1.936085890181e-02       4.278229793620e+00 
       2.090537352463e-02       4.210202783581e+00 
       2.257309535333e-02       4.111419237572e+00 
       2.437382002918e-02       3.982426164599e+00 
       2.631799944462e-02       3.825174854410e+00 
       2.841644545389e-02       3.643286396802e+00 
       3.067933355377e-02       3.442189458250e+00 
       3.311368470740e-02       3.229232810867e+00 
       3.571840443502e-02       3.013512152129e+00 
       3.847720348444e-02       2.805269793765e+00 
       4.135335538431e-02       2.614408158051e+00 
       4.429361667738e-02       2.448137921443e+00 
       4.724366439141e-02       2.309239402618e+00 
       5.016480835311e-02       2.196109362638e+00 
       5.303989620246e-02       2.104363621253e+00 
       5.586870669566e-02       2.028465351737e+00 
       5.866042680613e-02       1.963155291522e+00 
       6.142798932958e-02       1.903782075093e+00 
       6.418496440164e-02       1.846480053958e+00 
       6.694418833788e-02       1.788198311926e+00 
       6.971731106057e-02       1.726715799980e+00 
       7.251476155766e-02       1.660655455669e+00 
       7.534587671527e-02       1.589467028571e+00 
       7.821907666265e-02       1.513437449813e+00 
       8.114203772912e-02       1.433567748843e+00 
       8.412184535029e-02       1.351490420958e+00 
       8.716512279304e-02       1.269271150675e+00 
       9.027813695930e-02       1.189194597841e+00 
       9.346688431697e-02       1.113500863928e+00 
       9.673716028276e-02       1.044174743962e+00 
       1.000946150830e-01       9.827061724497e-01 
       1.035447986537e-01       9.299384928986e-01 
       1.070931966762e-01       8.859576338619e-01 
       1.107452594425e-01       8.500692681588e-01 
       1.145064249153e-01       8.208038549352e-01 
       1.183821370918e-01       7.960245133340e-01 
       1.223778605862e-01       7.731446299183e-01 
       1.264990921987e-01       7.494501101559e-01 
       1.307513701367e-01       7.225568948718e-01 
       1.351402814784e-01       6.909087382430e-01 
       1.396714684203e-01       6.541804281839e-01 
       1.443506338194e-01       6.134259400339e-01 
       1.491835465229e-01       5.708664830058e-01 
       1.541760469708e-01       5.293628432914e-01 
       1.593340535561e-01       4.917088132947e-01 
       1.646635702297e-01       4.599193938853e-01 
       1.701706958456e-01       4.347285224642e-01 
       1.758616357459e-01       4.154072871891e-01 
       1.817427160982e-01       3.999354541304e-01 
       1.878204015065e-01       3.856817249894e-01 
       1.941013164283e-01       3.698080046421e-01 
       2.005922709503e-01       3.505445790400e-01 
       2.073002914972e-01       3.280415966096e-01 
       2.142326570816e-01       3.042117766348e-01 
       2.213969417533e-01       2.816096670583e-01 
       2.288010639706e-01       2.622548482174e-01 
       2.364533437147e-01       2.469597101890e-01 
       2.443625682930e-01       2.350105699149e-01 
       2.525380679504e-01       2.244152849660e-01 
       2.609898026346e-01       2.130901833761e-01 
       2.697284615565e-01       2.000988087185e-01 
       2.787655775689e-01       1.860165808543e-01 
       2.881136588829e-01       1.725144981374e-01 
       2.977863412677e-01       1.610631642935e-01 
       3.077985646929e-01       1.517577097268e-01 
       3.181667794071e-01       1.435558170283e-01 
       3.289091877812e-01       1.351778736758e-01 
       3.400460299658e-01       1.261602295401e-01 
       3.515999236474e-01       1.171976746813e-01 
       3.635962711085e-01       1.091724605839e-01 
       3.760637506334e-01       1.023044114497e-01 
       3.890349143879e-01       9.593264310046e-02 
       4.025469216825e-01       8.950241109935e-02 
       4.166424456376e-01       8.310615300210e-02 
       4.313708035863e-01       7.720990121467e-02 
       4.467893782977e-01       7.189451188291e-02 
       4.629654199664e-01       6.686262998104e-02 
       4.799783501994e-01       6.191116092666e-02 
       4.979227319373e-01       5.721528712734e-02 
       5.169121270864e-01       5.289567568778e-02 
       5.370841404489e-01       4.876210283117e-02 
       5.586070464571e-01       4.478286454275e-02 
       5.816885094930e-01       4.104350231414e-02 
       6.065870144995e-01       3.748098893147e-02 
       6.336266468475e-01       3.406695815556e-02 
       6.632156059511e-01       3.082458189959e-02 
       6.958678639263e-01       2.771790654878e-02 
       7.322247985589e-01       2.475601583460e-02 
       7.730680195114e-01       2.192766150778e-02 
       8.193049553677e-01       1.924334015389e-02 
       8.718988016039e-01       1.671559406471e-02 
       9.317218031082e-01       1.436950030656e-02 
       9.993660908989e-01       1.223477607607e-02 
       1.075037110174e+00       1.033540831060e-02 
       1.158653485707e+00       8.681089131459e-03 
       1.250099157308e+00       7.264447156176e-03 
       1.349432401273e+00       6.063712257951e-03 
       1.456947457397e+00       5.052227079663e-03 
       1.573135111331e+00       4.203009526903e-03 
       1.698621895592e+00       3.491368438351e-03 
       1.834127512934e+00       2.895806162040e-03 
       1.980444934528e+00       2.397918967998e-03 
       2.138435191726e+00       1.982129883806e-03 
       2.309029199186e+00       1.635200221682e-03 
       2.493232377687e+00       1.345982656407e-03 
       2.692130395285e+00       1.105052392742e-03 
       2.906895534573e+00       9.045034042713e-04 
       3.138793597714e+00       7.376734359550e-04 
       3.389191366484e+00       5.990123831069e-04 
       3.659564657905e+00       4.838522697541e-04 
       3.951507022538e+00       3.883128655124e-04 
       4.266739136701e+00       3.091601644349e-04 
       4.607118943941e+00       2.437075469542e-04 
       4.974652605557e+00       1.897421292905e-04 
       5.371506324689e+00       1.454358616423e-04 
       5.800019113685e+00       1.092799553579e-04 
       6.262716579983e+00       8.004339523801e-05 
       6.762325811764e+00       5.670497729153e-05 
       7.301791451110e+00       3.842389810108e-05 
       7.884293049406e+00       2.448800260034e-05 
       8.513263807261e+00       1.428267134046e-05 
       9.192410809424e+00       7.252295593818e-06 
       9.925736873929e+00       2.872763704626e-06 
       1.071756414427e+01       6.286595275701e-07 
       1.157255956364e+01       8.262648911441e-12 
       1.249576238137e+01       4.630265756697e-07 
       1.349261385375e+01       1.506180062773e-06 
       1.456898931416e+01       2.662111527549e-06 
       1.573123280165e+01       3.551473751204e-06 
       1.698619445202e+01       3.928768099823e-06 
       1.834127087176e+01       3.716181214865e-06 
       1.980444873285e+01       3.007606939840e-06 
       2.138435184532e+01       2.031785400180e-06 
       2.309029198506e+01       1.073591705575e-06 
       2.493232377636e+01       3.730905776408e-07 
       2.692130395282e+01       3.974353424109e-08 
       2.906895534573e+01       2.216929652113e-08 
       3.138793597714e+01       1.545797205113e-07 
       3.389191366484e+01       2.596038630824e-07 
       3.659564657905e+01       2.472358284387e-07 
       3.951507022538e+01       1.452134970656e-07 
       4.266739136701e+01       4.282973055966e-08 
       4.607118943941e+01       9.507980714818e-10 
       4.974652605557e+01       9.461507902094e-09 
       5.371506324689e+01       2.222445409518e-08 
       5.800019113685e+01       1.614196529756e-08 
       6.262716579983e+01       3.759336573357e-09 
       6.762325811764e+01       3.569788834214e-11 
