# Matter power spectrum P(k) at redshift z=0
# for k=1.04775e-05 to 67.6233 h/Mpc,
# number of wavenumbers equal to 246
#    1:k (h/Mpc)              2:P (Mpc/h)^3        
       1.047750691338e-05       5.020964806755e+01 
       1.131335172818e-05       5.407048206554e+01 
       1.221587619877e-05       5.822819063878e+01 
       1.319039970550e-05       6.270562589677e+01 
       1.424266598317e-05       6.752731788102e+01 
       1.537887697396e-05       7.271977200258e+01 
       1.660572938097e-05       7.831147241542e+01 
       1.793045413791e-05       8.433311815128e+01 
       1.936085902737e-05       9.081778242446e+01 
       2.090537469909e-05       9.780108061340e+01 
       2.257310435923e-05       1.053213197032e+02 
       2.437387742372e-05       1.134197377001e+02 
       2.631830745176e-05       1.221408202816e+02 
       2.841785470091e-05       1.315324720916e+02 
       3.068489367268e-05       1.416462093730e+02 
       3.313278604643e-05       1.525374500691e+02 
       3.577595943165e-05       1.642660687078e+02 
       3.862999240274e-05       1.768963504868e+02 
       4.171170631739e-05       1.904975992460e+02 
       4.503926445983e-05       2.051444490305e+02 
       4.863227909323e-05       2.209171463752e+02 
       5.251192705226e-05       2.379022222314e+02 
       5.670107455699e-05       2.561927925751e+02 
       6.122441198393e-05       2.758890441791e+02 
       6.610859938837e-05       2.970989225465e+02 
       7.138242363583e-05       3.199385558200e+02 
       7.707696806873e-05       3.445329780878e+02 
       8.322579570814e-05       3.710167315928e+02 
       8.986514707061e-05       3.995346440954e+02 
       9.703415376577e-05       4.302425403884e+02 
       1.047750691338e-04       4.633080762974e+02 
       1.131335172818e-04       4.989116267507e+02 
       1.221587619877e-04       5.372471946561e+02 
       1.319039970550e-04       5.785234124629e+02 
       1.424266598317e-04       6.229645930980e+02 
       1.537887697396e-04       6.708118484951e+02 
       1.660572938097e-04       7.223242660220e+02 
       1.793045413791e-04       7.777801553833e+02 
       1.936085902737e-04       8.374783607333e+02 
       2.090537469909e-04       9.017396264495e+02 
       2.257310435923e-04       9.709080260152e+02 
       2.437387742372e-04       1.045352448644e+03 
       2.631830745176e-04       1.125468122835e+03 
       2.841785470091e-04       1.211678179511e+03 
       3.068489367268e-04       1.304435249091e+03 
       3.313278604643e-04       1.404223052541e+03 
       3.577595943165e-04       1.511558013390e+03 
       3.862999240274e-04       1.626990836488e+03 
       4.171170631739e-04       1.751108027371e+03 
       4.503926445983e-04       1.884533381345e+03 
       4.863227909323e-04       2.027929376470e+03 
       5.251192705226e-04       2.181998446367e+03 
       5.670107455699e-04       2.347484100857e+03 
       6.122441198393e-04       2.525171869335e+03 
       6.610859938837e-04       2.715889981401e+03 
       7.138242363583e-04       2.920509686084e+03 
       7.707696806873e-04       3.139945097710e+03 
       8.322579570814e-04       3.375152334394e+03 
       8.986514707061e-04       3.627127828231e+03 
       9.703415376577e-04       3.896905450016e+03 
       1.047750691338e-03       4.185552170958e+03 
       1.131335172818e-03       4.494162426791e+03 
       1.221587619877e-03       4.823850702664e+03 
       1.319039970550e-03       5.175742740268e+03 
       1.424266598317e-03       5.551019592518e+03 
       1.537887697396e-03       5.950788335877e+03 
       1.660572938097e-03       6.376123046809e+03 
       1.793045413791e-03       6.828073896132e+03 
       1.936085902737e-03       7.307625375387e+03 
       2.090537469909e-03       7.815671845097e+03 
       2.257310435923e-03       8.352990369398e+03 
       2.437387742372e-03       8.920211057538e+03 
       2.631830745176e-03       9.517783061890e+03 
       2.841785470091e-03       1.014593703671e+04 
       3.068489367268e-03       1.080464505732e+04 
       3.313278604643e-03       1.149357459428e+04 
       3.577595943165e-03       1.221203620826e+04 
       3.862999240274e-03       1.295892538505e+04 
       4.171170631739e-03       1.373266001118e+04 
       4.503926445983e-03       1.453111834595e+04 
       4.863227909323e-03       1.535154984223e+04 
       5.251192705226e-03       1.619063613411e+04 
       5.670107455699e-03       1.704431256567e+04 
       6.122441198393e-03       1.790755938471e+04 
       6.610859938837e-03       1.877460423215e+04 
       7.138242363583e-03       1.963872429145e+04 
       7.707696806873e-03       2.049215713187e+04 
       8.322579570814e-03       2.132607230677e+04 
       8.986514707061e-03       2.213055181928e+04 
       9.703415376577e-03       2.289445470986e+04 
       1.047750691338e-02       2.360548683040e+04 
       1.131335172818e-02       2.425022856400e+04 
       1.221587619877e-02       2.481423922374e+04 
       1.319039970550e-02       2.528218657523e+04 
       1.424266598317e-02       2.563814333856e+04 
       1.537887697392e-02       2.586607452793e+04 
       1.660572938023e-02       2.595026856002e+04 
       1.793045412706e-02       2.587633549401e+04 
       1.936085890181e-02       2.563218638408e+04 
       2.090537352463e-02       2.520934748549e+04 
       2.257309535333e-02       2.460445506278e+04 
       2.437382002918e-02       2.382088276970e+04 
       2.631799944462e-02       2.287042461435e+04 
       2.841644545389e-02       2.177451062088e+04 
       3.067933355377e-02       2.056558116686e+04 
       3.311368470740e-02       1.928731675498e+04 
       3.571840443502e-02       1.799402754408e+04 
       3.847720348444e-02       1.674681203968e+04 
       4.135335538431e-02       1.560464316503e+04 
       4.429361667738e-02       1.461040409689e+04 
       4.724366439141e-02       1.378055635984e+04 
       5.016480835311e-02       1.310506487174e+04 
       5.303989620246e-02       1.255716050944e+04 
       5.586870669566e-02       1.210427807136e+04 
       5.866042680613e-02       1.171465596950e+04 
       6.142798932958e-02       1.136046985493e+04 
       6.418496440164e-02       1.101857361552e+04 
       6.694418833788e-02       1.067068732123e+04 
       6.971731106057e-02       1.030356139810e+04 
       7.251476155766e-02       9.909028891970e+03 
       7.534587671527e-02       9.483781874521e+03 
       7.821907666265e-02       9.029505393137e+03 
       8.114203772912e-02       8.552338953982e+03 
       8.412184535029e-02       8.061919840171e+03 
       8.716512279304e-02       7.570774595156e+03 
       9.027813695930e-02       7.092492828492e+03 
       9.346688431697e-02       6.640517795155e+03 
       9.673716028276e-02       6.226702391970e+03 
       1.000946150830e-01       5.859959861679e+03 
       1.035447986537e-01       5.545246479296e+03 
       1.070931966762e-01       5.283144475187e+03 
       1.107452594425e-01       5.069417372934e+03 
       1.145064249153e-01       4.895257595401e+03 
       1.183821370918e-01       4.747846324598e+03 
       1.223778605862e-01       4.611742375441e+03 
       1.264990921987e-01       4.470644256924e+03 
       1.307513701367e-01       4.310253095592e+03 
       1.351402814784e-01       4.121384389450e+03 
       1.396714684203e-01       3.902056986397e+03 
       1.443506338194e-01       3.658640182363e+03 
       1.491835465229e-01       3.404482644583e+03 
       1.541760469708e-01       3.156668779469e+03 
       1.593340535561e-01       2.931974793988e+03 
       1.646635702297e-01       2.742371907670e+03 
       1.701706958456e-01       2.592258675323e+03 
       1.758616357459e-01       2.477239502755e+03 
       1.817427160982e-01       2.385175321645e+03 
       1.878204015065e-01       2.300359111613e+03 
       1.941013164283e-01       2.205759883600e+03 
       2.005922709503e-01       2.090817623713e+03 
       2.073002914972e-01       1.956463719886e+03 
       2.142326570816e-01       1.814195879842e+03 
       2.213969417533e-01       1.679292857000e+03 
       2.288010639706e-01       1.563844508950e+03 
       2.364533437147e-01       1.472689794764e+03 
       2.443625682930e-01       1.401514662256e+03 
       2.525380679504e-01       1.338414721952e+03 
       2.609898026346e-01       1.270901903713e+03 
       2.697284615565e-01       1.193385104881e+03 
       2.787655775689e-01       1.109338112663e+03 
       2.881136588829e-01       1.028768363834e+03 
       2.977863412677e-01       9.604790023738e+02 
       3.077985646929e-01       9.050198329081e+02 
       3.181667794071e-01       8.561429529799e+02 
       3.289091877812e-01       8.061873923309e+02 
       3.400460299658e-01       7.523928575904e+02 
       3.515999236474e-01       6.989213973225e+02 
       3.635962711085e-01       6.510636573781e+02 
       3.760637506334e-01       6.101213653012e+02 
       3.890349143879e-01       5.721318584693e+02 
       4.025469216825e-01       5.337818924924e+02 
       4.166424456376e-01       4.956309565294e+02 
       4.313708035863e-01       4.604682987919e+02 
       4.467893782977e-01       4.287757572735e+02 
       4.629654199664e-01       3.987717029420e+02 
       4.799783501994e-01       3.692409906809e+02 
       4.979227319373e-01       3.412390450050e+02 
       5.169121270864e-01       3.154835075135e+02 
       5.370841404489e-01       2.908355509537e+02 
       5.586070464571e-01       2.671066634537e+02 
       5.816885094930e-01       2.448089344434e+02 
       6.065870144995e-01       2.235676325965e+02 
       6.336266468475e-01       2.032105143194e+02 
       6.632156059511e-01       1.838789823177e+02 
       6.958678639263e-01       1.653544099427e+02 
       7.322247985589e-01       1.476957603009e+02 
       7.730680195114e-01       1.308340217789e+02 
       8.193049553677e-01       1.148309801784e+02 
       8.718988016039e-01       9.976234892162e+01 
       9.317218031082e-01       8.577789734549e+01 
       9.993660908989e-01       7.305457064846e+01 
       1.075037110174e+00       6.173630130793e+01 
       1.158653485707e+00       5.187897889277e+01 
       1.250099157308e+00       4.343992548110e+01 
       1.349432401273e+00       3.628926488603e+01 
       1.456947457397e+00       3.026776267803e+01 
       1.573135111331e+00       2.521426146915e+01 
       1.698621895592e+00       2.098159432406e+01 
       1.834127512934e+00       1.744199974760e+01 
       1.980444934528e+00       1.448527594386e+01 
       2.138435191726e+00       1.201845602525e+01 
       2.309029199186e+00       9.962654365854e+00 
       2.493232377687e+00       8.251307126008e+00 
       2.692130395285e+00       6.828026437771e+00 
       2.906895534573e+00       5.645634079658e+00 
       3.138793597714e+00       4.664171224296e+00 
       3.389191366484e+00       3.850329763205e+00 
       3.659564657905e+00       3.176100133352e+00 
       3.951507022538e+00       2.617984912767e+00 
       4.266739136701e+00       2.156372549715e+00 
       4.607118943941e+00       1.774890856969e+00 
       4.974652605557e+00       1.459864004155e+00 
       5.371506324689e+00       1.199921779429e+00 
       5.800019113685e+00       9.855836756196e-01 
       6.262716579983e+00       8.089646373734e-01 
       6.762325811764e+00       6.635283195068e-01 
       7.301791451110e+00       5.438484362635e-01 
       7.884293049406e+00       4.454146550385e-01 
       8.513263807261e+00       3.645085281320e-01 
       9.192410809424e+00       2.980423704650e-01 
       9.925736873929e+00       2.434667263078e-01 
       1.071756414427e+01       1.986758716251e-01 
       1.157255956364e+01       1.619317868796e-01 
       1.249576238137e+01       1.318009356857e-01 
       1.349261385375e+01       1.071020182283e-01 
       1.456898931416e+01       8.686185609954e-02 
       1.573123280165e+01       7.028129052506e-02 
       1.698619445202e+01       5.670371817756e-02 
       1.834127087176e+01       4.558834898076e-02 
       1.980444873285e+01       3.649253307461e-02 
       2.138435184532e+01       2.905325211475e-02 
       2.309029198506e+01       2.297456382045e-02 
       2.493232377636e+01       1.801426794012e-02 
       2.692130395282e+01       1.397444650380e-02 
       2.906895534573e+01       1.069499787124e-02 
       3.138793597714e+01       8.044956195640e-03 
       3.389191366484e+01       5.918965347611e-03 
       3.659564657905e+01       4.230740513294e-03 
       3.951507022538e+01       2.910725543998e-03 
       4.266739136701e+01       1.901046528191e-03 
       4.607118943941e+01       1.153460872031e-03 
       4.974652605557e+01       6.265513159582e-04 
       5.371506324689e+01       2.829259750869e-04 
       5.800019113685e+01       8.779543551824e-05 
       6.262716579983e+01       7.507430042896e-06 
       6.762325811764e+01       8.966032781854e-06 
