# Matter power spectrum P(k) at redshift z=99
# for k=1.04775e-05 to 134.926 h/Mpc,
# number of wavenumbers equal to 255
#    1:k (h/Mpc)              2:P (Mpc/h)^3        
       1.047750691338e-05       7.261927095217e-03 
       1.131335172818e-05       7.820332150682e-03 
       1.221587619877e-05       8.421675382251e-03 
       1.319039970550e-05       9.069257737918e-03 
       1.424266598317e-05       9.766636451034e-03 
       1.537887697396e-05       1.051763973631e-02 
       1.660572938097e-05       1.132639250741e-02 
       1.793045413791e-05       1.219733201497e-02 
       1.936085902737e-05       1.313524187191e-02 
       2.090537469909e-05       1.414527084965e-02 
       2.257310435923e-05       1.523296544479e-02 
       2.437387742372e-05       1.640429654627e-02 
       2.631830745176e-05       1.766569603272e-02 
       2.841785470091e-05       1.902408711147e-02 
       3.068489367268e-05       2.048692967428e-02 
       3.313278604643e-05       2.206225467531e-02 
       3.577595943165e-05       2.375870883834e-02 
       3.862999240274e-05       2.558560669803e-02 
       4.171170631739e-05       2.755297672487e-02 
       4.503926445983e-05       2.967161933391e-02 
       4.863227909323e-05       3.195316455632e-02 
       5.251192705226e-05       3.441013466109e-02 
       5.670107455699e-05       3.705601741675e-02 
       6.122441198393e-05       3.990533412806e-02 
       6.610859938837e-05       4.297372242499e-02 
       7.138242363583e-05       4.627802054816e-02 
       7.707696806873e-05       4.983636159850e-02 
       8.322579570814e-05       5.366826786893e-02 
       8.986514707061e-05       5.779476319690e-02 
       9.703415376577e-05       6.223848221790e-02 
       1.047750691338e-04       6.702379824972e-02 
       1.131335172818e-04       7.217695031027e-02 
       1.221587619877e-04       7.772619030306e-02 
       1.319039970550e-04       8.370193379980e-02 
       1.424266598317e-04       9.013692506603e-02 
       1.537887697396e-04       9.706641130331e-02 
       1.660572938097e-04       1.045283343104e-01 
       1.793045413791e-04       1.125635329178e-01 
       1.936085902737e-04       1.212159592302e-01 
       2.090537469909e-04       1.305329107428e-01 
       2.257310435923e-04       1.405652819352e-01 
       2.437387742372e-04       1.513678275067e-01 
       2.631830745176e-04       1.629994475124e-01 
       2.841785470091e-04       1.755234890469e-01 
       3.068489367268e-04       1.890080645289e-01 
       3.313278604643e-04       2.035263977421e-01 
       3.577595943165e-04       2.191571778034e-01 
       3.862999240274e-04       2.359849423250e-01 
       4.171170631739e-04       2.541004712991e-01 
       4.503926445983e-04       2.736012061148e-01 
       4.863227909323e-04       2.945916774631e-01 
       5.251192705226e-04       3.171839507852e-01 
       5.670107455699e-04       3.414980769096e-01 
       6.122441198393e-04       3.676625416288e-01 
       6.610859938837e-04       3.958147272852e-01 
       7.138242363583e-04       4.261013332051e-01 
       7.707696806873e-04       4.586787880836e-01 
       8.322579570814e-04       4.937136112808e-01 
       8.986514707061e-04       5.313826962064e-01 
       9.703415376577e-04       5.718735176792e-01 
       1.047750691338e-03       6.153841926239e-01 
       1.131335172818e-03       6.621233623113e-01 
       1.221587619877e-03       7.123098743646e-01 
       1.319039970550e-03       7.661721263782e-01 
       1.424266598317e-03       8.239547181300e-01 
       1.537887697396e-03       8.859012282819e-01 
       1.660572938097e-03       9.522589495760e-01 
       1.793045413791e-03       1.023280284738e+00 
       1.936085902737e-03       1.099216542130e+00 
       2.090537469909e-03       1.180313285064e+00 
       2.257310435923e-03       1.266804486840e+00 
       2.437387742372e-03       1.358905328500e+00 
       2.631830745176e-03       1.456803285993e+00 
       2.841785470091e-03       1.560647663087e+00 
       3.068489367268e-03       1.670537010635e+00 
       3.313278604643e-03       1.786505039708e+00 
       3.577595943165e-03       1.908504410200e+00 
       3.862999240274e-03       2.036389468855e+00 
       4.171170631739e-03       2.169898252915e+00 
       4.503926445983e-03       2.308634492103e+00 
       4.863227909323e-03       2.452050674932e+00 
       5.251192705226e-03       2.599434681317e+00 
       5.670107455699e-03       2.749901126683e+00 
       6.122441198393e-03       2.902390058590e+00 
       6.610859938837e-03       3.055671270145e+00 
       7.138242363583e-03       3.208360123236e+00 
       7.707696806873e-03       3.358926651849e+00 
       8.322579570814e-03       3.505726890489e+00 
       8.986514707061e-03       3.647012438660e+00 
       9.703415376577e-03       3.780926180409e+00 
       1.047750691338e-02       3.905492882093e+00 
       1.131335172818e-02       4.018589827899e+00 
       1.221587619877e-02       4.117902891229e+00 
       1.319039970550e-02       4.200917703565e+00 
       1.424266598317e-02       4.264943743105e+00 
       1.537887697392e-02       4.307219675064e+00 
       1.660572938023e-02       4.325062373198e+00 
       1.793045412706e-02       4.316060365062e+00 
       1.936085890181e-02       4.278228818566e+00 
       2.090537352463e-02       4.210204485650e+00 
       2.257309535333e-02       4.111418762589e+00 
       2.437382002918e-02       3.982420952204e+00 
       2.631799944462e-02       3.825168701979e+00 
       2.841644545389e-02       3.643282263358e+00 
       3.067933355377e-02       3.442198722940e+00 
       3.311368470740e-02       3.229241616993e+00 
       3.571840443502e-02       3.013516353296e+00 
       3.847720348444e-02       2.805283964343e+00 
       4.135335538431e-02       2.614410690548e+00 
       4.429361667738e-02       2.448132210471e+00 
       4.724366439141e-02       2.309240679125e+00 
       5.016480835311e-02       2.196115230240e+00 
       5.303989620246e-02       2.104369899356e+00 
       5.586870669566e-02       2.028462638579e+00 
       5.866042680613e-02       1.963155361874e+00 
       6.142798932958e-02       1.903779763955e+00 
       6.418496440164e-02       1.846479266796e+00 
       6.694418833788e-02       1.788197533876e+00 
       6.971731106057e-02       1.726715731608e+00 
       7.251476155766e-02       1.660654432793e+00 
       7.534587671527e-02       1.589469883351e+00 
       7.821907666265e-02       1.513436588768e+00 
       8.114203772912e-02       1.433568757917e+00 
       8.412184535029e-02       1.351492232400e+00 
       8.716512279304e-02       1.269273681101e+00 
       9.027813695930e-02       1.189193085767e+00 
       9.346688431697e-02       1.113500897926e+00 
       9.673716028276e-02       1.044174289092e+00 
       1.000946150830e-01       9.827057739625e-01 
       1.035447986537e-01       9.299356293772e-01 
       1.070931966762e-01       8.859581615094e-01 
       1.107452594425e-01       8.500706728150e-01 
       1.145064249153e-01       8.208027970026e-01 
       1.183821370918e-01       7.960234440965e-01 
       1.223778605862e-01       7.731447300771e-01 
       1.264990921987e-01       7.494509741296e-01 
       1.307513701367e-01       7.225558939145e-01 
       1.351402814784e-01       6.909071482583e-01 
       1.396714684203e-01       6.541793290633e-01 
       1.443506338194e-01       6.134247916762e-01 
       1.491835465229e-01       5.708658777500e-01 
       1.541760469708e-01       5.293623312711e-01 
       1.593340535561e-01       4.917085977374e-01 
       1.646635702297e-01       4.599175116950e-01 
       1.701706958456e-01       4.347252803430e-01 
       1.758616357459e-01       4.154054744142e-01 
       1.817427160982e-01       3.999339939207e-01 
       1.878204015065e-01       3.856793911781e-01 
       1.941013164283e-01       3.698058230900e-01 
       2.005922709503e-01       3.505426584110e-01 
       2.073002914972e-01       3.280387804324e-01 
       2.142326570816e-01       3.042095279318e-01 
       2.213969417533e-01       2.816074045956e-01 
       2.288010639706e-01       2.622521723026e-01 
       2.364533437147e-01       2.469569051913e-01 
       2.443625682930e-01       2.350073703920e-01 
       2.525380679504e-01       2.244119036173e-01 
       2.609898026346e-01       2.130871937257e-01 
       2.697284615565e-01       2.000950846999e-01 
       2.787655775689e-01       1.860129530646e-01 
       2.881136588829e-01       1.725099394128e-01 
       2.977863412677e-01       1.610583437581e-01 
       3.077985646929e-01       1.517528150769e-01 
       3.181667794071e-01       1.435506980082e-01 
       3.289091877812e-01       1.351723595495e-01 
       3.400460299658e-01       1.261547126014e-01 
       3.515999236474e-01       1.171917411939e-01 
       3.635962711085e-01       1.091662624718e-01 
       3.760637506334e-01       1.022982059506e-01 
       3.890349143879e-01       9.592571306752e-02 
       4.025469216825e-01       8.949508145278e-02 
       4.166424456376e-01       8.309851298082e-02 
       4.313708035863e-01       7.720156577671e-02 
       4.467893782977e-01       7.188589527918e-02 
       4.629654199664e-01       6.685350882785e-02 
       4.799783501994e-01       6.190121355340e-02 
       4.979227319373e-01       5.720495016994e-02 
       5.169121270864e-01       5.288465460671e-02 
       5.370841404489e-01       4.875039302669e-02 
       5.586070464571e-01       4.477047014878e-02 
       5.816885094930e-01       4.103032277199e-02 
       6.065870144995e-01       3.746701450359e-02 
       6.336266468475e-01       3.405197884288e-02 
       6.632156059511e-01       3.080870123964e-02 
       6.958678639263e-01       2.770070913558e-02 
       7.322247985589e-01       2.473750158294e-02 
       7.730680195114e-01       2.190774222335e-02 
       8.193049553677e-01       1.922176821683e-02 
       8.718988016039e-01       1.669200524406e-02 
       9.317218031082e-01       1.434361183438e-02 
       9.993660908989e-01       1.220627084219e-02 
       1.075037110174e+00       1.030400508130e-02 
       1.158653485707e+00       8.646444239656e-03 
       1.250099157308e+00       7.226234650239e-03 
       1.349432401273e+00       6.021633451121e-03 
       1.456947457397e+00       5.006032218469e-03 
       1.573135111331e+00       4.152382639474e-03 
       1.698621895592e+00       3.436031333263e-03 
       1.834127512934e+00       2.835558571841e-03 
       1.980444934528e+00       2.332539816537e-03 
       2.138435191726e+00       1.911453377472e-03 
       2.309029199186e+00       1.559128923769e-03 
       2.493232377687e+00       1.264532225626e-03 
       2.692130395285e+00       1.018342551838e-03 
       2.906895534573e+00       8.128285199170e-04 
       3.138793597714e+00       6.415246840013e-04 
       3.389191366484e+00       4.990901920337e-04 
       3.659564657905e+00       3.811595949030e-04 
       3.951507022538e+00       2.841496944601e-04 
       4.266739136701e+00       2.051818445093e-04 
       4.607118943941e+00       1.418925611140e-04 
       4.974652605557e+00       9.240254817483e-05 
       5.371506324689e+00       5.510367235744e-05 
       5.800019113685e+00       2.859683187200e-05 
       6.262716579983e+00       1.153739189416e-05 
       6.762325811764e+00       2.528255672418e-06 
       7.301791451110e+00       2.301745044996e-09 
       7.884293049406e+00       2.193719324111e-06 
       8.513263807261e+00       7.162612947906e-06 
       9.192410809424e+00       1.286589953089e-05 
       9.925736873929e+00       1.745761336089e-05 
       1.071756414427e+01       1.954416035153e-05 
       1.157255956364e+01       1.853870364220e-05 
       1.249576238137e+01       1.478652639497e-05 
       1.349261385375e+01       9.526376932539e-06 
       1.456898931416e+01       4.459417468362e-06 
       1.573123280165e+01       1.080185060351e-06 
       1.698619445202e+01       3.413964893782e-11 
       1.834127087176e+01       6.941656105191e-07 
       1.980444873285e+01       1.843130076631e-06 
       2.138435184532e+01       2.246998278739e-06 
       2.309029198506e+01       1.603120007807e-06 
       2.493232377636e+01       5.918826085378e-07 
       2.692130395282e+01       3.287111362077e-08 
       2.906895534573e+01       9.551722985970e-08 
       3.138793597714e+01       2.920360742172e-07 
       3.389191366484e+01       2.330062836201e-07 
       3.659564657905e+01       4.995208009968e-08 
       3.951507022538e+01       3.038781981944e-09 
       4.266739136701e+01       3.851254821263e-08 
       4.607118943941e+01       2.463134782733e-08 
       4.974652605557e+01       8.989834867347e-10 
       5.371506324689e+01       4.524277889243e-09 
       5.800019113685e+01       4.312357588178e-09 
       6.262716579983e+01       1.066067298593e-11 
       6.762325811764e+01       4.830159274863e-10 
       7.301791451110e+01       1.506707527876e-11 
       7.884293049406e+01       5.381913756995e-12 
       8.513263807261e+01       1.625638406443e-10 
       9.192410809424e+01       1.945913863587e-12 
       9.925736873929e+01       7.150226516129e-11 
       1.071756414427e+02       6.928354514977e-10 
       1.157255956364e+02       3.902120603736e-10 
       1.249576238137e+02       1.361793538154e-10 
       1.349261385375e+02       4.570178003059e-09 
