# Matter power spectrum P(k) at redshift z=0
# for k=1.04775e-05 to 67.6233 h/Mpc,
# number of wavenumbers equal to 246
#    1:k (h/Mpc)              2:P (Mpc/h)^3        
       1.047750691338e-05       5.020964806749e+01 
       1.131335172818e-05       5.407048206554e+01 
       1.221587619877e-05       5.822819063893e+01 
       1.319039970550e-05       6.270562589678e+01 
       1.424266598317e-05       6.752731788102e+01 
       1.537887697396e-05       7.271977200257e+01 
       1.660572938097e-05       7.831147241542e+01 
       1.793045413791e-05       8.433311815128e+01 
       1.936085902737e-05       9.081778242446e+01 
       2.090537469909e-05       9.780108061340e+01 
       2.257310435923e-05       1.053213197032e+02 
       2.437387742372e-05       1.134197377001e+02 
       2.631830745176e-05       1.221408202816e+02 
       2.841785470091e-05       1.315324720916e+02 
       3.068489367268e-05       1.416462093729e+02 
       3.313278604643e-05       1.525374500691e+02 
       3.577595943165e-05       1.642660687078e+02 
       3.862999240274e-05       1.768963504868e+02 
       4.171170631739e-05       1.904975992460e+02 
       4.503926445983e-05       2.051444490305e+02 
       4.863227909323e-05       2.209171463752e+02 
       5.251192705226e-05       2.379022222314e+02 
       5.670107455699e-05       2.561927925711e+02 
       6.122441198393e-05       2.758890441791e+02 
       6.610859938837e-05       2.970989225465e+02 
       7.138242363583e-05       3.199385558200e+02 
       7.707696806873e-05       3.445329780878e+02 
       8.322579570814e-05       3.710167315928e+02 
       8.986514707061e-05       3.995346440954e+02 
       9.703415376577e-05       4.302425403884e+02 
       1.047750691338e-04       4.633080762974e+02 
       1.131335172818e-04       4.989116267507e+02 
       1.221587619877e-04       5.372471946561e+02 
       1.319039970550e-04       5.785234124638e+02 
       1.424266598317e-04       6.229645930980e+02 
       1.537887697396e-04       6.708118484951e+02 
       1.660572938097e-04       7.223242660220e+02 
       1.793045413791e-04       7.777801554306e+02 
       1.936085902737e-04       8.374783607333e+02 
       2.090537469909e-04       9.017396264495e+02 
       2.257310435923e-04       9.709080260152e+02 
       2.437387742372e-04       1.045352448644e+03 
       2.631830745176e-04       1.125468122836e+03 
       2.841785470091e-04       1.211678179511e+03 
       3.068489367268e-04       1.304435249091e+03 
       3.313278604643e-04       1.404223052541e+03 
       3.577595943165e-04       1.511558013390e+03 
       3.862999240274e-04       1.626990836486e+03 
       4.171170631739e-04       1.751108027371e+03 
       4.503926445983e-04       1.884533381345e+03 
       4.863227909323e-04       2.027929376469e+03 
       5.251192705226e-04       2.181998446367e+03 
       5.670107455699e-04       2.347484100857e+03 
       6.122441198393e-04       2.525171869335e+03 
       6.610859938837e-04       2.715889981400e+03 
       7.138242363583e-04       2.920509686093e+03 
       7.707696806873e-04       3.139945097710e+03 
       8.322579570814e-04       3.375152334396e+03 
       8.986514707061e-04       3.627127828231e+03 
       9.703415376577e-04       3.896905450016e+03 
       1.047750691338e-03       4.185552170960e+03 
       1.131335172818e-03       4.494162426791e+03 
       1.221587619877e-03       4.823850702669e+03 
       1.319039970550e-03       5.175742739873e+03 
       1.424266598317e-03       5.551019592514e+03 
       1.537887697396e-03       5.950788335884e+03 
       1.660572938097e-03       6.376123046804e+03 
       1.793045413791e-03       6.828073896111e+03 
       1.936085902737e-03       7.307625375387e+03 
       2.090537469909e-03       7.815671855724e+03 
       2.257310435923e-03       8.352990369399e+03 
       2.437387742372e-03       8.920211057538e+03 
       2.631830745176e-03       9.517783061890e+03 
       2.841785470091e-03       1.014593703671e+04 
       3.068489367268e-03       1.080464505742e+04 
       3.313278604643e-03       1.149357459546e+04 
       3.577595943165e-03       1.221203620826e+04 
       3.862999240274e-03       1.295892538506e+04 
       4.171170631739e-03       1.373266002015e+04 
       4.503926445983e-03       1.453111834595e+04 
       4.863227909323e-03       1.535154984226e+04 
       5.251192705226e-03       1.619063613430e+04 
       5.670107455699e-03       1.704431256592e+04 
       6.122441198393e-03       1.790755938460e+04 
       6.610859938837e-03       1.877460421271e+04 
       7.138242363583e-03       1.963872429106e+04 
       7.707696806873e-03       2.049215713254e+04 
       8.322579570814e-03       2.132607230533e+04 
       8.986514707061e-03       2.213055084712e+04 
       9.703415376577e-03       2.289445470840e+04 
       1.047750691338e-02       2.360548331688e+04 
       1.131335172818e-02       2.425023101777e+04 
       1.221587619877e-02       2.481423922676e+04 
       1.319039970550e-02       2.528218636144e+04 
       1.424266598317e-02       2.563813716778e+04 
       1.537887697392e-02       2.586606293363e+04 
       1.660572938023e-02       2.595026891647e+04 
       1.793045412706e-02       2.587635872908e+04 
       1.936085890181e-02       2.563219970780e+04 
       2.090537352463e-02       2.520936214174e+04 
       2.257309535333e-02       2.460446399877e+04 
       2.437382002918e-02       2.382089055882e+04 
       2.631799944462e-02       2.287045837395e+04 
       2.841644545389e-02       2.177448037010e+04 
       3.067933355377e-02       2.056556186369e+04 
       3.311368470740e-02       1.928726228911e+04 
       3.571840443502e-02       1.799400482628e+04 
       3.847720348444e-02       1.674678772979e+04 
       4.135335538431e-02       1.560462177708e+04 
       4.429361667738e-02       1.461039545682e+04 
       4.724366439141e-02       1.378052128047e+04 
       5.016480835311e-02       1.310508785733e+04 
       5.303989620246e-02       1.255715369677e+04 
       5.586870669566e-02       1.210424391420e+04 
       5.866042680613e-02       1.171464867053e+04 
       6.142798932958e-02       1.136046604603e+04 
       6.418496440164e-02       1.101857097030e+04 
       6.694418833788e-02       1.067067580081e+04 
       6.971731106057e-02       1.030357100211e+04 
       7.251476155766e-02       9.908997753032e+03 
       7.534587671527e-02       9.483774955778e+03 
       7.821907666265e-02       9.029482551868e+03 
       8.114203772912e-02       8.552323765655e+03 
       8.412184535029e-02       8.061949286270e+03 
       8.716512279304e-02       7.570780670485e+03 
       9.027813695930e-02       7.092513803412e+03 
       9.346688431697e-02       6.640502965865e+03 
       9.673716028276e-02       6.226702909661e+03 
       1.000946150830e-01       5.859936884872e+03 
       1.035447986537e-01       5.545240817495e+03 
       1.070931966762e-01       5.283137217073e+03 
       1.107452594425e-01       5.069422482497e+03 
       1.145064249153e-01       4.895251188851e+03 
       1.183821370918e-01       4.747866127806e+03 
       1.223778605862e-01       4.611740218265e+03 
       1.264990921987e-01       4.470616913035e+03 
       1.307513701367e-01       4.310273059108e+03 
       1.351402814784e-01       4.121394239249e+03 
       1.396714684203e-01       3.902046720891e+03 
       1.443506338194e-01       3.658643826345e+03 
       1.491835465229e-01       3.404483712607e+03 
       1.541760469708e-01       3.156671501771e+03 
       1.593340535561e-01       2.931976578894e+03 
       1.646635702297e-01       2.742373650875e+03 
       1.701706958456e-01       2.592264467883e+03 
       1.758616357459e-01       2.477243864401e+03 
       1.817427160982e-01       2.385184208040e+03 
       1.878204015065e-01       2.300362136638e+03 
       1.941013164283e-01       2.205758806373e+03 
       2.005922709503e-01       2.090812179241e+03 
       2.073002914972e-01       1.956470596867e+03 
       2.142326570816e-01       1.814194253749e+03 
       2.213969417533e-01       1.679300254941e+03 
       2.288010639706e-01       1.563846628878e+03 
       2.364533437147e-01       1.472689053257e+03 
       2.443625682930e-01       1.401513641805e+03 
       2.525380679504e-01       1.338413910261e+03 
       2.609898026346e-01       1.270905261204e+03 
       2.697284615565e-01       1.193384487726e+03 
       2.787655775689e-01       1.109339784389e+03 
       2.881136588829e-01       1.028770338678e+03 
       2.977863412677e-01       9.604807999754e+02 
       3.077985646929e-01       9.050245986867e+02 
       3.181667794071e-01       8.561452325515e+02 
       3.289091877812e-01       8.061882150371e+02 
       3.400460299658e-01       7.523927741634e+02 
       3.515999236474e-01       6.989240661852e+02 
       3.635962711085e-01       6.510631755553e+02 
       3.760637506334e-01       6.101221615216e+02 
       3.890349143879e-01       5.721323652359e+02 
       4.025469216825e-01       5.337805085483e+02 
       4.166424456376e-01       4.956318698410e+02 
       4.313708035863e-01       4.604684525343e+02 
       4.467893782977e-01       4.287780815852e+02 
       4.629654199664e-01       3.987727582528e+02 
       4.799783501994e-01       3.692421140544e+02 
       4.979227319373e-01       3.412399181637e+02 
       5.169121270864e-01       3.154839521637e+02 
       5.370841404489e-01       2.908361522967e+02 
       5.586070464571e-01       2.671068350189e+02 
       5.816885094930e-01       2.448092837533e+02 
       6.065870144995e-01       2.235676090664e+02 
       6.336266468475e-01       2.032110584873e+02 
       6.632156059511e-01       1.838791342706e+02 
       6.958678639263e-01       1.653544690115e+02 
       7.322247985589e-01       1.476957317205e+02 
       7.730680195114e-01       1.308337946571e+02 
       8.193049553677e-01       1.148310328649e+02 
       8.718988016039e-01       9.976241536138e+01 
       9.317218031082e-01       8.577801936722e+01 
       9.993660908989e-01       7.305501322149e+01 
       1.075037110174e+00       6.173579100803e+01 
       1.158653485707e+00       5.187917142799e+01 
       1.250099157308e+00       4.344020676237e+01 
       1.349432401273e+00       3.628943434074e+01 
       1.456947457397e+00       3.026795667605e+01 
       1.573135111331e+00       2.521455936025e+01 
       1.698621895592e+00       2.098198859070e+01 
       1.834127512934e+00       1.744241922885e+01 
       1.980444934528e+00       1.448570485525e+01 
       2.138435191726e+00       1.201893157577e+01 
       2.309029199186e+00       9.963143013740e+00 
       2.493232377687e+00       8.251829253604e+00 
       2.692130395285e+00       6.828635083896e+00 
       2.906895534573e+00       5.646250834386e+00 
       3.138793597714e+00       4.664852321814e+00 
       3.389191366484e+00       3.851123971868e+00 
       3.659564657905e+00       3.176933003045e+00 
       3.951507022538e+00       2.618864533313e+00 
       4.266739136701e+00       2.157350207016e+00 
       4.607118943941e+00       1.775940059066e+00 
       4.974652605557e+00       1.460990311976e+00 
       5.371506324689e+00       1.201115685402e+00 
       5.800019113685e+00       9.868706788583e-01 
       6.262716579983e+00       8.103434171412e-01 
       6.762325811764e+00       6.650058014229e-01 
       7.301791451110e+00       5.454154947857e-01 
       7.884293049406e+00       4.470839454080e-01 
       8.513263807261e+00       3.662872196117e-01 
       9.192410809424e+00       2.999290976922e-01 
       9.925736873929e+00       2.454659584534e-01 
       1.071756414427e+01       2.007937116303e-01 
       1.157255956364e+01       1.641670225201e-01 
       1.249576238137e+01       1.341597493547e-01 
       1.349261385375e+01       1.095844342209e-01 
       1.456898931416e+01       8.946841254825e-02 
       1.573123280165e+01       7.301250916108e-02 
       1.698619445202e+01       5.955493316273e-02 
       1.834127087176e+01       4.855634175799e-02 
       1.980444873285e+01       3.957083058075e-02 
       2.138435184532e+01       3.223285745986e-02 
       2.309029198506e+01       2.624367720913e-02 
       2.493232377636e+01       2.135681526220e-02 
       2.692130395282e+01       1.737110112246e-02 
       2.906895534573e+01       1.412184710888e-02 
       3.138793597714e+01       1.147363682621e-02 
       3.389191366484e+01       9.316209842367e-03 
       3.659564657905e+01       7.559184115991e-03 
       3.951507022538e+01       6.128846302513e-03 
       4.266739136701e+01       4.964643237450e-03 
       4.607118943941e+01       4.017306892011e-03 
       4.974652605557e+01       3.246671717439e-03 
       5.371506324689e+01       2.620014390061e-03 
       5.800019113685e+01       2.110464998647e-03 
       6.262716579983e+01       1.696275906521e-03 
       6.762325811764e+01       1.359734557665e-03 
