# Matter power spectrum P(k) at redshift z=0
# for k=1.04775e-05 to 67.6233 h/Mpc,
# number of wavenumbers equal to 246
#    1:k (h/Mpc)              2:P (Mpc/h)^3        
       1.047750691338e-05       5.020964806751e+01 
       1.131335172818e-05       5.407048206554e+01 
       1.221587619877e-05       5.822819064003e+01 
       1.319039970550e-05       6.270562589685e+01 
       1.424266598317e-05       6.752731788102e+01 
       1.537887697396e-05       7.271977200258e+01 
       1.660572938097e-05       7.831147241542e+01 
       1.793045413791e-05       8.433311815128e+01 
       1.936085902737e-05       9.081778242446e+01 
       2.090537469909e-05       9.780108061341e+01 
       2.257310435923e-05       1.053213197032e+02 
       2.437387742372e-05       1.134197377001e+02 
       2.631830745176e-05       1.221408202816e+02 
       2.841785470091e-05       1.315324720916e+02 
       3.068489367268e-05       1.416462093730e+02 
       3.313278604643e-05       1.525374500691e+02 
       3.577595943165e-05       1.642660687078e+02 
       3.862999240274e-05       1.768963504868e+02 
       4.171170631739e-05       1.904975992460e+02 
       4.503926445983e-05       2.051444490305e+02 
       4.863227909323e-05       2.209171463752e+02 
       5.251192705226e-05       2.379022222314e+02 
       5.670107455699e-05       2.561927925679e+02 
       6.122441198393e-05       2.758890441791e+02 
       6.610859938837e-05       2.970989225466e+02 
       7.138242363583e-05       3.199385558200e+02 
       7.707696806873e-05       3.445329780878e+02 
       8.322579570814e-05       3.710167315928e+02 
       8.986514707061e-05       3.995346440954e+02 
       9.703415376577e-05       4.302425403884e+02 
       1.047750691338e-04       4.633080762974e+02 
       1.131335172818e-04       4.989116267507e+02 
       1.221587619877e-04       5.372471946561e+02 
       1.319039970550e-04       5.785234124636e+02 
       1.424266598317e-04       6.229645930980e+02 
       1.537887697396e-04       6.708118484951e+02 
       1.660572938097e-04       7.223242660220e+02 
       1.793045413791e-04       7.777801553027e+02 
       1.936085902737e-04       8.374783607333e+02 
       2.090537469909e-04       9.017396264495e+02 
       2.257310435923e-04       9.709080260152e+02 
       2.437387742372e-04       1.045352448644e+03 
       2.631830745176e-04       1.125468122836e+03 
       2.841785470091e-04       1.211678179511e+03 
       3.068489367268e-04       1.304435249091e+03 
       3.313278604643e-04       1.404223052541e+03 
       3.577595943165e-04       1.511558013390e+03 
       3.862999240274e-04       1.626990836493e+03 
       4.171170631739e-04       1.751108027370e+03 
       4.503926445983e-04       1.884533381345e+03 
       4.863227909323e-04       2.027929376470e+03 
       5.251192705226e-04       2.181998446367e+03 
       5.670107455699e-04       2.347484100857e+03 
       6.122441198393e-04       2.525171869337e+03 
       6.610859938837e-04       2.715889981401e+03 
       7.138242363583e-04       2.920509686088e+03 
       7.707696806873e-04       3.139945097711e+03 
       8.322579570814e-04       3.375152334397e+03 
       8.986514707061e-04       3.627127828231e+03 
       9.703415376577e-04       3.896905450016e+03 
       1.047750691338e-03       4.185552170958e+03 
       1.131335172818e-03       4.494162426791e+03 
       1.221587619877e-03       4.823850702663e+03 
       1.319039970550e-03       5.175742739272e+03 
       1.424266598317e-03       5.551019592514e+03 
       1.537887697396e-03       5.950788335870e+03 
       1.660572938097e-03       6.376123046807e+03 
       1.793045413791e-03       6.828073896118e+03 
       1.936085902737e-03       7.307625375387e+03 
       2.090537469909e-03       7.815671860197e+03 
       2.257310435923e-03       8.352990369396e+03 
       2.437387742372e-03       8.920211057545e+03 
       2.631830745176e-03       9.517783061890e+03 
       2.841785470091e-03       1.014593703671e+04 
       3.068489367268e-03       1.080464505734e+04 
       3.313278604643e-03       1.149357459422e+04 
       3.577595943165e-03       1.221203620826e+04 
       3.862999240274e-03       1.295892538505e+04 
       4.171170631739e-03       1.373266002294e+04 
       4.503926445983e-03       1.453111834595e+04 
       4.863227909323e-03       1.535154984227e+04 
       5.251192705226e-03       1.619063613436e+04 
       5.670107455699e-03       1.704431256580e+04 
       6.122441198393e-03       1.790755938458e+04 
       6.610859938837e-03       1.877460417943e+04 
       7.138242363583e-03       1.963872429094e+04 
       7.707696806873e-03       2.049215713324e+04 
       8.322579570814e-03       2.132607230591e+04 
       8.986514707061e-03       2.213055074727e+04 
       9.703415376577e-03       2.289445470787e+04 
       1.047750691338e-02       2.360549294620e+04 
       1.131335172818e-02       2.425023101435e+04 
       1.221587619877e-02       2.481423921507e+04 
       1.319039970550e-02       2.528218671539e+04 
       1.424266598317e-02       2.563814406698e+04 
       1.537887697392e-02       2.586607202011e+04 
       1.660572938023e-02       2.595029365373e+04 
       1.793045412706e-02       2.587634500492e+04 
       1.936085890181e-02       2.563220555180e+04 
       2.090537352463e-02       2.520935437983e+04 
       2.257309535333e-02       2.460445907346e+04 
       2.437382002918e-02       2.382089462296e+04 
       2.631799944462e-02       2.287045142506e+04 
       2.841644545389e-02       2.177451059026e+04 
       3.067933355377e-02       2.056556302693e+04 
       3.311368470740e-02       1.928730684694e+04 
       3.571840443502e-02       1.799399909048e+04 
       3.847720348444e-02       1.674686183990e+04 
       4.135335538431e-02       1.560457212607e+04 
       4.429361667738e-02       1.461035042087e+04 
       4.724366439141e-02       1.378053766279e+04 
       5.016480835311e-02       1.310508197538e+04 
       5.303989620246e-02       1.255712928847e+04 
       5.586870669566e-02       1.210425616599e+04 
       5.866042680613e-02       1.171462962243e+04 
       6.142798932958e-02       1.136053590118e+04 
       6.418496440164e-02       1.101857659821e+04 
       6.694418833788e-02       1.067069783385e+04 
       6.971731106057e-02       1.030357468057e+04 
       7.251476155766e-02       9.908986776797e+03 
       7.534587671527e-02       9.483767391046e+03 
       7.821907666265e-02       9.029507865919e+03 
       8.114203772912e-02       8.552327308956e+03 
       8.412184535029e-02       8.061948991908e+03 
       8.716512279304e-02       7.570791623461e+03 
       9.027813695930e-02       7.092508726706e+03 
       9.346688431697e-02       6.640496610021e+03 
       9.673716028276e-02       6.226697488470e+03 
       1.000946150830e-01       5.859942412065e+03 
       1.035447986537e-01       5.545224265143e+03 
       1.070931966762e-01       5.283130823754e+03 
       1.107452594425e-01       5.069417556620e+03 
       1.145064249153e-01       4.895251990214e+03 
       1.183821370918e-01       4.747844370882e+03 
       1.223778605862e-01       4.611741974168e+03 
       1.264990921987e-01       4.470625946257e+03 
       1.307513701367e-01       4.310271484073e+03 
       1.351402814784e-01       4.121396566164e+03 
       1.396714684203e-01       3.902067401601e+03 
       1.443506338194e-01       3.658637782240e+03 
       1.491835465229e-01       3.404482182503e+03 
       1.541760469708e-01       3.156675284321e+03 
       1.593340535561e-01       2.931974039369e+03 
       1.646635702297e-01       2.742372753337e+03 
       1.701706958456e-01       2.592256554977e+03 
       1.758616357459e-01       2.477242329733e+03 
       1.817427160982e-01       2.385180567298e+03 
       1.878204015065e-01       2.300356838862e+03 
       1.941013164283e-01       2.205752783284e+03 
       2.005922709503e-01       2.090813105824e+03 
       2.073002914972e-01       1.956470866381e+03 
       2.142326570816e-01       1.814197330509e+03 
       2.213969417533e-01       1.679297406902e+03 
       2.288010639706e-01       1.563847011603e+03 
       2.364533437147e-01       1.472686137702e+03 
       2.443625682930e-01       1.401513505361e+03 
       2.525380679504e-01       1.338413071693e+03 
       2.609898026346e-01       1.270903030185e+03 
       2.697284615565e-01       1.193381277463e+03 
       2.787655775689e-01       1.109337882741e+03 
       2.881136588829e-01       1.028770463757e+03 
       2.977863412677e-01       9.604836521499e+02 
       3.077985646929e-01       9.050230469005e+02 
       3.181667794071e-01       8.561457689995e+02 
       3.289091877812e-01       8.061893371667e+02 
       3.400460299658e-01       7.523908268889e+02 
       3.515999236474e-01       6.989222141447e+02 
       3.635962711085e-01       6.510659075036e+02 
       3.760637506334e-01       6.101227719614e+02 
       3.890349143879e-01       5.721328617193e+02 
       4.025469216825e-01       5.337841282283e+02 
       4.166424456376e-01       4.956324243280e+02 
       4.313708035863e-01       4.604710776137e+02 
       4.467893782977e-01       4.287789045815e+02 
       4.629654199664e-01       3.987739185363e+02 
       4.799783501994e-01       3.692421963372e+02 
       4.979227319373e-01       3.412407960816e+02 
       5.169121270864e-01       3.154845662285e+02 
       5.370841404489e-01       2.908363496068e+02 
       5.586070464571e-01       2.671071321223e+02 
       5.816885094930e-01       2.448103170949e+02 
       6.065870144995e-01       2.235684136678e+02 
       6.336266468475e-01       2.032108785865e+02 
       6.632156059511e-01       1.838793771758e+02 
       6.958678639263e-01       1.653550532862e+02 
       7.322247985589e-01       1.476959581419e+02 
       7.730680195114e-01       1.308342070388e+02 
       8.193049553677e-01       1.148315710834e+02 
       8.718988016039e-01       9.976252254574e+01 
       9.317218031082e-01       8.577832729136e+01 
       9.993660908989e-01       7.305497628448e+01 
       1.075037110174e+00       6.173625224754e+01 
       1.158653485707e+00       5.187947974334e+01 
       1.250099157308e+00       4.344035318615e+01 
       1.349432401273e+00       3.628969731579e+01 
       1.456947457397e+00       3.026815462132e+01 
       1.573135111331e+00       2.521465063593e+01 
       1.698621895592e+00       2.098209713901e+01 
       1.834127512934e+00       1.744249543134e+01 
       1.980444934528e+00       1.448573899546e+01 
       2.138435191726e+00       1.201899247207e+01 
       2.309029199186e+00       9.963219841158e+00 
       2.493232377687e+00       8.251876569511e+00 
       2.692130395285e+00       6.828661255615e+00 
       2.906895534573e+00       5.646301433221e+00 
       3.138793597714e+00       4.664920255348e+00 
       3.389191366484e+00       3.851138762386e+00 
       3.659564657905e+00       3.176963018520e+00 
       3.951507022538e+00       2.618898842120e+00 
       4.266739136701e+00       2.157358068039e+00 
       4.607118943941e+00       1.775945623005e+00 
       4.974652605557e+00       1.460993743085e+00 
       5.371506324689e+00       1.201140845283e+00 
       5.800019113685e+00       9.868797644328e-01 
       6.262716579983e+00       8.103547485605e-01 
       6.762325811764e+00       6.650111992630e-01 
       7.301791451110e+00       5.454246639283e-01 
       7.884293049406e+00       4.471018808645e-01 
       8.513263807261e+00       3.662983990655e-01 
       9.192410809424e+00       2.999433988112e-01 
       9.925736873929e+00       2.454835889249e-01 
       1.071756414427e+01       2.008074846583e-01 
       1.157255956364e+01       1.641838076288e-01 
       1.249576238137e+01       1.341759674390e-01 
       1.349261385375e+01       1.096022326681e-01 
       1.456898931416e+01       8.948931727605e-02 
       1.573123280165e+01       7.303394410167e-02 
       1.698619445202e+01       5.957865968482e-02 
       1.834127087176e+01       4.858101102373e-02 
       1.980444873285e+01       3.959728366594e-02 
       2.138435184532e+01       3.226108200857e-02 
       2.309029198506e+01       2.627354029845e-02 
       2.493232377636e+01       2.138860642884e-02 
       2.692130395282e+01       1.740478434309e-02 
       2.906895534573e+01       1.415748808312e-02 
       3.138793597714e+01       1.151130272831e-02 
       3.389191366484e+01       9.356091249081e-03 
       3.659564657905e+01       7.601246576107e-03 
       3.951507022538e+01       6.173134637841e-03 
       4.266739136701e+01       5.011184413274e-03 
       4.607118943941e+01       4.066201749168e-03 
       4.974652605557e+01       3.298022629479e-03 
       5.371506324689e+01       2.673709986153e-03 
       5.800019113685e+01       2.166565110174e-03 
       6.262716579983e+01       1.754768072865e-03 
       6.762325811764e+01       1.420471293203e-03 
