# Matter power spectrum P(k) at redshift z=0
# for k=1.04775e-05 to 67.6233 h/Mpc,
# number of wavenumbers equal to 246
#    1:k (h/Mpc)              2:P (Mpc/h)^3        
       1.047750691338e-05       5.020964806751e+01 
       1.131335172818e-05       5.407048206554e+01 
       1.221587619877e-05       5.822819063825e+01 
       1.319039970550e-05       6.270562589684e+01 
       1.424266598317e-05       6.752731788102e+01 
       1.537887697396e-05       7.271977200258e+01 
       1.660572938097e-05       7.831147241542e+01 
       1.793045413791e-05       8.433311815128e+01 
       1.936085902737e-05       9.081778242446e+01 
       2.090537469909e-05       9.780108061341e+01 
       2.257310435923e-05       1.053213197032e+02 
       2.437387742372e-05       1.134197377001e+02 
       2.631830745176e-05       1.221408202816e+02 
       2.841785470091e-05       1.315324720916e+02 
       3.068489367268e-05       1.416462093730e+02 
       3.313278604643e-05       1.525374500691e+02 
       3.577595943165e-05       1.642660687078e+02 
       3.862999240274e-05       1.768963504868e+02 
       4.171170631739e-05       1.904975992460e+02 
       4.503926445983e-05       2.051444490305e+02 
       4.863227909323e-05       2.209171463752e+02 
       5.251192705226e-05       2.379022222314e+02 
       5.670107455699e-05       2.561927925481e+02 
       6.122441198393e-05       2.758890441791e+02 
       6.610859938837e-05       2.970989225465e+02 
       7.138242363583e-05       3.199385558200e+02 
       7.707696806873e-05       3.445329780878e+02 
       8.322579570814e-05       3.710167315928e+02 
       8.986514707061e-05       3.995346440954e+02 
       9.703415376577e-05       4.302425403884e+02 
       1.047750691338e-04       4.633080762974e+02 
       1.131335172818e-04       4.989116267507e+02 
       1.221587619877e-04       5.372471946561e+02 
       1.319039970550e-04       5.785234124632e+02 
       1.424266598317e-04       6.229645930980e+02 
       1.537887697396e-04       6.708118484951e+02 
       1.660572938097e-04       7.223242660220e+02 
       1.793045413791e-04       7.777801552777e+02 
       1.936085902737e-04       8.374783607334e+02 
       2.090537469909e-04       9.017396264495e+02 
       2.257310435923e-04       9.709080260152e+02 
       2.437387742372e-04       1.045352448644e+03 
       2.631830745176e-04       1.125468122836e+03 
       2.841785470091e-04       1.211678179511e+03 
       3.068489367268e-04       1.304435249091e+03 
       3.313278604643e-04       1.404223052541e+03 
       3.577595943165e-04       1.511558013390e+03 
       3.862999240274e-04       1.626990836511e+03 
       4.171170631739e-04       1.751108027370e+03 
       4.503926445983e-04       1.884533381345e+03 
       4.863227909323e-04       2.027929376471e+03 
       5.251192705226e-04       2.181998446367e+03 
       5.670107455699e-04       2.347484100857e+03 
       6.122441198393e-04       2.525171869338e+03 
       6.610859938837e-04       2.715889981401e+03 
       7.138242363583e-04       2.920509686089e+03 
       7.707696806873e-04       3.139945097711e+03 
       8.322579570814e-04       3.375152334397e+03 
       8.986514707061e-04       3.627127828231e+03 
       9.703415376577e-04       3.896905450016e+03 
       1.047750691338e-03       4.185552170957e+03 
       1.131335172818e-03       4.494162426791e+03 
       1.221587619877e-03       4.823850702665e+03 
       1.319039970550e-03       5.175742734734e+03 
       1.424266598317e-03       5.551019592514e+03 
       1.537887697396e-03       5.950788335881e+03 
       1.660572938097e-03       6.376123046807e+03 
       1.793045413791e-03       6.828073896115e+03 
       1.936085902737e-03       7.307625375386e+03 
       2.090537469909e-03       7.815671856125e+03 
       2.257310435923e-03       8.352990369404e+03 
       2.437387742372e-03       8.920211057541e+03 
       2.631830745176e-03       9.517783061890e+03 
       2.841785470091e-03       1.014593703671e+04 
       3.068489367268e-03       1.080464505743e+04 
       3.313278604643e-03       1.149357459544e+04 
       3.577595943165e-03       1.221203620826e+04 
       3.862999240274e-03       1.295892538505e+04 
       4.171170631739e-03       1.373266002242e+04 
       4.503926445983e-03       1.453111834595e+04 
       4.863227909323e-03       1.535154984227e+04 
       5.251192705226e-03       1.619063613436e+04 
       5.670107455699e-03       1.704431256624e+04 
       6.122441198393e-03       1.790755938450e+04 
       6.610859938837e-03       1.877460418692e+04 
       7.138242363583e-03       1.963872429096e+04 
       7.707696806873e-03       2.049215713754e+04 
       8.322579570814e-03       2.132607230531e+04 
       8.986514707061e-03       2.213055073594e+04 
       9.703415376577e-03       2.289445470782e+04 
       1.047750691338e-02       2.360548933183e+04 
       1.131335172818e-02       2.425022936995e+04 
       1.221587619877e-02       2.481423923677e+04 
       1.319039970550e-02       2.528218713401e+04 
       1.424266598317e-02       2.563814485679e+04 
       1.537887697392e-02       2.586607430483e+04 
       1.660572938023e-02       2.595028142640e+04 
       1.793045412706e-02       2.587634767475e+04 
       1.936085890181e-02       2.563218573818e+04 
       2.090537352463e-02       2.520929793729e+04 
       2.257309535333e-02       2.460444460976e+04 
       2.437382002918e-02       2.382087143194e+04 
       2.631799944462e-02       2.287046808830e+04 
       2.841644545389e-02       2.177447754731e+04 
       3.067933355377e-02       2.056555588126e+04 
       3.311368470740e-02       1.928731857394e+04 
       3.571840443502e-02       1.799404111112e+04 
       3.847720348444e-02       1.674686944999e+04 
       4.135335538431e-02       1.560458969181e+04 
       4.429361667738e-02       1.461037037879e+04 
       4.724366439141e-02       1.378058337822e+04 
       5.016480835311e-02       1.310510503086e+04 
       5.303989620246e-02       1.255715772591e+04 
       5.586870669566e-02       1.210424026421e+04 
       5.866042680613e-02       1.171465879113e+04 
       6.142798932958e-02       1.136048414543e+04 
       6.418496440164e-02       1.101856907707e+04 
       6.694418833788e-02       1.067068486171e+04 
       6.971731106057e-02       1.030356821897e+04 
       7.251476155766e-02       9.908998687085e+03 
       7.534587671527e-02       9.483776874517e+03 
       7.821907666265e-02       9.029524282360e+03 
       8.114203772912e-02       8.552359777441e+03 
       8.412184535029e-02       8.061973390387e+03 
       8.716512279304e-02       7.570787341817e+03 
       9.027813695930e-02       7.092506442419e+03 
       9.346688431697e-02       6.640521298880e+03 
       9.673716028276e-02       6.226737256976e+03 
       1.000946150830e-01       5.859932988163e+03 
       1.035447986537e-01       5.545223663782e+03 
       1.070931966762e-01       5.283128175553e+03 
       1.107452594425e-01       5.069413360286e+03 
       1.145064249153e-01       4.895240235437e+03 
       1.183821370918e-01       4.747842105117e+03 
       1.223778605862e-01       4.611734388351e+03 
       1.264990921987e-01       4.470626466493e+03 
       1.307513701367e-01       4.310281312792e+03 
       1.351402814784e-01       4.121389671117e+03 
       1.396714684203e-01       3.902067733216e+03 
       1.443506338194e-01       3.658637931122e+03 
       1.491835465229e-01       3.404482734427e+03 
       1.541760469708e-01       3.156677417815e+03 
       1.593340535561e-01       2.931977294623e+03 
       1.646635702297e-01       2.742371103653e+03 
       1.701706958456e-01       2.592253630042e+03 
       1.758616357459e-01       2.477243160171e+03 
       1.817427160982e-01       2.385180193338e+03 
       1.878204015065e-01       2.300357859333e+03 
       1.941013164283e-01       2.205758078063e+03 
       2.005922709503e-01       2.090816226891e+03 
       2.073002914972e-01       1.956463511898e+03 
       2.142326570816e-01       1.814196649416e+03 
       2.213969417533e-01       1.679297214793e+03 
       2.288010639706e-01       1.563847846879e+03 
       2.364533437147e-01       1.472686923154e+03 
       2.443625682930e-01       1.401515620703e+03 
       2.525380679504e-01       1.338413839779e+03 
       2.609898026346e-01       1.270899805532e+03 
       2.697284615565e-01       1.193384074169e+03 
       2.787655775689e-01       1.109336068694e+03 
       2.881136588829e-01       1.028771175445e+03 
       2.977863412677e-01       9.604810591537e+02 
       3.077985646929e-01       9.050237633234e+02 
       3.181667794071e-01       8.561449470502e+02 
       3.289091877812e-01       8.061885325511e+02 
       3.400460299658e-01       7.523915531585e+02 
       3.515999236474e-01       6.989240197717e+02 
       3.635962711085e-01       6.510642333298e+02 
       3.760637506334e-01       6.101236590450e+02 
       3.890349143879e-01       5.721336977986e+02 
       4.025469216825e-01       5.337828414394e+02 
       4.166424456376e-01       4.956319941073e+02 
       4.313708035863e-01       4.604681597917e+02 
       4.467893782977e-01       4.287772974140e+02 
       4.629654199664e-01       3.987743411368e+02 
       4.799783501994e-01       3.692419696348e+02 
       4.979227319373e-01       3.412392874849e+02 
       5.169121270864e-01       3.154836683294e+02 
       5.370841404489e-01       2.908351338130e+02 
       5.586070464571e-01       2.671071901143e+02 
       5.816885094930e-01       2.448095283728e+02 
       6.065870144995e-01       2.235680332503e+02 
       6.336266468475e-01       2.032115940336e+02 
       6.632156059511e-01       1.838794138142e+02 
       6.958678639263e-01       1.653546813456e+02 
       7.322247985589e-01       1.476957288216e+02 
       7.730680195114e-01       1.308343960622e+02 
       8.193049553677e-01       1.148316718625e+02 
       8.718988016039e-01       9.976293578751e+01 
       9.317218031082e-01       8.577849607390e+01 
       9.993660908989e-01       7.305524275207e+01 
       1.075037110174e+00       6.173611052161e+01 
       1.158653485707e+00       5.187934490184e+01 
       1.250099157308e+00       4.344048588222e+01 
       1.349432401273e+00       3.628951564133e+01 
       1.456947457397e+00       3.026815843791e+01 
       1.573135111331e+00       2.521454610061e+01 
       1.698621895592e+00       2.098204004089e+01 
       1.834127512934e+00       1.744234812632e+01 
       1.980444934528e+00       1.448571756839e+01 
       2.138435191726e+00       1.201896506501e+01 
       2.309029199186e+00       9.963237387469e+00 
       2.493232377687e+00       8.251846588930e+00 
       2.692130395285e+00       6.828665983669e+00 
       2.906895534573e+00       5.646228517839e+00 
       3.138793597714e+00       4.664921729379e+00 
       3.389191366484e+00       3.851127656836e+00 
       3.659564657905e+00       3.176959484121e+00 
       3.951507022538e+00       2.618889909288e+00 
       4.266739136701e+00       2.157352484639e+00 
       4.607118943941e+00       1.775947763485e+00 
       4.974652605557e+00       1.461000171009e+00 
       5.371506324689e+00       1.201128174119e+00 
       5.800019113685e+00       9.868813041717e-01 
       6.262716579983e+00       8.103533234292e-01 
       6.762325811764e+00       6.650129796955e-01 
       7.301791451110e+00       5.454287343322e-01 
       7.884293049406e+00       4.471005669193e-01 
       8.513263807261e+00       3.662961191030e-01 
       9.192410809424e+00       2.999395817018e-01 
       9.925736873929e+00       2.454805660446e-01 
       1.071756414427e+01       2.008061341695e-01 
       1.157255956364e+01       1.641863469011e-01 
       1.249576238137e+01       1.341761945726e-01 
       1.349261385375e+01       1.096031887713e-01 
       1.456898931416e+01       8.948924943183e-02 
       1.573123280165e+01       7.303405917817e-02 
       1.698619445202e+01       5.957832542627e-02 
       1.834127087176e+01       4.858105135144e-02 
       1.980444873285e+01       3.959702958766e-02 
       2.138435184532e+01       3.226105361878e-02 
       2.309029198506e+01       2.627342608336e-02 
       2.493232377636e+01       2.138841022353e-02 
       2.692130395282e+01       1.740480110620e-02 
       2.906895534573e+01       1.415737891733e-02 
       3.138793597714e+01       1.151123986218e-02 
       3.389191366484e+01       9.356000219618e-03 
       3.659564657905e+01       7.601166995977e-03 
       3.951507022538e+01       6.173108034294e-03 
       4.266739136701e+01       5.011160492080e-03 
       4.607118943941e+01       4.066171278835e-03 
       4.974652605557e+01       3.298025842944e-03 
       5.371506324689e+01       2.673740837540e-03 
       5.800019113685e+01       2.166599846829e-03 
       6.262716579983e+01       1.754769773463e-03 
       6.762325811764e+01       1.420478909698e-03 
