# Matter power spectrum P(k) at redshift z=99
# for k=1.04775e-05 to 134.926 h/Mpc,
# number of wavenumbers equal to 255
#    1:k (h/Mpc)              2:P (Mpc/h)^3        
       1.047750691338e-05       7.261927095853e-03 
       1.131335172818e-05       7.820332151367e-03 
       1.221587619877e-05       8.421675382989e-03 
       1.319039970550e-05       9.069257738713e-03 
       1.424266598317e-05       9.766636451890e-03 
       1.537887697396e-05       1.051763973723e-02 
       1.660572938097e-05       1.132639250841e-02 
       1.793045413791e-05       1.219733201604e-02 
       1.936085902737e-05       1.313524187306e-02 
       2.090537469909e-05       1.414527085089e-02 
       2.257310435923e-05       1.523296544612e-02 
       2.437387742372e-05       1.640429654770e-02 
       2.631830745176e-05       1.766569603426e-02 
       2.841785470091e-05       1.902408711314e-02 
       3.068489367268e-05       2.048692967607e-02 
       3.313278604643e-05       2.206225467725e-02 
       3.577595943165e-05       2.375870884042e-02 
       3.862999240274e-05       2.558560670027e-02 
       4.171170631739e-05       2.755297672728e-02 
       4.503926445983e-05       2.967161933651e-02 
       4.863227909323e-05       3.195316455912e-02 
       5.251192705226e-05       3.441013466410e-02 
       5.670107455699e-05       3.705601742000e-02 
       6.122441198393e-05       3.990533413156e-02 
       6.610859938837e-05       4.297372242876e-02 
       7.138242363583e-05       4.627802055221e-02 
       7.707696806873e-05       4.983636160287e-02 
       8.322579570814e-05       5.366826787362e-02 
       8.986514707061e-05       5.779476320195e-02 
       9.703415376577e-05       6.223848222333e-02 
       1.047750691338e-04       6.702379825556e-02 
       1.131335172818e-04       7.217695031656e-02 
       1.221587619877e-04       7.772619030982e-02 
       1.319039970550e-04       8.370193380708e-02 
       1.424266598317e-04       9.013692507386e-02 
       1.537887697396e-04       9.706641131173e-02 
       1.660572938097e-04       1.045283343194e-01 
       1.793045413791e-04       1.125635329275e-01 
       1.936085902737e-04       1.212159592406e-01 
       2.090537469909e-04       1.305329107540e-01 
       2.257310435923e-04       1.405652819473e-01 
       2.437387742372e-04       1.513678275196e-01 
       2.631830745176e-04       1.629994475263e-01 
       2.841785470091e-04       1.755234890617e-01 
       3.068489367268e-04       1.890080645448e-01 
       3.313278604643e-04       2.035263977591e-01 
       3.577595943165e-04       2.191571778216e-01 
       3.862999240274e-04       2.359849423443e-01 
       4.171170631739e-04       2.541004713197e-01 
       4.503926445983e-04       2.736012061367e-01 
       4.863227909323e-04       2.945916774864e-01 
       5.251192705226e-04       3.171839508097e-01 
       5.670107455699e-04       3.414980769354e-01 
       6.122441198393e-04       3.676625416559e-01 
       6.610859938837e-04       3.958147273135e-01 
       7.138242363583e-04       4.261013332345e-01 
       7.707696806873e-04       4.586787881138e-01 
       8.322579570814e-04       4.937136113115e-01 
       8.986514707061e-04       5.313826962372e-01 
       9.703415376577e-04       5.718735177095e-01 
       1.047750691338e-03       6.153841926530e-01 
       1.131335172818e-03       6.621233623381e-01 
       1.221587619877e-03       7.123098743878e-01 
       1.319039970550e-03       7.661721263962e-01 
       1.424266598317e-03       8.239547181390e-01 
       1.537887697396e-03       8.859012282776e-01 
       1.660572938097e-03       9.522589495534e-01 
       1.793045413791e-03       1.023280284691e+00 
       1.936085902737e-03       1.099216542050e+00 
       2.090537469909e-03       1.180313284941e+00 
       2.257310435923e-03       1.266804486661e+00 
       2.437387742372e-03       1.358905328248e+00 
       2.631830745176e-03       1.456803285648e+00 
       2.841785470091e-03       1.560647662622e+00 
       3.068489367268e-03       1.670537010017e+00 
       3.313278604643e-03       1.786505038894e+00 
       3.577595943165e-03       1.908504409138e+00 
       3.862999240274e-03       2.036389467480e+00 
       4.171170631739e-03       2.169898251146e+00 
       4.503926445983e-03       2.308634489837e+00 
       4.863227909323e-03       2.452050672045e+00 
       5.251192705226e-03       2.599434677653e+00 
       5.670107455699e-03       2.749901122051e+00 
       6.122441198393e-03       2.902390052753e+00 
       6.610859938837e-03       3.055671262815e+00 
       7.138242363583e-03       3.208360114061e+00 
       7.707696806873e-03       3.358926640400e+00 
       8.322579570814e-03       3.505726876243e+00 
       8.986514707061e-03       3.647012420994e+00 
       9.703415376577e-03       3.780926158569e+00 
       1.047750691338e-02       3.905492855179e+00 
       1.131335172818e-02       4.018589794840e+00 
       1.221587619877e-02       4.117902850760e+00 
       1.319039970550e-02       4.200917654211e+00 
       1.424266598317e-02       4.264943683148e+00 
       1.537887697392e-02       4.307219602513e+00 
       1.660572938023e-02       4.325062377355e+00 
       1.793045412706e-02       4.316060296036e+00 
       1.936085890181e-02       4.278228817763e+00 
       2.090537352463e-02       4.210204337413e+00 
       2.257309535333e-02       4.111418587763e+00 
       2.437382002918e-02       3.982420747335e+00 
       2.631799944462e-02       3.825168463398e+00 
       2.841644545389e-02       3.643281989228e+00 
       3.067933355377e-02       3.442198405924e+00 
       3.311368470740e-02       3.229241251026e+00 
       3.571840443502e-02       3.013515942811e+00 
       3.847720348444e-02       2.805283502615e+00 
       4.135335538431e-02       2.614410174982e+00 
       4.429361667738e-02       2.448131637136e+00 
       4.724366439141e-02       2.309240047068e+00 
       5.016480835311e-02       2.196114537806e+00 
       5.303989620246e-02       2.104369145478e+00 
       5.586870669566e-02       2.028461822608e+00 
       5.866042680613e-02       1.963154483620e+00 
       6.142798932958e-02       1.903778823869e+00 
       6.418496440164e-02       1.846478266150e+00 
       6.694418833788e-02       1.788196474877e+00 
       6.971731106057e-02       1.726714617554e+00 
       7.251476155766e-02       1.660653268075e+00 
       7.534587671527e-02       1.589468673142e+00 
       7.821907666265e-02       1.513435339610e+00 
       8.114203772912e-02       1.433567476300e+00 
       8.412184535029e-02       1.351490924743e+00 
       8.716512279304e-02       1.269272353895e+00 
       9.027813695930e-02       1.189191745423e+00 
       9.346688431697e-02       1.113499548190e+00 
       9.673716028276e-02       1.044172932715e+00 
       1.000946150830e-01       9.827044108023e-01 
       1.035447986537e-01       9.299367178277e-01 
       1.070931966762e-01       8.859567885196e-01 
       1.107452594425e-01       8.500692876970e-01 
       1.145064249153e-01       8.208014325371e-01 
       1.183821370918e-01       7.960222414940e-01 
       1.223778605862e-01       7.731435406600e-01 
       1.264990921987e-01       7.494498747688e-01 
       1.307513701367e-01       7.225552154004e-01 
       1.351402814784e-01       6.909071636112e-01 
       1.396714684203e-01       6.541798836046e-01 
       1.443506338194e-01       6.134252684361e-01 
       1.491835465229e-01       5.708658650224e-01 
       1.541760469708e-01       5.293611002566e-01 
       1.593340535561e-01       4.917075655162e-01 
       1.646635702297e-01       4.599165654121e-01 
       1.701706958456e-01       4.347243902846e-01 
       1.758616357459e-01       4.154041513464e-01 
       1.817427160982e-01       3.999323910131e-01 
       1.878204015065e-01       3.856817862258e-01 
       1.941013164283e-01       3.698099240918e-01 
       2.005922709503e-01       3.505472212889e-01 
       2.073002914972e-01       3.280419784910e-01 
       2.142326570816e-01       3.042091346988e-01 
       2.213969417533e-01       2.816068470109e-01 
       2.288010639706e-01       2.622519207859e-01 
       2.364533437147e-01       2.469567340834e-01 
       2.443625682930e-01       2.350076813467e-01 
       2.525380679504e-01       2.244148680853e-01 
       2.609898026346e-01       2.130902036554e-01 
       2.697284615565e-01       2.000965643480e-01 
       2.787655775689e-01       1.860137481700e-01 
       2.881136588829e-01       1.725109243330e-01 
       2.977863412677e-01       1.610597409382e-01 
       3.077985646929e-01       1.517542611364e-01 
       3.181667794071e-01       1.435527398220e-01 
       3.289091877812e-01       1.351749000068e-01 
       3.400460299658e-01       1.261572084279e-01 
       3.515999236474e-01       1.171945331975e-01 
       3.635962711085e-01       1.091694326672e-01 
       3.760637506334e-01       1.023017793292e-01 
       3.890349143879e-01       9.592971178866e-02 
       4.025469216825e-01       8.949954131031e-02 
       4.166424456376e-01       8.310325349797e-02 
       4.313708035863e-01       7.720690618601e-02 
       4.467893782977e-01       7.189180331121e-02 
       4.629654199664e-01       6.686008313723e-02 
       4.799783501994e-01       6.190823451432e-02 
       4.979227319373e-01       5.721279669169e-02 
       5.169121270864e-01       5.289315042340e-02 
       5.370841404489e-01       4.875968124244e-02 
       5.586070464571e-01       4.478045909294e-02 
       5.816885094930e-01       4.104126137636e-02 
       6.065870144995e-01       3.747888995530e-02 
       6.336266468475e-01       3.406495183560e-02 
       6.632156059511e-01       3.082286031313e-02 
       6.958678639263e-01       2.771617127633e-02 
       7.322247985589e-01       2.475447063389e-02 
       7.730680195114e-01       2.192644977394e-02 
       8.193049553677e-01       1.924236402765e-02 
       8.718988016039e-01       1.671482599658e-02 
       9.317218031082e-01       1.436899315422e-02 
       9.993660908989e-01       1.223458287528e-02 
       1.075037110174e+00       1.033555070577e-02 
       1.158653485707e+00       8.681600478019e-03 
       1.250099157308e+00       7.265243810397e-03 
       1.349432401273e+00       6.064899955558e-03 
       1.456947457397e+00       5.053810789675e-03 
       1.573135111331e+00       4.204911315417e-03 
       1.698621895592e+00       3.493575132379e-03 
       1.834127512934e+00       2.898330945238e-03 
       1.980444934528e+00       2.400705338197e-03 
       2.138435191726e+00       1.985104251061e-03 
       2.309029199186e+00       1.638315209602e-03 
       2.493232377687e+00       1.349162927447e-03 
       2.692130395285e+00       1.108206571864e-03 
       2.906895534573e+00       9.075472683974e-04 
       3.138793597714e+00       7.404301477790e-04 
       3.389191366484e+00       6.014910059736e-04 
       3.659564657905e+00       4.858802508070e-04 
       3.951507022538e+00       3.897670989925e-04 
       4.266739136701e+00       3.099240354990e-04 
       4.607118943941e+00       2.436955825490e-04 
       4.974652605557e+00       1.888640929052e-04 
       5.371506324689e+00       1.436588509158e-04 
       5.800019113685e+00       1.066612568960e-04 
       6.262716579983e+00       7.664391499920e-05 
       6.762325811764e+00       5.269195401441e-05 
       7.301791451110e+00       3.404520895094e-05 
       7.884293049406e+00       2.006950656414e-05 
       8.513263807261e+00       1.021676108474e-05 
       9.192410809424e+00       3.971763993006e-06 
       9.925736873929e+00       7.758991345425e-07 
       1.071756414427e+01       1.435921224295e-08 
       1.157255956364e+01       9.809847725808e-07 
       1.249576238137e+01       2.902749944221e-06 
       1.349261385375e+01       4.980505084747e-06 
       1.456898931416e+01       6.502540634789e-06 
       1.573123280165e+01       7.000408794206e-06 
       1.698619445202e+01       6.302301869894e-06 
       1.834127087176e+01       4.708917410868e-06 
       1.980444873285e+01       2.753856538370e-06 
       2.138435184532e+01       1.078908180087e-06 
       2.309029198506e+01       1.680592984250e-07 
       2.493232377636e+01       2.055610997330e-08 
       2.692130395282e+01       2.883568581401e-07 
       2.906895534573e+01       5.047736450809e-07 
       3.138793597714e+01       4.400624228248e-07 
       3.389191366484e+01       2.035237106397e-07 
       3.659564657905e+01       3.149686228728e-08 
       3.951507022538e+01       1.850349036357e-09 
       4.266739136701e+01       2.290261061730e-08 
       4.607118943941e+01       1.746652053893e-08 
       4.974652605557e+01       2.205634518684e-09 
       5.371506324689e+01       2.149057351618e-10 
       5.800019113685e+01       4.159557718555e-10 
       6.262716579983e+01       1.585612279749e-11 
       6.762325811764e+01       3.861764693876e-10 
       7.301791451110e+01       1.979378098988e-13 
       7.884293049406e+01       7.392200366003e-11 
       8.513263807261e+01       3.555119145641e-13 
       9.192410809424e+01       9.662316947845e-12 
       9.925736873929e+01       1.623092586715e-11 
       1.071756414427e+02       1.746683724041e-11 
       1.157255956364e+02       5.610401389092e-13 
       1.249576238137e+02       6.326495124728e-12 
       1.349261385375e+02       1.273984033538e-12 
