# Matter power spectrum P(k) at redshift z=99
# for k=1.04775e-05 to 67.6233 h/Mpc,
# number of wavenumbers equal to 246
#    1:k (h/Mpc)              2:P (Mpc/h)^3        
       1.047750691338e-05       7.261927673119e-03 
       1.131335172818e-05       7.820331745737e-03 
       1.221587619877e-05       8.421675986489e-03 
       1.319039970550e-05       9.069258192194e-03 
       1.424266598317e-05       9.766638404421e-03 
       1.537887697396e-05       1.051764069682e-02 
       1.660572938097e-05       1.132639105520e-02 
       1.793045413791e-05       1.219733231416e-02 
       1.936085902737e-05       1.313524224380e-02 
       2.090537469909e-05       1.414527121893e-02 
       2.257310435923e-05       1.523296272192e-02 
       2.437387742372e-05       1.640429444530e-02 
       2.631830745176e-05       1.766569582178e-02 
       2.841785470091e-05       1.902408601793e-02 
       3.068489367268e-05       2.048692970591e-02 
       3.313278604643e-05       2.206225513594e-02 
       3.577595943165e-05       2.375870704909e-02 
       3.862999240274e-05       2.558560727479e-02 
       4.171170631739e-05       2.755297763344e-02 
       4.503926445983e-05       2.967161927316e-02 
       4.863227909323e-05       3.195316450832e-02 
       5.251192705226e-05       3.441013519284e-02 
       5.670107455699e-05       3.705601722527e-02 
       6.122441198393e-05       3.990533413562e-02 
       6.610859938837e-05       4.297372168203e-02 
       7.138242363583e-05       4.627802141688e-02 
       7.707696806873e-05       4.983636194159e-02 
       8.322579570814e-05       5.366826847231e-02 
       8.986514707061e-05       5.779476394569e-02 
       9.703415376577e-05       6.223848243885e-02 
       1.047750691338e-04       6.702379865640e-02 
       1.131335172818e-04       7.217695153381e-02 
       1.221587619877e-04       7.772619073571e-02 
       1.319039970550e-04       8.370193432376e-02 
       1.424266598317e-04       9.013692507547e-02 
       1.537887697396e-04       9.706641242570e-02 
       1.660572938097e-04       1.045283354271e-01 
       1.793045413791e-04       1.125635349068e-01 
       1.936085902737e-04       1.212159614968e-01 
       2.090537469909e-04       1.305329132714e-01 
       2.257310435923e-04       1.405652846215e-01 
       2.437387742372e-04       1.513678302540e-01 
       2.631830745176e-04       1.629994504870e-01 
       2.841785470091e-04       1.755234921224e-01 
       3.068489367268e-04       1.890080670413e-01 
       3.313278604643e-04       2.035264002435e-01 
       3.577595943165e-04       2.191571803681e-01 
       3.862999240274e-04       2.359849437592e-01 
       4.171170631739e-04       2.541004741539e-01 
       4.503926445983e-04       2.736012080277e-01 
       4.863227909323e-04       2.945916790965e-01 
       5.251192705226e-04       3.171839525183e-01 
       5.670107455699e-04       3.414980764002e-01 
       6.122441198393e-04       3.676625413100e-01 
       6.610859938837e-04       3.958147252304e-01 
       7.138242363583e-04       4.261013284917e-01 
       7.707696806873e-04       4.586787792355e-01 
       8.322579570814e-04       4.937136001341e-01 
       8.986514707061e-04       5.313826801402e-01 
       9.703415376577e-04       5.718734972157e-01 
       1.047750691338e-03       6.153841629504e-01 
       1.131335172818e-03       6.621233239466e-01 
       1.221587619877e-03       7.123098220428e-01 
       1.319039970550e-03       7.661720584460e-01 
       1.424266598317e-03       8.239546297729e-01 
       1.537887697396e-03       8.859011173467e-01 
       1.660572938097e-03       9.522588006421e-01 
       1.793045413791e-03       1.023280099819e+00 
       1.936085902737e-03       1.099216304579e+00 
       2.090537469909e-03       1.180312990453e+00 
       2.257310435923e-03       1.266804115852e+00 
       2.437387742372e-03       1.358904853405e+00 
       2.631830745176e-03       1.456802683156e+00 
       2.841785470091e-03       1.560646890522e+00 
       3.068489367268e-03       1.670536062499e+00 
       3.313278604643e-03       1.786503852162e+00 
       3.577595943165e-03       1.908502930786e+00 
       3.862999240274e-03       2.036387730709e+00 
       4.171170631739e-03       2.169896178466e+00 
       4.503926445983e-03       2.308631878994e+00 
       4.863227909323e-03       2.452047290962e+00 
       5.251192705226e-03       2.599430628088e+00 
       5.670107455699e-03       2.749896931879e+00 
       6.122441198393e-03       2.902386513386e+00 
       6.610859938837e-03       3.055668702643e+00 
       7.138242363583e-03       3.208356461545e+00 
       7.707696806873e-03       3.358923891660e+00 
       8.322579570814e-03       3.505725595179e+00 
       8.986514707061e-03       3.647009252967e+00 
       9.703415376577e-03       3.780923304313e+00 
       1.047750691338e-02       3.905492797232e+00 
       1.131335172818e-02       4.018587641252e+00 
       1.221587619877e-02       4.117901582519e+00 
       1.319039970550e-02       4.200915327733e+00 
       1.424266598317e-02       4.264942400097e+00 
       1.537887697392e-02       4.307218166868e+00 
       1.660572938023e-02       4.325063413203e+00 
       1.793045412706e-02       4.316060426270e+00 
       1.936085890181e-02       4.278228063300e+00 
       2.090537352463e-02       4.210199085633e+00 
       2.257309535333e-02       4.111421643937e+00 
       2.437382002918e-02       3.982414487792e+00 
       2.631799944462e-02       3.825163551261e+00 
       2.841644545389e-02       3.643285722305e+00 
       3.067933355377e-02       3.442195109477e+00 
       3.311368470740e-02       3.229251293493e+00 
       3.571840443502e-02       3.013505194921e+00 
       3.847720348444e-02       2.805286574187e+00 
       4.135335538431e-02       2.614413970907e+00 
       4.429361667738e-02       2.448135685462e+00 
       4.724366439141e-02       2.309235161026e+00 
       5.016480835311e-02       2.196107243994e+00 
       5.303989620246e-02       2.104362342117e+00 
       5.586870669566e-02       2.028460813479e+00 
       5.866042680613e-02       1.963150579499e+00 
       6.142798932958e-02       1.903785293202e+00 
       6.418496440164e-02       1.846477917157e+00 
       6.694418833788e-02       1.788196763038e+00 
       6.971731106057e-02       1.726714415765e+00 
       7.251476155766e-02       1.660655373442e+00 
       7.534587671527e-02       1.589471179325e+00 
       7.821907666265e-02       1.513439055282e+00 
       8.114203772912e-02       1.433568609899e+00 
       8.412184535029e-02       1.351491510223e+00 
       8.716512279304e-02       1.269277044219e+00 
       9.027813695930e-02       1.189190977742e+00 
       9.346688431697e-02       1.113499215881e+00 
       9.673716028276e-02       1.044172614142e+00 
       1.000946150830e-01       9.827070431365e-01 
       1.035447986537e-01       9.299382357576e-01 
       1.070931966762e-01       8.859592893327e-01 
       1.107452594425e-01       8.500736605463e-01 
       1.145064249153e-01       8.208051784599e-01 
       1.183821370918e-01       7.960263470595e-01 
       1.223778605862e-01       7.731445259497e-01 
       1.264990921987e-01       7.494508950633e-01 
       1.307513701367e-01       7.225567462744e-01 
       1.351402814784e-01       6.909081767091e-01 
       1.396714684203e-01       6.541813179606e-01 
       1.443506338194e-01       6.134265829612e-01 
       1.491835465229e-01       5.708677124140e-01 
       1.541760469708e-01       5.293638170868e-01 
       1.593340535561e-01       4.917109664421e-01 
       1.646635702297e-01       4.599192767626e-01 
       1.701706958456e-01       4.347286124600e-01 
       1.758616357459e-01       4.154089055248e-01 
       1.817427160982e-01       3.999374337292e-01 
       1.878204015065e-01       3.856831555411e-01 
       1.941013164283e-01       3.698098947274e-01 
       2.005922709503e-01       3.505454665535e-01 
       2.073002914972e-01       3.280430905171e-01 
       2.142326570816e-01       3.042135265700e-01 
       2.213969417533e-01       2.816118961900e-01 
       2.288010639706e-01       2.622577160033e-01 
       2.364533437147e-01       2.469619786776e-01 
       2.443625682930e-01       2.350132758630e-01 
       2.525380679504e-01       2.244178436102e-01 
       2.609898026346e-01       2.130939629381e-01 
       2.697284615565e-01       2.001016465158e-01 
       2.787655775689e-01       1.860195869406e-01 
       2.881136588829e-01       1.725170847398e-01 
       2.977863412677e-01       1.610662392217e-01 
       3.077985646929e-01       1.517610006304e-01 
       3.181667794071e-01       1.435592007233e-01 
       3.289091877812e-01       1.351815449507e-01 
       3.400460299658e-01       1.261644212420e-01 
       3.515999236474e-01       1.172022133350e-01 
       3.635962711085e-01       1.091772673903e-01 
       3.760637506334e-01       1.023098488884e-01 
       3.890349143879e-01       9.593784863096e-02 
       4.025469216825e-01       8.950776195041e-02 
       4.166424456376e-01       8.311205436441e-02 
       4.313708035863e-01       7.721534513735e-02 
       4.467893782977e-01       7.190073392793e-02 
       4.629654199664e-01       6.686904426451e-02 
       4.799783501994e-01       6.191733469933e-02 
       4.979227319373e-01       5.722218685319e-02 
       5.169121270864e-01       5.290287610971e-02 
       5.370841404489e-01       4.876984350643e-02 
       5.586070464571e-01       4.479084991209e-02 
       5.816885094930e-01       4.105188220600e-02 
       6.065870144995e-01       3.748990372782e-02 
       6.336266468475e-01       3.407628317541e-02 
       6.632156059511e-01       3.083462474551e-02 
       6.958678639263e-01       2.772831560645e-02 
       7.322247985589e-01       2.476706574374e-02 
       7.730680195114e-01       2.193959723431e-02 
       8.193049553677e-01       1.925612122167e-02 
       8.718988016039e-01       1.672929905089e-02 
       9.317218031082e-01       1.438417043797e-02 
       9.993660908989e-01       1.225070356865e-02 
       1.075037110174e+00       1.035261670569e-02 
       1.158653485707e+00       8.699728896690e-03 
       1.250099157308e+00       7.284619227682e-03 
       1.349432401273e+00       6.085459335442e-03 
       1.456947457397e+00       5.075736110396e-03 
       1.573135111331e+00       4.228302747114e-03 
       1.698621895592e+00       3.518557952271e-03 
       1.834127512934e+00       2.925008940540e-03 
       1.980444934528e+00       2.429161602428e-03 
       2.138435191726e+00       2.015513169211e-03 
       2.309029199186e+00       1.670772061824e-03 
       2.493232377687e+00       1.383792481680e-03 
       2.692130395285e+00       1.145131313624e-03 
       2.906895534573e+00       9.468591506092e-04 
       3.138793597714e+00       7.822867156767e-04 
       3.389191366484e+00       6.458273811368e-04 
       3.659564657905e+00       5.327704452321e-04 
       3.951507022538e+00       4.391849489232e-04 
       4.266739136701e+00       3.617892650943e-04 
       4.607118943941e+00       2.978267906272e-04 
       4.974652605557e+00       2.450136173550e-04 
       5.371506324689e+00       2.014371449839e-04 
       5.800019113685e+00       1.655068203254e-04 
       6.262716579983e+00       1.359038969158e-04 
       6.762325811764e+00       1.115302159395e-04 
       7.301791451110e+00       9.147576801462e-05 
       7.884293049406e+00       7.498690215806e-05 
       8.513263807261e+00       6.143584282326e-05 
       9.192410809424e+00       5.030816411756e-05 
       9.925736873929e+00       4.117547786744e-05 
       1.071756414427e+01       3.368331424963e-05 
       1.157255956364e+01       2.754151688702e-05 
       1.249576238137e+01       2.250895238485e-05 
       1.349261385375e+01       1.838748110786e-05 
       1.456898931416e+01       1.501424354445e-05 
       1.573123280165e+01       1.225437181649e-05 
       1.698619445202e+01       9.997583560966e-06 
       1.834127087176e+01       8.153079393877e-06 
       1.980444873285e+01       6.646201451959e-06 
       2.138435184532e+01       5.415726395824e-06 
       2.309029198506e+01       4.411346671044e-06 
       2.493232377636e+01       3.591895190305e-06 
       2.692130395282e+01       2.923572074836e-06 
       2.906895534573e+01       2.378746453428e-06 
       3.138793597714e+01       1.934770278143e-06 
       3.389191366484e+01       1.573114105764e-06 
       3.659564657905e+01       1.278619422272e-06 
       3.951507022538e+01       1.038906902332e-06 
       4.266739136701e+01       8.438674589118e-07 
       4.607118943941e+01       6.852140452244e-07 
       4.974652605557e+01       5.562022001167e-07 
       5.371506324689e+01       4.513418774310e-07 
       5.800019113685e+01       3.661315173696e-07 
       6.262716579983e+01       2.969114991850e-07 
       6.762325811764e+01       2.407016728461e-07 
