# Matter power spectrum P(k) at redshift z=0
# for k=1.04775e-05 to 67.6233 h/Mpc,
# number of wavenumbers equal to 246
#    1:k (h/Mpc)              2:P (Mpc/h)^3        
       1.047750691338e-05       5.020964806750e+01 
       1.131335172818e-05       5.407048206553e+01 
       1.221587619877e-05       5.822819063786e+01 
       1.319039970550e-05       6.270562589678e+01 
       1.424266598317e-05       6.752731788102e+01 
       1.537887697396e-05       7.271977200257e+01 
       1.660572938097e-05       7.831147241542e+01 
       1.793045413791e-05       8.433311815128e+01 
       1.936085902737e-05       9.081778242446e+01 
       2.090537469909e-05       9.780108061339e+01 
       2.257310435923e-05       1.053213197032e+02 
       2.437387742372e-05       1.134197377001e+02 
       2.631830745176e-05       1.221408202816e+02 
       2.841785470091e-05       1.315324720916e+02 
       3.068489367268e-05       1.416462093731e+02 
       3.313278604643e-05       1.525374500691e+02 
       3.577595943165e-05       1.642660687078e+02 
       3.862999240274e-05       1.768963504868e+02 
       4.171170631739e-05       1.904975992460e+02 
       4.503926445983e-05       2.051444490305e+02 
       4.863227909323e-05       2.209171463752e+02 
       5.251192705226e-05       2.379022222314e+02 
       5.670107455699e-05       2.561927925512e+02 
       6.122441198393e-05       2.758890441791e+02 
       6.610859938837e-05       2.970989225465e+02 
       7.138242363583e-05       3.199385558200e+02 
       7.707696806873e-05       3.445329780878e+02 
       8.322579570814e-05       3.710167315928e+02 
       8.986514707061e-05       3.995346440954e+02 
       9.703415376577e-05       4.302425403884e+02 
       1.047750691338e-04       4.633080762974e+02 
       1.131335172818e-04       4.989116267507e+02 
       1.221587619877e-04       5.372471946561e+02 
       1.319039970550e-04       5.785234124626e+02 
       1.424266598317e-04       6.229645929806e+02 
       1.537887697396e-04       6.708118484951e+02 
       1.660572938097e-04       7.223242660220e+02 
       1.793045413791e-04       7.777801552659e+02 
       1.936085902737e-04       8.374783607333e+02 
       2.090537469909e-04       9.017396264495e+02 
       2.257310435923e-04       9.709080260152e+02 
       2.437387742372e-04       1.045352448644e+03 
       2.631830745176e-04       1.125468122836e+03 
       2.841785470091e-04       1.211678179511e+03 
       3.068489367268e-04       1.304435249091e+03 
       3.313278604643e-04       1.404223052541e+03 
       3.577595943165e-04       1.511558013390e+03 
       3.862999240274e-04       1.626990836501e+03 
       4.171170631739e-04       1.751108027371e+03 
       4.503926445983e-04       1.884533381345e+03 
       4.863227909323e-04       2.027929376470e+03 
       5.251192705226e-04       2.181998446367e+03 
       5.670107455699e-04       2.347484100857e+03 
       6.122441198393e-04       2.525171869337e+03 
       6.610859938837e-04       2.715889981400e+03 
       7.138242363583e-04       2.920509686085e+03 
       7.707696806873e-04       3.139945097709e+03 
       8.322579570814e-04       3.375152334395e+03 
       8.986514707061e-04       3.627127828230e+03 
       9.703415376577e-04       3.896905450015e+03 
       1.047750691338e-03       4.185552170950e+03 
       1.131335172818e-03       4.494162426790e+03 
       1.221587619877e-03       4.823850702660e+03 
       1.319039970550e-03       5.175742736832e+03 
       1.424266598317e-03       5.551019592521e+03 
       1.537887697396e-03       5.950788335867e+03 
       1.660572938097e-03       6.376123046806e+03 
       1.793045413791e-03       6.828073896121e+03 
       1.936085902737e-03       7.307625375383e+03 
       2.090537469909e-03       7.815671864295e+03 
       2.257310435923e-03       8.352990369390e+03 
       2.437387742372e-03       8.920211057532e+03 
       2.631830745176e-03       9.517783061881e+03 
       2.841785470091e-03       1.014593703670e+04 
       3.068489367268e-03       1.080464505732e+04 
       3.313278604643e-03       1.149357459439e+04 
       3.577595943165e-03       1.221203620824e+04 
       3.862999240274e-03       1.295892538503e+04 
       4.171170631739e-03       1.373266001426e+04 
       4.503926445983e-03       1.453111834591e+04 
       4.863227909323e-03       1.535154984069e+04 
       5.251192705226e-03       1.619063612502e+04 
       5.670107455699e-03       1.704431256548e+04 
       6.122441198393e-03       1.790755938998e+04 
       6.610859938837e-03       1.877460409831e+04 
       7.138242363583e-03       1.963872430886e+04 
       7.707696806873e-03       2.049215713394e+04 
       8.322579570814e-03       2.132607237942e+04 
       8.986514707061e-03       2.213054966385e+04 
       9.703415376577e-03       2.289445477979e+04 
       1.047750691338e-02       2.360549119679e+04 
       1.131335172818e-02       2.425022665553e+04 
       1.221587619877e-02       2.481424196777e+04 
       1.319039970550e-02       2.528218702321e+04 
       1.424266598317e-02       2.563814150999e+04 
       1.537887697392e-02       2.586607422748e+04 
       1.660572938023e-02       2.595027252437e+04 
       1.793045412706e-02       2.587634218765e+04 
       1.936085890181e-02       2.563219182895e+04 
       2.090537352463e-02       2.520935725349e+04 
       2.257309535333e-02       2.460449547871e+04 
       2.437382002918e-02       2.382091489847e+04 
       2.631799944462e-02       2.287042730576e+04 
       2.841644545389e-02       2.177446769959e+04 
       3.067933355377e-02       2.056554920224e+04 
       3.311368470740e-02       1.928727524158e+04 
       3.571840443502e-02       1.799401517464e+04 
       3.847720348444e-02       1.674684922172e+04 
       4.135335538431e-02       1.560457721173e+04 
       4.429361667738e-02       1.461040219251e+04 
       4.724366439141e-02       1.378049661949e+04 
       5.016480835311e-02       1.310504141386e+04 
       5.303989620246e-02       1.255711735195e+04 
       5.586870669566e-02       1.210424854106e+04 
       5.866042680613e-02       1.171466799119e+04 
       6.142798932958e-02       1.136049782610e+04 
       6.418496440164e-02       1.101860962206e+04 
       6.694418833788e-02       1.067070243123e+04 
       6.971731106057e-02       1.030365625446e+04 
       7.251476155766e-02       9.909058871602e+03 
       7.534587671527e-02       9.483809088034e+03 
       7.821907666265e-02       9.029564096605e+03 
       8.114203772912e-02       8.552357828419e+03 
       8.412184535029e-02       8.062005296634e+03 
       8.716512279304e-02       7.570821322294e+03 
       9.027813695930e-02       7.092558909456e+03 
       9.346688431697e-02       6.640556813057e+03 
       9.673716028276e-02       6.226760932127e+03 
       1.000946150830e-01       5.859983961230e+03 
       1.035447986537e-01       5.545275353358e+03 
       1.070931966762e-01       5.283172650307e+03 
       1.107452594425e-01       5.069431604789e+03 
       1.145064249153e-01       4.895261274222e+03 
       1.183821370918e-01       4.747863346445e+03 
       1.223778605862e-01       4.611748659152e+03 
       1.264990921987e-01       4.470620399811e+03 
       1.307513701367e-01       4.310263997488e+03 
       1.351402814784e-01       4.121357158116e+03 
       1.396714684203e-01       3.902081026256e+03 
       1.443506338194e-01       3.658663534172e+03 
       1.491835465229e-01       3.404471085961e+03 
       1.541760469708e-01       3.156666982322e+03 
       1.593340535561e-01       2.931941719042e+03 
       1.646635702297e-01       2.742359834703e+03 
       1.701706958456e-01       2.592255236715e+03 
       1.758616357459e-01       2.477231548396e+03 
       1.817427160982e-01       2.385162504968e+03 
       1.878204015065e-01       2.300353159173e+03 
       1.941013164283e-01       2.205750623895e+03 
       2.005922709503e-01       2.090781776112e+03 
       2.073002914972e-01       1.956474183374e+03 
       2.142326570816e-01       1.814173406831e+03 
       2.213969417533e-01       1.679269972118e+03 
       2.288010639706e-01       1.563838504944e+03 
       2.364533437147e-01       1.472675092678e+03 
       2.443625682930e-01       1.401509243821e+03 
       2.525380679504e-01       1.338421815140e+03 
       2.609898026346e-01       1.270904833088e+03 
       2.697284615565e-01       1.193359728645e+03 
       2.787655775689e-01       1.109324004897e+03 
       2.881136588829e-01       1.028764223747e+03 
       2.977863412677e-01       9.604764820021e+02 
       3.077985646929e-01       9.050174564913e+02 
       3.181667794071e-01       8.561334218314e+02 
       3.289091877812e-01       8.061821100972e+02 
       3.400460299658e-01       7.523853803780e+02 
       3.515999236474e-01       6.989158899434e+02 
       3.635962711085e-01       6.510558980592e+02 
       3.760637506334e-01       6.101194874531e+02 
       3.890349143879e-01       5.721260748012e+02 
       4.025469216825e-01       5.337761333605e+02 
       4.166424456376e-01       4.956236985805e+02 
       4.313708035863e-01       4.604643678018e+02 
       4.467893782977e-01       4.287714989796e+02 
       4.629654199664e-01       3.987703652173e+02 
       4.799783501994e-01       3.692364988159e+02 
       4.979227319373e-01       3.412367080638e+02 
       5.169121270864e-01       3.154791220210e+02 
       5.370841404489e-01       2.908309500756e+02 
       5.586070464571e-01       2.671023283678e+02 
       5.816885094930e-01       2.448056459324e+02 
       6.065870144995e-01       2.235665755415e+02 
       6.336266468475e-01       2.032094977385e+02 
       6.632156059511e-01       1.838781343829e+02 
       6.958678639263e-01       1.653534221670e+02 
       7.322247985589e-01       1.476949520864e+02 
       7.730680195114e-01       1.308336286831e+02 
       8.193049553677e-01       1.148309776081e+02 
       8.718988016039e-01       9.976228871716e+01 
       9.317218031082e-01       8.577749082421e+01 
       9.993660908989e-01       7.305407166587e+01 
       1.075037110174e+00       6.173555786936e+01 
       1.158653485707e+00       5.187885676293e+01 
       1.250099157308e+00       4.343989619925e+01 
       1.349432401273e+00       3.628869800781e+01 
       1.456947457397e+00       3.026774977632e+01 
       1.573135111331e+00       2.521432814785e+01 
       1.698621895592e+00       2.098184731672e+01 
       1.834127512934e+00       1.744207999522e+01 
       1.980444934528e+00       1.448544775591e+01 
       2.138435191726e+00       1.201869168151e+01 
       2.309029199186e+00       9.962956655625e+00 
       2.493232377687e+00       8.251652535461e+00 
       2.692130395285e+00       6.828354212769e+00 
       2.906895534573e+00       5.646055566384e+00 
       3.138793597714e+00       4.664655863011e+00 
       3.389191366484e+00       3.850900616229e+00 
       3.659564657905e+00       3.176691491034e+00 
       3.951507022538e+00       2.618654482627e+00 
       4.266739136701e+00       2.157039910786e+00 
       4.607118943941e+00       1.775675985806e+00 
       4.974652605557e+00       1.460726992803e+00 
       5.371506324689e+00       1.200847723136e+00 
       5.800019113685e+00       9.865863008725e-01 
       6.262716579983e+00       8.100333007437e-01 
       6.762325811764e+00       6.646652552360e-01 
       7.301791451110e+00       5.450639950434e-01 
       7.884293049406e+00       4.467214506271e-01 
       8.513263807261e+00       3.658919770155e-01 
       9.192410809424e+00       2.995097657875e-01 
       9.925736873929e+00       2.450193569922e-01 
       1.071756414427e+01       2.003169006759e-01 
       1.157255956364e+01       1.636592305289e-01 
       1.249576238137e+01       1.336149775491e-01 
       1.349261385375e+01       1.090017180792e-01 
       1.456898931416e+01       8.884591156044e-02 
       1.573123280165e+01       7.234586572571e-02 
       1.698619445202e+01       5.884182208641e-02 
       1.834127087176e+01       4.779302871807e-02 
       1.980444873285e+01       3.875583449534e-02 
       2.138435184532e+01       3.136347664166e-02 
       2.309029198506e+01       2.531764323863e-02 
       2.493232377636e+01       2.037273403157e-02 
       2.692130395282e+01       1.632797824021e-02 
       2.906895534573e+01       1.301974029659e-02 
       3.138793597714e+01       1.031417335073e-02 
       3.389191366484e+01       8.102192394321e-03 
       3.659564657905e+01       6.295529517074e-03 
       3.951507022538e+01       4.822790803158e-03 
       4.266739136701e+01       3.626439468517e-03 
       4.607118943941e+01       2.660406335887e-03 
       4.974652605557e+01       1.888036542709e-03 
       5.371506324689e+01       1.280249236853e-03 
       5.800019113685e+01       8.136757247514e-04 
       6.262716579983e+01       4.693762411484e-04 
       6.762325811764e+01       2.311148315592e-04 
