# Matter power spectrum P(k) at redshift z=99
# for k=1.04775e-05 to 67.6233 h/Mpc,
# number of wavenumbers equal to 246
#    1:k (h/Mpc)              2:P (Mpc/h)^3        
       1.047750691338e-05       7.261927673119e-03 
       1.131335172818e-05       7.820331745737e-03 
       1.221587619877e-05       8.421675986488e-03 
       1.319039970550e-05       9.069258192194e-03 
       1.424266598317e-05       9.766638404421e-03 
       1.537887697396e-05       1.051764069682e-02 
       1.660572938097e-05       1.132639105520e-02 
       1.793045413791e-05       1.219733231416e-02 
       1.936085902737e-05       1.313524224380e-02 
       2.090537469909e-05       1.414527121893e-02 
       2.257310435923e-05       1.523296272192e-02 
       2.437387742372e-05       1.640429444530e-02 
       2.631830745176e-05       1.766569582177e-02 
       2.841785470091e-05       1.902408601793e-02 
       3.068489367268e-05       2.048692970591e-02 
       3.313278604643e-05       2.206225513594e-02 
       3.577595943165e-05       2.375870704909e-02 
       3.862999240274e-05       2.558560727479e-02 
       4.171170631739e-05       2.755297763344e-02 
       4.503926445983e-05       2.967161927315e-02 
       4.863227909323e-05       3.195316450832e-02 
       5.251192705226e-05       3.441013519284e-02 
       5.670107455699e-05       3.705601722527e-02 
       6.122441198393e-05       3.990533413561e-02 
       6.610859938837e-05       4.297372168203e-02 
       7.138242363583e-05       4.627802141688e-02 
       7.707696806873e-05       4.983636194159e-02 
       8.322579570814e-05       5.366826847231e-02 
       8.986514707061e-05       5.779476394568e-02 
       9.703415376577e-05       6.223848243885e-02 
       1.047750691338e-04       6.702379865640e-02 
       1.131335172818e-04       7.217695153381e-02 
       1.221587619877e-04       7.772619073573e-02 
       1.319039970550e-04       8.370193432376e-02 
       1.424266598317e-04       9.013692507547e-02 
       1.537887697396e-04       9.706641242570e-02 
       1.660572938097e-04       1.045283354271e-01 
       1.793045413791e-04       1.125635349068e-01 
       1.936085902737e-04       1.212159614968e-01 
       2.090537469909e-04       1.305329132714e-01 
       2.257310435923e-04       1.405652846215e-01 
       2.437387742372e-04       1.513678302540e-01 
       2.631830745176e-04       1.629994504871e-01 
       2.841785470091e-04       1.755234921224e-01 
       3.068489367268e-04       1.890080670413e-01 
       3.313278604643e-04       2.035264002435e-01 
       3.577595943165e-04       2.191571803681e-01 
       3.862999240274e-04       2.359849437593e-01 
       4.171170631739e-04       2.541004741539e-01 
       4.503926445983e-04       2.736012080278e-01 
       4.863227909323e-04       2.945916790965e-01 
       5.251192705226e-04       3.171839525183e-01 
       5.670107455699e-04       3.414980764002e-01 
       6.122441198393e-04       3.676625413100e-01 
       6.610859938837e-04       3.958147252304e-01 
       7.138242363583e-04       4.261013284908e-01 
       7.707696806873e-04       4.586787792351e-01 
       8.322579570814e-04       4.937136001371e-01 
       8.986514707061e-04       5.313826801402e-01 
       9.703415376577e-04       5.718734972157e-01 
       1.047750691338e-03       6.153841629505e-01 
       1.131335172818e-03       6.621233239466e-01 
       1.221587619877e-03       7.123098220426e-01 
       1.319039970550e-03       7.661720584463e-01 
       1.424266598317e-03       8.239546297729e-01 
       1.537887697396e-03       8.859011173466e-01 
       1.660572938097e-03       9.522588006421e-01 
       1.793045413791e-03       1.023280099819e+00 
       1.936085902737e-03       1.099216304579e+00 
       2.090537469909e-03       1.180312990453e+00 
       2.257310435923e-03       1.266804115853e+00 
       2.437387742372e-03       1.358904853406e+00 
       2.631830745176e-03       1.456802683156e+00 
       2.841785470091e-03       1.560646890522e+00 
       3.068489367268e-03       1.670536062499e+00 
       3.313278604643e-03       1.786503852164e+00 
       3.577595943165e-03       1.908502930790e+00 
       3.862999240274e-03       2.036387730709e+00 
       4.171170631739e-03       2.169896178864e+00 
       4.503926445983e-03       2.308631878994e+00 
       4.863227909323e-03       2.452047290962e+00 
       5.251192705226e-03       2.599430628088e+00 
       5.670107455699e-03       2.749896931804e+00 
       6.122441198393e-03       2.902386513384e+00 
       6.610859938837e-03       3.055668707819e+00 
       7.138242363583e-03       3.208356461544e+00 
       7.707696806873e-03       3.358923892833e+00 
       8.322579570814e-03       3.505725595286e+00 
       8.986514707061e-03       3.647009719547e+00 
       9.703415376577e-03       3.780923304327e+00 
       1.047750691338e-02       3.905491145903e+00 
       1.131335172818e-02       4.018588207807e+00 
       1.221587619877e-02       4.117901585370e+00 
       1.319039970550e-02       4.200915354537e+00 
       1.424266598317e-02       4.264943975391e+00 
       1.537887697392e-02       4.307219286070e+00 
       1.660572938023e-02       4.325061966790e+00 
       1.793045412706e-02       4.316058900131e+00 
       1.936085890181e-02       4.278231973379e+00 
       2.090537352463e-02       4.210201017548e+00 
       2.257309535333e-02       4.111414552935e+00 
       2.437382002918e-02       3.982425756010e+00 
       2.631799944462e-02       3.825167304683e+00 
       2.841644545389e-02       3.643282732363e+00 
       3.067933355377e-02       3.442196614869e+00 
       3.311368470740e-02       3.229240189391e+00 
       3.571840443502e-02       3.013521682197e+00 
       3.847720348444e-02       2.805280032712e+00 
       4.135335538431e-02       2.614409724194e+00 
       4.429361667738e-02       2.448132220367e+00 
       4.724366439141e-02       2.309233634373e+00 
       5.016480835311e-02       2.196109644189e+00 
       5.303989620246e-02       2.104367305715e+00 
       5.586870669566e-02       2.028462708085e+00 
       5.866042680613e-02       1.963153757191e+00 
       6.142798932958e-02       1.903774946988e+00 
       6.418496440164e-02       1.846476649178e+00 
       6.694418833788e-02       1.788199224829e+00 
       6.971731106057e-02       1.726713575390e+00 
       7.251476155766e-02       1.660655864725e+00 
       7.534587671527e-02       1.589467449528e+00 
       7.821907666265e-02       1.513438247892e+00 
       8.114203772912e-02       1.433568297180e+00 
       8.412184535029e-02       1.351492869366e+00 
       8.716512279304e-02       1.269274032399e+00 
       9.027813695930e-02       1.189192684865e+00 
       9.346688431697e-02       1.113502665233e+00 
       9.673716028276e-02       1.044174944769e+00 
       1.000946150830e-01       9.827060332194e-01 
       1.035447986537e-01       9.299379260433e-01 
       1.070931966762e-01       8.859591622556e-01 
       1.107452594425e-01       8.500718318504e-01 
       1.145064249153e-01       8.208033650652e-01 
       1.183821370918e-01       7.960251109342e-01 
       1.223778605862e-01       7.731448613238e-01 
       1.264990921987e-01       7.494517367404e-01 
       1.307513701367e-01       7.225568043195e-01 
       1.351402814784e-01       6.909067430137e-01 
       1.396714684203e-01       6.541806123323e-01 
       1.443506338194e-01       6.134258286039e-01 
       1.491835465229e-01       5.708680974884e-01 
       1.541760469708e-01       5.293637390597e-01 
       1.593340535561e-01       4.917104094413e-01 
       1.646635702297e-01       4.599199295033e-01 
       1.701706958456e-01       4.347286611208e-01 
       1.758616357459e-01       4.154093745080e-01 
       1.817427160982e-01       3.999376199281e-01 
       1.878204015065e-01       3.856823183314e-01 
       1.941013164283e-01       3.698090796384e-01 
       2.005922709503e-01       3.505453960529e-01 
       2.073002914972e-01       3.280430009266e-01 
       2.142326570816e-01       3.042143891746e-01 
       2.213969417533e-01       2.816122907414e-01 
       2.288010639706e-01       2.622571299414e-01 
       2.364533437147e-01       2.469620332834e-01 
       2.443625682930e-01       2.350134159397e-01 
       2.525380679504e-01       2.244178507852e-01 
       2.609898026346e-01       2.130942144368e-01 
       2.697284615565e-01       2.001017732678e-01 
       2.787655775689e-01       1.860198703696e-01 
       2.881136588829e-01       1.725170117833e-01 
       2.977863412677e-01       1.610664155271e-01 
       3.077985646929e-01       1.517614741139e-01 
       3.181667794071e-01       1.435592280824e-01 
       3.289091877812e-01       1.351812828205e-01 
       3.400460299658e-01       1.261640224043e-01 
       3.515999236474e-01       1.172018470221e-01 
       3.635962711085e-01       1.091769710184e-01 
       3.760637506334e-01       1.023095128162e-01 
       3.890349143879e-01       9.593788558108e-02 
       4.025469216825e-01       8.950772036068e-02 
       4.166424456376e-01       8.311206334831e-02 
       4.313708035863e-01       7.721566999218e-02 
       4.467893782977e-01       7.190059027869e-02 
       4.629654199664e-01       6.686906215711e-02 
       4.799783501994e-01       6.191750198810e-02 
       4.979227319373e-01       5.722214668186e-02 
       5.169121270864e-01       5.290292354078e-02 
       5.370841404489e-01       4.876983442761e-02 
       5.586070464571e-01       4.479093791943e-02 
       5.816885094930e-01       4.105186256073e-02 
       6.065870144995e-01       3.748991186317e-02 
       6.336266468475e-01       3.407625236787e-02 
       6.632156059511e-01       3.083470230910e-02 
       6.958678639263e-01       2.772826116556e-02 
       7.322247985589e-01       2.476713928037e-02 
       7.730680195114e-01       2.193958243384e-02 
       8.193049553677e-01       1.925613315485e-02 
       8.718988016039e-01       1.672926608926e-02 
       9.317218031082e-01       1.438420314327e-02 
       9.993660908989e-01       1.225070111093e-02 
       1.075037110174e+00       1.035258466383e-02 
       1.158653485707e+00       8.699716443664e-03 
       1.250099157308e+00       7.284592459362e-03 
       1.349432401273e+00       6.085476063949e-03 
       1.456947457397e+00       5.075699619290e-03 
       1.573135111331e+00       4.228295844370e-03 
       1.698621895592e+00       3.518542852617e-03 
       1.834127512934e+00       2.924948050016e-03 
       1.980444934528e+00       2.429145309191e-03 
       2.138435191726e+00       2.015490313024e-03 
       2.309029199186e+00       1.670753783647e-03 
       2.493232377687e+00       1.383774449883e-03 
       2.692130395285e+00       1.145108392709e-03 
       2.906895534573e+00       9.468335153660e-04 
       3.138793597714e+00       7.822627794594e-04 
       3.389191366484e+00       6.457953350602e-04 
       3.659564657905e+00       5.327390391491e-04 
       3.951507022538e+00       4.391529251040e-04 
       4.266739136701e+00       3.617503873414e-04 
       4.607118943941e+00       2.977882635986e-04 
       4.974652605557e+00       2.449719303273e-04 
       5.371506324689e+00       2.013901898994e-04 
       5.800019113685e+00       1.654575790380e-04 
       6.262716579983e+00       1.358513150008e-04 
       6.762325811764e+00       1.114740088542e-04 
       7.301791451110e+00       9.141614828251e-05 
       7.884293049406e+00       7.492236046309e-05 
       8.513263807261e+00       6.136771087694e-05 
       9.192410809424e+00       5.023534613080e-05 
       9.925736873929e+00       4.109730162697e-05 
       1.071756414427e+01       3.360055003076e-05 
       1.157255956364e+01       2.745362405184e-05 
       1.249576238137e+01       2.241565507305e-05 
       1.349261385375e+01       1.828870012470e-05 
       1.456898931416e+01       1.490943010758e-05 
       1.573123280165e+01       1.214372832814e-05 
       1.698619445202e+01       9.880613149401e-06 
       1.834127087176e+01       8.029895361882e-06 
       1.980444873285e+01       6.516579620436e-06 
       2.138435184532e+01       5.279589583328e-06 
       2.309029198506e+01       4.268842211636e-06 
       2.493232377636e+01       3.442994595633e-06 
       2.692130395282e+01       2.768508955480e-06 
       2.906895534573e+01       2.217791034088e-06 
       3.138793597714e+01       1.768282583209e-06 
       3.389191366484e+01       1.401662910416e-06 
       3.659564657905e+01       1.102906783324e-06 
       3.951507022538e+01       8.598465669008e-07 
       4.266739136701e+01       6.625429463576e-07 
       4.607118943941e+01       5.029809366639e-07 
       4.974652605557e+01       3.746387416691e-07 
       5.371506324689e+01       2.722627150499e-07 
       5.800019113685e+01       1.915764304998e-07 
       6.262716579983e+01       1.290949275703e-07 
       6.762325811764e+01       8.194838700739e-08 
