# Matter power spectrum P(k) at redshift z=99
# for k=1.04775e-05 to 67.6233 h/Mpc,
# number of wavenumbers equal to 246
#    1:k (h/Mpc)              2:P (Mpc/h)^3        
       1.047750691338e-05       7.261927673119e-03 
       1.131335172818e-05       7.820331745737e-03 
       1.221587619877e-05       8.421675986489e-03 
       1.319039970550e-05       9.069258192194e-03 
       1.424266598317e-05       9.766638404421e-03 
       1.537887697396e-05       1.051764069681e-02 
       1.660572938097e-05       1.132639105520e-02 
       1.793045413791e-05       1.219733231416e-02 
       1.936085902737e-05       1.313524224380e-02 
       2.090537469909e-05       1.414527121893e-02 
       2.257310435923e-05       1.523296272192e-02 
       2.437387742372e-05       1.640429444530e-02 
       2.631830745176e-05       1.766569582177e-02 
       2.841785470091e-05       1.902408601793e-02 
       3.068489367268e-05       2.048692970591e-02 
       3.313278604643e-05       2.206225513594e-02 
       3.577595943165e-05       2.375870704909e-02 
       3.862999240274e-05       2.558560727479e-02 
       4.171170631739e-05       2.755297763344e-02 
       4.503926445983e-05       2.967161927313e-02 
       4.863227909323e-05       3.195316450832e-02 
       5.251192705226e-05       3.441013519284e-02 
       5.670107455699e-05       3.705601722522e-02 
       6.122441198393e-05       3.990533413560e-02 
       6.610859938837e-05       4.297372168203e-02 
       7.138242363583e-05       4.627802141688e-02 
       7.707696806873e-05       4.983636194159e-02 
       8.322579570814e-05       5.366826847231e-02 
       8.986514707061e-05       5.779476394568e-02 
       9.703415376577e-05       6.223848243885e-02 
       1.047750691338e-04       6.702379865640e-02 
       1.131335172818e-04       7.217695153381e-02 
       1.221587619877e-04       7.772619073572e-02 
       1.319039970550e-04       8.370193432376e-02 
       1.424266598317e-04       9.013692507546e-02 
       1.537887697396e-04       9.706641242570e-02 
       1.660572938097e-04       1.045283354271e-01 
       1.793045413791e-04       1.125635349068e-01 
       1.936085902737e-04       1.212159614968e-01 
       2.090537469909e-04       1.305329132714e-01 
       2.257310435923e-04       1.405652846215e-01 
       2.437387742372e-04       1.513678302540e-01 
       2.631830745176e-04       1.629994504871e-01 
       2.841785470091e-04       1.755234921224e-01 
       3.068489367268e-04       1.890080670413e-01 
       3.313278604643e-04       2.035264002435e-01 
       3.577595943165e-04       2.191571803681e-01 
       3.862999240274e-04       2.359849437593e-01 
       4.171170631739e-04       2.541004741539e-01 
       4.503926445983e-04       2.736012080277e-01 
       4.863227909323e-04       2.945916790965e-01 
       5.251192705226e-04       3.171839525183e-01 
       5.670107455699e-04       3.414980764002e-01 
       6.122441198393e-04       3.676625413100e-01 
       6.610859938837e-04       3.958147252304e-01 
       7.138242363583e-04       4.261013284907e-01 
       7.707696806873e-04       4.586787792351e-01 
       8.322579570814e-04       4.937136001360e-01 
       8.986514707061e-04       5.313826801401e-01 
       9.703415376577e-04       5.718734972157e-01 
       1.047750691338e-03       6.153841629505e-01 
       1.131335172818e-03       6.621233239465e-01 
       1.221587619877e-03       7.123098220419e-01 
       1.319039970550e-03       7.661720584344e-01 
       1.424266598317e-03       8.239546297727e-01 
       1.537887697396e-03       8.859011173466e-01 
       1.660572938097e-03       9.522588006423e-01 
       1.793045413791e-03       1.023280099819e+00 
       1.936085902737e-03       1.099216304579e+00 
       2.090537469909e-03       1.180312990453e+00 
       2.257310435923e-03       1.266804115852e+00 
       2.437387742372e-03       1.358904853407e+00 
       2.631830745176e-03       1.456802683156e+00 
       2.841785470091e-03       1.560646890522e+00 
       3.068489367268e-03       1.670536062499e+00 
       3.313278604643e-03       1.786503852157e+00 
       3.577595943165e-03       1.908502930789e+00 
       3.862999240274e-03       2.036387730709e+00 
       4.171170631739e-03       2.169896177778e+00 
       4.503926445983e-03       2.308631878994e+00 
       4.863227909323e-03       2.452047290962e+00 
       5.251192705226e-03       2.599430628087e+00 
       5.670107455699e-03       2.749896931772e+00 
       6.122441198393e-03       2.902386513385e+00 
       6.610859938837e-03       3.055668699797e+00 
       7.138242363583e-03       3.208356461548e+00 
       7.707696806873e-03       3.358923892738e+00 
       8.322579570814e-03       3.505725595020e+00 
       8.986514707061e-03       3.647009370061e+00 
       9.703415376577e-03       3.780923304270e+00 
       1.047750691338e-02       3.905491710482e+00 
       1.131335172818e-02       4.018586837793e+00 
       1.221587619877e-02       4.117901696699e+00 
       1.319039970550e-02       4.200915374132e+00 
       1.424266598317e-02       4.264942406329e+00 
       1.537887697392e-02       4.307215882695e+00 
       1.660572938023e-02       4.325065275805e+00 
       1.793045412706e-02       4.316059546379e+00 
       1.936085890181e-02       4.278229690302e+00 
       2.090537352463e-02       4.210199149440e+00 
       2.257309535333e-02       4.111423021230e+00 
       2.437382002918e-02       3.982420936801e+00 
       2.631799944462e-02       3.825171157970e+00 
       2.841644545389e-02       3.643285838111e+00 
       3.067933355377e-02       3.442198890669e+00 
       3.311368470740e-02       3.229227327464e+00 
       3.571840443502e-02       3.013517771945e+00 
       3.847720348444e-02       2.805281451094e+00 
       4.135335538431e-02       2.614413608786e+00 
       4.429361667738e-02       2.448125451393e+00 
       4.724366439141e-02       2.309235255208e+00 
       5.016480835311e-02       2.196116024096e+00 
       5.303989620246e-02       2.104365635752e+00 
       5.586870669566e-02       2.028467969279e+00 
       5.866042680613e-02       1.963152385448e+00 
       6.142798932958e-02       1.903782881632e+00 
       6.418496440164e-02       1.846480508111e+00 
       6.694418833788e-02       1.788195060056e+00 
       6.971731106057e-02       1.726715301262e+00 
       7.251476155766e-02       1.660654097556e+00 
       7.534587671527e-02       1.589473368800e+00 
       7.821907666265e-02       1.513438300169e+00 
       8.114203772912e-02       1.433569395268e+00 
       8.412184535029e-02       1.351493523710e+00 
       8.716512279304e-02       1.269275239933e+00 
       9.027813695930e-02       1.189193246650e+00 
       9.346688431697e-02       1.113502316844e+00 
       9.673716028276e-02       1.044176549832e+00 
       1.000946150830e-01       9.827068490030e-01 
       1.035447986537e-01       9.299383448948e-01 
       1.070931966762e-01       8.859614953698e-01 
       1.107452594425e-01       8.500708167227e-01 
       1.145064249153e-01       8.208031149831e-01 
       1.183821370918e-01       7.960264743104e-01 
       1.223778605862e-01       7.731463814815e-01 
       1.264990921987e-01       7.494506380576e-01 
       1.307513701367e-01       7.225575071381e-01 
       1.351402814784e-01       6.909084931519e-01 
       1.396714684203e-01       6.541796928759e-01 
       1.443506338194e-01       6.134282745079e-01 
       1.491835465229e-01       5.708664914751e-01 
       1.541760469708e-01       5.293626000688e-01 
       1.593340535561e-01       4.917118143762e-01 
       1.646635702297e-01       4.599198587847e-01 
       1.701706958456e-01       4.347282731473e-01 
       1.758616357459e-01       4.154086170610e-01 
       1.817427160982e-01       3.999372789663e-01 
       1.878204015065e-01       3.856831328900e-01 
       1.941013164283e-01       3.698094189931e-01 
       2.005922709503e-01       3.505468399479e-01 
       2.073002914972e-01       3.280431453088e-01 
       2.142326570816e-01       3.042140072011e-01 
       2.213969417533e-01       2.816121278745e-01 
       2.288010639706e-01       2.622574895590e-01 
       2.364533437147e-01       2.469619773750e-01 
       2.443625682930e-01       2.350129037468e-01 
       2.525380679504e-01       2.244176883984e-01 
       2.609898026346e-01       2.130945211824e-01 
       2.697284615565e-01       2.001016767620e-01 
       2.787655775689e-01       1.860198075373e-01 
       2.881136588829e-01       1.725171038989e-01 
       2.977863412677e-01       1.610660443156e-01 
       3.077985646929e-01       1.517612559525e-01 
       3.181667794071e-01       1.435593703942e-01 
       3.289091877812e-01       1.351815816734e-01 
       3.400460299658e-01       1.261646423055e-01 
       3.515999236474e-01       1.172020938013e-01 
       3.635962711085e-01       1.091769541867e-01 
       3.760637506334e-01       1.023094908464e-01 
       3.890349143879e-01       9.593750228609e-02 
       4.025469216825e-01       8.950796505070e-02 
       4.166424456376e-01       8.311193521034e-02 
       4.313708035863e-01       7.721537995132e-02 
       4.467893782977e-01       7.190071047274e-02 
       4.629654199664e-01       6.686918273673e-02 
       4.799783501994e-01       6.191755855725e-02 
       4.979227319373e-01       5.722227182575e-02 
       5.169121270864e-01       5.290292447254e-02 
       5.370841404489e-01       4.876984314318e-02 
       5.586070464571e-01       4.479089640792e-02 
       5.816885094930e-01       4.105189612716e-02 
       6.065870144995e-01       3.748991660916e-02 
       6.336266468475e-01       3.407628594897e-02 
       6.632156059511e-01       3.083458869358e-02 
       6.958678639263e-01       2.772833485642e-02 
       7.322247985589e-01       2.476707829114e-02 
       7.730680195114e-01       2.193956777422e-02 
       8.193049553677e-01       1.925612082403e-02 
       8.718988016039e-01       1.672925925663e-02 
       9.317218031082e-01       1.438415349387e-02 
       9.993660908989e-01       1.225060219198e-02 
       1.075037110174e+00       1.035252943511e-02 
       1.158653485707e+00       8.699643596519e-03 
       1.250099157308e+00       7.284514895367e-03 
       1.349432401273e+00       6.085330944231e-03 
       1.456947457397e+00       5.075585888526e-03 
       1.573135111331e+00       4.228156911954e-03 
       1.698621895592e+00       3.518381454662e-03 
       1.834127512934e+00       2.924808091230e-03 
       1.980444934528e+00       2.428984570915e-03 
       2.138435191726e+00       2.015308451002e-03 
       2.309029199186e+00       1.670547161655e-03 
       2.493232377687e+00       1.383554366753e-03 
       2.692130395285e+00       1.144859874121e-03 
       2.906895534573e+00       9.465700813896e-04 
       3.138793597714e+00       7.819833528800e-04 
       3.389191366484e+00       6.454899850610e-04 
       3.659564657905e+00       5.324161850738e-04 
       3.951507022538e+00       4.388066383650e-04 
       4.266739136701e+00       3.613770687169e-04 
       4.607118943941e+00       2.973921033516e-04 
       4.974652605557e+00       2.445458379255e-04 
       5.371506324689e+00       2.009371894509e-04 
       5.800019113685e+00       1.649725738277e-04 
       6.262716579983e+00       1.353357392792e-04 
       6.762325811764e+00       1.109238268986e-04 
       7.301791451110e+00       9.083278017482e-05 
       7.884293049406e+00       7.430375924640e-05 
       8.513263807261e+00       6.071356303208e-05 
       9.192410809424e+00       4.954367141179e-05 
       9.925736873929e+00       4.036841242884e-05 
       1.071756414427e+01       3.283384291305e-05 
       1.157255956364e+01       2.664899546108e-05 
       1.249576238137e+01       2.157410472197e-05 
       1.349261385375e+01       1.741110859868e-05 
       1.456898931416e+01       1.399767224523e-05 
       1.573123280165e+01       1.120005153327e-05 
       1.698619445202e+01       8.908935043040e-06 
       1.834127087176e+01       7.034370088935e-06 
       1.980444873285e+01       5.503105719741e-06 
       2.138435184532e+01       4.255202130684e-06 
       2.309029198506e+01       3.242013307163e-06 
       2.493232377636e+01       2.423800404017e-06 
       2.692130395282e+01       1.768464280726e-06 
       2.906895534573e+01       1.249790398709e-06 
       3.138793597714e+01       8.463956277456e-07 
       3.389191366484e+01       5.405492088139e-07 
       3.659564657905e+01       3.171975011894e-07 
       3.951507022538e+01       1.632235650354e-07 
       4.266739136701e+01       6.661519877491e-08 
       4.607118943941e+01       1.596688430608e-08 
       4.974652605557e+01       1.004431173015e-10 
       5.371506324689e+01       7.991977190596e-09 
       5.800019113685e+01       2.898397566680e-08 
       6.262716579983e+01       5.334159640676e-08 
       6.762325811764e+01       7.304480930528e-08 
