# Matter power spectrum P(k) at redshift z=99
# for k=1.04775e-05 to 67.6233 h/Mpc,
# number of wavenumbers equal to 246
#    1:k (h/Mpc)              2:P (Mpc/h)^3        
       1.047750691338e-05       7.261927673119e-03 
       1.131335172818e-05       7.820331745737e-03 
       1.221587619877e-05       8.421675986489e-03 
       1.319039970550e-05       9.069258192194e-03 
       1.424266598317e-05       9.766638404421e-03 
       1.537887697396e-05       1.051764069682e-02 
       1.660572938097e-05       1.132639105520e-02 
       1.793045413791e-05       1.219733231416e-02 
       1.936085902737e-05       1.313524224381e-02 
       2.090537469909e-05       1.414527121893e-02 
       2.257310435923e-05       1.523296272192e-02 
       2.437387742372e-05       1.640429444530e-02 
       2.631830745176e-05       1.766569582178e-02 
       2.841785470091e-05       1.902408601793e-02 
       3.068489367268e-05       2.048692970592e-02 
       3.313278604643e-05       2.206225513594e-02 
       3.577595943165e-05       2.375870704909e-02 
       3.862999240274e-05       2.558560727479e-02 
       4.171170631739e-05       2.755297763344e-02 
       4.503926445983e-05       2.967161927316e-02 
       4.863227909323e-05       3.195316450832e-02 
       5.251192705226e-05       3.441013519284e-02 
       5.670107455699e-05       3.705601722528e-02 
       6.122441198393e-05       3.990533413563e-02 
       6.610859938837e-05       4.297372168203e-02 
       7.138242363583e-05       4.627802141688e-02 
       7.707696806873e-05       4.983636194159e-02 
       8.322579570814e-05       5.366826847231e-02 
       8.986514707061e-05       5.779476394569e-02 
       9.703415376577e-05       6.223848243885e-02 
       1.047750691338e-04       6.702379865640e-02 
       1.131335172818e-04       7.217695153381e-02 
       1.221587619877e-04       7.772619073572e-02 
       1.319039970550e-04       8.370193432376e-02 
       1.424266598317e-04       9.013692507546e-02 
       1.537887697396e-04       9.706641242570e-02 
       1.660572938097e-04       1.045283354271e-01 
       1.793045413791e-04       1.125635349068e-01 
       1.936085902737e-04       1.212159614968e-01 
       2.090537469909e-04       1.305329132714e-01 
       2.257310435923e-04       1.405652846215e-01 
       2.437387742372e-04       1.513678302540e-01 
       2.631830745176e-04       1.629994504871e-01 
       2.841785470091e-04       1.755234921224e-01 
       3.068489367268e-04       1.890080670413e-01 
       3.313278604643e-04       2.035264002435e-01 
       3.577595943165e-04       2.191571803681e-01 
       3.862999240274e-04       2.359849437593e-01 
       4.171170631739e-04       2.541004741539e-01 
       4.503926445983e-04       2.736012080278e-01 
       4.863227909323e-04       2.945916790965e-01 
       5.251192705226e-04       3.171839525182e-01 
       5.670107455699e-04       3.414980764002e-01 
       6.122441198393e-04       3.676625413100e-01 
       6.610859938837e-04       3.958147252304e-01 
       7.138242363583e-04       4.261013284921e-01 
       7.707696806873e-04       4.586787792354e-01 
       8.322579570814e-04       4.937136001364e-01 
       8.986514707061e-04       5.313826801402e-01 
       9.703415376577e-04       5.718734972158e-01 
       1.047750691338e-03       6.153841629505e-01 
       1.131335172818e-03       6.621233239466e-01 
       1.221587619877e-03       7.123098220430e-01 
       1.319039970550e-03       7.661720584700e-01 
       1.424266598317e-03       8.239546297729e-01 
       1.537887697396e-03       8.859011173466e-01 
       1.660572938097e-03       9.522588006418e-01 
       1.793045413791e-03       1.023280099819e+00 
       1.936085902737e-03       1.099216304579e+00 
       2.090537469909e-03       1.180312990453e+00 
       2.257310435923e-03       1.266804115848e+00 
       2.437387742372e-03       1.358904853405e+00 
       2.631830745176e-03       1.456802683156e+00 
       2.841785470091e-03       1.560646890521e+00 
       3.068489367268e-03       1.670536062500e+00 
       3.313278604643e-03       1.786503852156e+00 
       3.577595943165e-03       1.908502930787e+00 
       3.862999240274e-03       2.036387730708e+00 
       4.171170631739e-03       2.169896178687e+00 
       4.503926445983e-03       2.308631878993e+00 
       4.863227909323e-03       2.452047290960e+00 
       5.251192705226e-03       2.599430628085e+00 
       5.670107455699e-03       2.749896931844e+00 
       6.122441198393e-03       2.902386513380e+00 
       6.610859938837e-03       3.055668702906e+00 
       7.138242363583e-03       3.208356461534e+00 
       7.707696806873e-03       3.358923892617e+00 
       8.322579570814e-03       3.505725595339e+00 
       8.986514707061e-03       3.647009376978e+00 
       9.703415376577e-03       3.780923304237e+00 
       1.047750691338e-02       3.905491092396e+00 
       1.131335172818e-02       4.018587952548e+00 
       1.221587619877e-02       4.117901584264e+00 
       1.319039970550e-02       4.200915376291e+00 
       1.424266598317e-02       4.264941678005e+00 
       1.537887697392e-02       4.307220038750e+00 
       1.660572938023e-02       4.325062131317e+00 
       1.793045412706e-02       4.316057643432e+00 
       1.936085890181e-02       4.278230203858e+00 
       2.090537352463e-02       4.210204496724e+00 
       2.257309535333e-02       4.111419222953e+00 
       2.437382002918e-02       3.982424103094e+00 
       2.631799944462e-02       3.825162642542e+00 
       2.841644545389e-02       3.643283881042e+00 
       3.067933355377e-02       3.442196415625e+00 
       3.311368470740e-02       3.229241918071e+00 
       3.571840443502e-02       3.013512126884e+00 
       3.847720348444e-02       2.805286318508e+00 
       4.135335538431e-02       2.614413484701e+00 
       4.429361667738e-02       2.448134573034e+00 
       4.724366439141e-02       2.309234709585e+00 
       5.016480835311e-02       2.196115499546e+00 
       5.303989620246e-02       2.104363002395e+00 
       5.586870669566e-02       2.028462579372e+00 
       5.866042680613e-02       1.963152835615e+00 
       6.142798932958e-02       1.903783264291e+00 
       6.418496440164e-02       1.846480450927e+00 
       6.694418833788e-02       1.788196582844e+00 
       6.971731106057e-02       1.726718022572e+00 
       7.251476155766e-02       1.660654788372e+00 
       7.534587671527e-02       1.589473101568e+00 
       7.821907666265e-02       1.513438753301e+00 
       8.114203772912e-02       1.433571462316e+00 
       8.412184535029e-02       1.351491009271e+00 
       8.716512279304e-02       1.269270617482e+00 
       9.027813695930e-02       1.189192954728e+00 
       9.346688431697e-02       1.113500037694e+00 
       9.673716028276e-02       1.044174470023e+00 
       1.000946150830e-01       9.827088414726e-01 
       1.035447986537e-01       9.299394786431e-01 
       1.070931966762e-01       8.859605023718e-01 
       1.107452594425e-01       8.500700913883e-01 
       1.145064249153e-01       8.208029423399e-01 
       1.183821370918e-01       7.960264577612e-01 
       1.223778605862e-01       7.731452991986e-01 
       1.264990921987e-01       7.494517713523e-01 
       1.307513701367e-01       7.225585325984e-01 
       1.351402814784e-01       6.909078974573e-01 
       1.396714684203e-01       6.541818863683e-01 
       1.443506338194e-01       6.134269817006e-01 
       1.491835465229e-01       5.708680505987e-01 
       1.541760469708e-01       5.293626722952e-01 
       1.593340535561e-01       4.917108459733e-01 
       1.646635702297e-01       4.599198152521e-01 
       1.701706958456e-01       4.347288458673e-01 
       1.758616357459e-01       4.154077758436e-01 
       1.817427160982e-01       3.999372626230e-01 
       1.878204015065e-01       3.856811040779e-01 
       1.941013164283e-01       3.698091499694e-01 
       2.005922709503e-01       3.505459978096e-01 
       2.073002914972e-01       3.280433505054e-01 
       2.142326570816e-01       3.042139991369e-01 
       2.213969417533e-01       2.816113641864e-01 
       2.288010639706e-01       2.622568332940e-01 
       2.364533437147e-01       2.469616521574e-01 
       2.443625682930e-01       2.350124510181e-01 
       2.525380679504e-01       2.244170703939e-01 
       2.609898026346e-01       2.130933462749e-01 
       2.697284615565e-01       2.001005251495e-01 
       2.787655775689e-01       1.860194999477e-01 
       2.881136588829e-01       1.725166512606e-01 
       2.977863412677e-01       1.610650901691e-01 
       3.077985646929e-01       1.517600729395e-01 
       3.181667794071e-01       1.435588681951e-01 
       3.289091877812e-01       1.351807378366e-01 
       3.400460299658e-01       1.261638147236e-01 
       3.515999236474e-01       1.172011483437e-01 
       3.635962711085e-01       1.091759893285e-01 
       3.760637506334e-01       1.023083480939e-01 
       3.890349143879e-01       9.593651335687e-02 
       4.025469216825e-01       8.950640412434e-02 
       4.166424456376e-01       8.311038347696e-02 
       4.313708035863e-01       7.721427140970e-02 
       4.467893782977e-01       7.189938707751e-02 
       4.629654199664e-01       6.686772087259e-02 
       4.799783501994e-01       6.191584936430e-02 
       4.979227319373e-01       5.722066642755e-02 
       5.169121270864e-01       5.290117449375e-02 
       5.370841404489e-01       4.876808115169e-02 
       5.586070464571e-01       4.478889109991e-02 
       5.816885094930e-01       4.104984370546e-02 
       6.065870144995e-01       3.748787974275e-02 
       6.336266468475e-01       3.407395628397e-02 
       6.632156059511e-01       3.083231063311e-02 
       6.958678639263e-01       2.772586126679e-02 
       7.322247985589e-01       2.476450659398e-02 
       7.730680195114e-01       2.193680992628e-02 
       8.193049553677e-01       1.925310771634e-02 
       8.718988016039e-01       1.672602391578e-02 
       9.317218031082e-01       1.438066476785e-02 
       9.993660908989e-01       1.224681646152e-02 
       1.075037110174e+00       1.034843629136e-02 
       1.158653485707e+00       8.695158495474e-03 
       1.250099157308e+00       7.279650008113e-03 
       1.349432401273e+00       6.080112792408e-03 
       1.456947457397e+00       5.069941327552e-03 
       1.573135111331e+00       4.222059135900e-03 
       1.698621895592e+00       3.511780097304e-03 
       1.834127512934e+00       2.917683043662e-03 
       1.980444934528e+00       2.421308357896e-03 
       2.138435191726e+00       2.007059122655e-03 
       2.309029199186e+00       1.661713009592e-03 
       2.493232377687e+00       1.374080082753e-03 
       2.692130395285e+00       1.134749015224e-03 
       2.906895534573e+00       9.357712906157e-04 
       3.138793597714e+00       7.704853819316e-04 
       3.389191366484e+00       6.332778889721e-04 
       3.659564657905e+00       5.194666181116e-04 
       3.951507022538e+00       4.251217917258e-04 
       4.266739136701e+00       3.469550507066e-04 
       4.607118943941e+00       2.822353734651e-04 
       4.974652605557e+00       2.286810725961e-04 
       5.371506324689e+00       1.843946640373e-04 
       5.800019113685e+00       1.478043099748e-04 
       6.262716579983e+00       1.176057061145e-04 
       6.762325811764e+00       9.272334829537e-05 
       7.301791451110e+00       7.227333957802e-05 
       7.884293049406e+00       5.552522286618e-05 
       8.513263807261e+00       4.188253284739e-05 
       9.192410809424e+00       3.085746555902e-05 
       9.925736873929e+00       2.204889416617e-05 
       1.071756414427e+01       1.512784310018e-05 
       1.157255956364e+01       9.819799584346e-06 
       1.249576238137e+01       5.890285826479e-06 
       1.349261385375e+01       3.132991119287e-06 
       1.456898931416e+01       1.357065001913e-06 
       1.573123280165e+01       3.789903678534e-07 
       1.698619445202e+01       1.624584146454e-08 
       1.834127087176e+01       8.587315239730e-08 
       1.980444873285e+01       4.079370380322e-07 
       2.138435184532e+01       8.146024488596e-07 
       2.309029198506e+01       1.163987700153e-06 
       2.493232377636e+01       1.355765387567e-06 
       2.692130395282e+01       1.344586023677e-06 
       2.906895534573e+01       1.145177580446e-06 
       3.138793597714e+01       8.242207126257e-07 
       3.389191366484e+01       4.776852943825e-07 
       3.659564657905e+01       1.974062853362e-07 
       3.951507022538e+01       3.835347322867e-08 
       4.266739136701e+01       6.130227558630e-10 
       4.607118943941e+01       3.663299545926e-08 
       4.974652605557e+01       8.191729644336e-08 
       5.371506324689e+01       9.234213979531e-08 
       5.800019113685e+01       6.446663189818e-08 
       6.262716579983e+01       2.544233122580e-08 
       6.762325811764e+01       2.751890051974e-09 
