# Matter power spectrum P(k) at redshift z=0
# for k=1.04775e-05 to 67.6233 h/Mpc,
# number of wavenumbers equal to 246
#    1:k (h/Mpc)              2:P (Mpc/h)^3        
       1.047750691338e-05       5.020964806750e+01 
       1.131335172818e-05       5.407048206553e+01 
       1.221587619877e-05       5.822819063941e+01 
       1.319039970550e-05       6.270562589680e+01 
       1.424266598317e-05       6.752731788102e+01 
       1.537887697396e-05       7.271977200258e+01 
       1.660572938097e-05       7.831147241542e+01 
       1.793045413791e-05       8.433311815128e+01 
       1.936085902737e-05       9.081778242446e+01 
       2.090537469909e-05       9.780108061340e+01 
       2.257310435923e-05       1.053213197032e+02 
       2.437387742372e-05       1.134197377001e+02 
       2.631830745176e-05       1.221408202816e+02 
       2.841785470091e-05       1.315324720916e+02 
       3.068489367268e-05       1.416462093730e+02 
       3.313278604643e-05       1.525374500691e+02 
       3.577595943165e-05       1.642660687078e+02 
       3.862999240274e-05       1.768963504868e+02 
       4.171170631739e-05       1.904975992460e+02 
       4.503926445983e-05       2.051444490305e+02 
       4.863227909323e-05       2.209171463752e+02 
       5.251192705226e-05       2.379022222314e+02 
       5.670107455699e-05       2.561927926102e+02 
       6.122441198393e-05       2.758890441791e+02 
       6.610859938837e-05       2.970989225466e+02 
       7.138242363583e-05       3.199385558200e+02 
       7.707696806873e-05       3.445329780878e+02 
       8.322579570814e-05       3.710167315928e+02 
       8.986514707061e-05       3.995346440954e+02 
       9.703415376577e-05       4.302425403884e+02 
       1.047750691338e-04       4.633080762974e+02 
       1.131335172818e-04       4.989116267507e+02 
       1.221587619877e-04       5.372471946561e+02 
       1.319039970550e-04       5.785234124632e+02 
       1.424266598317e-04       6.229645930980e+02 
       1.537887697396e-04       6.708118484951e+02 
       1.660572938097e-04       7.223242660220e+02 
       1.793045413791e-04       7.777801557882e+02 
       1.936085902737e-04       8.374783607333e+02 
       2.090537469909e-04       9.017396264495e+02 
       2.257310435923e-04       9.709080260152e+02 
       2.437387742372e-04       1.045352448644e+03 
       2.631830745176e-04       1.125468122836e+03 
       2.841785470091e-04       1.211678179511e+03 
       3.068489367268e-04       1.304435249091e+03 
       3.313278604643e-04       1.404223052541e+03 
       3.577595943165e-04       1.511558013390e+03 
       3.862999240274e-04       1.626990836451e+03 
       4.171170631739e-04       1.751108027371e+03 
       4.503926445983e-04       1.884533381345e+03 
       4.863227909323e-04       2.027929376471e+03 
       5.251192705226e-04       2.181998446368e+03 
       5.670107455699e-04       2.347484100857e+03 
       6.122441198393e-04       2.525171869335e+03 
       6.610859938837e-04       2.715889981401e+03 
       7.138242363583e-04       2.920509686089e+03 
       7.707696806873e-04       3.139945097711e+03 
       8.322579570814e-04       3.375152334394e+03 
       8.986514707061e-04       3.627127828231e+03 
       9.703415376577e-04       3.896905450016e+03 
       1.047750691338e-03       4.185552170963e+03 
       1.131335172818e-03       4.494162426791e+03 
       1.221587619877e-03       4.823850702666e+03 
       1.319039970550e-03       5.175742739862e+03 
       1.424266598317e-03       5.551019592526e+03 
       1.537887697396e-03       5.950788335887e+03 
       1.660572938097e-03       6.376123046807e+03 
       1.793045413791e-03       6.828073896110e+03 
       1.936085902737e-03       7.307625375386e+03 
       2.090537469909e-03       7.815671898320e+03 
       2.257310435923e-03       8.352990369401e+03 
       2.437387742372e-03       8.920211057534e+03 
       2.631830745176e-03       9.517783061889e+03 
       2.841785470091e-03       1.014593703671e+04 
       3.068489367268e-03       1.080464505746e+04 
       3.313278604643e-03       1.149357459458e+04 
       3.577595943165e-03       1.221203620826e+04 
       3.862999240274e-03       1.295892538505e+04 
       4.171170631739e-03       1.373265999956e+04 
       4.503926445983e-03       1.453111834595e+04 
       4.863227909323e-03       1.535154984214e+04 
       5.251192705226e-03       1.619063613361e+04 
       5.670107455699e-03       1.704431256630e+04 
       6.122441198393e-03       1.790755938497e+04 
       6.610859938837e-03       1.877460421537e+04 
       7.138242363583e-03       1.963872429235e+04 
       7.707696806873e-03       2.049215713643e+04 
       8.322579570814e-03       2.132607230868e+04 
       8.986514707061e-03       2.213055046509e+04 
       9.703415376577e-03       2.289445471363e+04 
       1.047750691338e-02       2.360548370562e+04 
       1.131335172818e-02       2.425023008901e+04 
       1.221587619877e-02       2.481423921610e+04 
       1.319039970550e-02       2.528218810944e+04 
       1.424266598317e-02       2.563814298050e+04 
       1.537887697392e-02       2.586606509325e+04 
       1.660572938023e-02       2.595027717885e+04 
       1.793045412706e-02       2.587635998813e+04 
       1.936085890181e-02       2.563219120973e+04 
       2.090537352463e-02       2.520934182571e+04 
       2.257309535333e-02       2.460449295741e+04 
       2.437382002918e-02       2.382086516436e+04 
       2.631799944462e-02       2.287045459857e+04 
       2.841644545389e-02       2.177451101623e+04 
       3.067933355377e-02       2.056559689624e+04 
       3.311368470740e-02       1.928724428802e+04 
       3.571840443502e-02       1.799400113170e+04 
       3.847720348444e-02       1.674681816008e+04 
       4.135335538431e-02       1.560457374363e+04 
       4.429361667738e-02       1.461040211174e+04 
       4.724366439141e-02       1.378055627291e+04 
       5.016480835311e-02       1.310504811145e+04 
       5.303989620246e-02       1.255713750861e+04 
       5.586870669566e-02       1.210424951261e+04 
       5.866042680613e-02       1.171464225503e+04 
       6.142798932958e-02       1.136047503810e+04 
       6.418496440164e-02       1.101853263166e+04 
       6.694418833788e-02       1.067067895239e+04 
       6.971731106057e-02       1.030356701772e+04 
       7.251476155766e-02       9.908998354117e+03 
       7.534587671527e-02       9.483734371551e+03 
       7.821907666265e-02       9.029503255099e+03 
       8.114203772912e-02       8.552289877785e+03 
       8.412184535029e-02       8.061947476719e+03 
       8.716512279304e-02       7.570765932668e+03 
       9.027813695930e-02       7.092467254522e+03 
       9.346688431697e-02       6.640474860507e+03 
       9.673716028276e-02       6.226702196064e+03 
       1.000946150830e-01       5.859900987410e+03 
       1.035447986537e-01       5.545247109886e+03 
       1.070931966762e-01       5.283165374347e+03 
       1.107452594425e-01       5.069452847249e+03 
       1.145064249153e-01       4.895232277524e+03 
       1.183821370918e-01       4.747836537800e+03 
       1.223778605862e-01       4.611726703036e+03 
       1.264990921987e-01       4.470622965868e+03 
       1.307513701367e-01       4.310258782566e+03 
       1.351402814784e-01       4.121374477412e+03 
       1.396714684203e-01       3.902072790512e+03 
       1.443506338194e-01       3.658648623382e+03 
       1.491835465229e-01       3.404495296506e+03 
       1.541760469708e-01       3.156674806234e+03 
       1.593340535561e-01       2.931976369504e+03 
       1.646635702297e-01       2.742372487748e+03 
       1.701706958456e-01       2.592266537498e+03 
       1.758616357459e-01       2.477230873087e+03 
       1.817427160982e-01       2.385185326845e+03 
       1.878204015065e-01       2.300354631380e+03 
       1.941013164283e-01       2.205756979819e+03 
       2.005922709503e-01       2.090812634800e+03 
       2.073002914972e-01       1.956464447523e+03 
       2.142326570816e-01       1.814190149987e+03 
       2.213969417533e-01       1.679291806546e+03 
       2.288010639706e-01       1.563848232821e+03 
       2.364533437147e-01       1.472685671379e+03 
       2.443625682930e-01       1.401511678849e+03 
       2.525380679504e-01       1.338411468587e+03 
       2.609898026346e-01       1.270900857687e+03 
       2.697284615565e-01       1.193385446283e+03 
       2.787655775689e-01       1.109337575285e+03 
       2.881136588829e-01       1.028769139150e+03 
       2.977863412677e-01       9.604841479685e+02 
       3.077985646929e-01       9.050233388333e+02 
       3.181667794071e-01       8.561420335417e+02 
       3.289091877812e-01       8.061855902031e+02 
       3.400460299658e-01       7.523887447970e+02 
       3.515999236474e-01       6.989223867598e+02 
       3.635962711085e-01       6.510613074265e+02 
       3.760637506334e-01       6.101184135044e+02 
       3.890349143879e-01       5.721291374910e+02 
       4.025469216825e-01       5.337800053641e+02 
       4.166424456376e-01       4.956300534740e+02 
       4.313708035863e-01       4.604658953908e+02 
       4.467893782977e-01       4.287737749823e+02 
       4.629654199664e-01       3.987700568197e+02 
       4.799783501994e-01       3.692386835647e+02 
       4.979227319373e-01       3.412367178324e+02 
       5.169121270864e-01       3.154802275160e+02 
       5.370841404489e-01       2.908307759955e+02 
       5.586070464571e-01       2.671017988067e+02 
       5.816885094930e-01       2.448054597867e+02 
       6.065870144995e-01       2.235632021685e+02 
       6.336266468475e-01       2.032051677612e+02 
       6.632156059511e-01       1.838745052442e+02 
       6.958678639263e-01       1.653485565451e+02 
       7.322247985589e-01       1.476894448124e+02 
       7.730680195114e-01       1.308271651551e+02 
       8.193049553677e-01       1.148241659204e+02 
       8.718988016039e-01       9.975533021854e+01 
       9.317218031082e-01       8.576955361278e+01 
       9.993660908989e-01       7.304573998296e+01 
       1.075037110174e+00       6.172601329942e+01 
       1.158653485707e+00       5.186851847807e+01 
       1.250099157308e+00       4.342858232625e+01 
       1.349432401273e+00       3.627695212119e+01 
       1.456947457397e+00       3.025432132213e+01 
       1.573135111331e+00       2.519972546975e+01 
       1.698621895592e+00       2.096600868345e+01 
       1.834127512934e+00       1.742511917597e+01 
       1.980444934528e+00       1.446694105106e+01 
       2.138435191726e+00       1.199875914721e+01 
       2.309029199186e+00       9.941420197221e+00 
       2.493232377687e+00       8.228419361832e+00 
       2.692130395285e+00       6.803525213246e+00 
       2.906895534573e+00       5.619385461796e+00 
       3.138793597714e+00       4.636100532344e+00 
       3.389191366484e+00       3.820383633292e+00 
       3.659564657905e+00       3.144167443229e+00 
       3.951507022538e+00       2.584006672733e+00 
       4.266739136701e+00       2.120311885648e+00 
       4.607118943941e+00       1.736714324413e+00 
       4.974652605557e+00       1.419531907355e+00 
       5.371506324689e+00       1.157430335534e+00 
       5.800019113685e+00       9.409582767693e-01 
       6.262716579983e+00       7.622466420918e-01 
       6.762325811764e+00       6.148059688222e-01 
       7.301791451110e+00       4.932443231566e-01 
       7.884293049406e+00       3.931163920692e-01 
       8.513263807261e+00       3.107499266169e-01 
       9.192410809424e+00       2.431263281765e-01 
       9.925736873929e+00       1.877748487446e-01 
       1.071756414427e+01       1.426690207830e-01 
       1.157255956364e+01       1.061489080892e-01 
       1.249576238137e+01       7.686742860932e-02 
       1.349261385375e+01       5.371659889349e-02 
       1.456898931416e+01       3.578025716145e-02 
       1.573123280165e+01       2.229063522030e-02 
       1.698619445202e+01       1.258338624388e-02 
       1.834127087176e+01       6.060844219729e-03 
       1.980444873285e+01       2.161339658585e-03 
       2.138435184532e+01       3.364652254058e-04 
       2.309029198506e+01       3.929229129252e-05 
       2.493232377636e+01       7.274506414748e-04 
       2.692130395282e+01       1.882124137633e-03 
       2.906895534573e+01       3.042596600410e-03 
       3.138793597714e+01       3.850787040807e-03 
       3.389191366484e+01       4.095616268819e-03 
       3.659564657905e+01       3.740824340234e-03 
       3.951507022538e+01       2.919709225270e-03 
       4.266739136701e+01       1.887818095223e-03 
       4.607118943941e+01       9.355009757007e-04 
       4.974652605557e+01       2.857988437741e-04 
       5.371506324689e+01       1.605967768987e-05 
       5.800019113685e+01       4.323746293626e-05 
       6.262716579983e+01       1.859345608177e-04 
       6.762325811764e+01       2.738234281458e-04 
