# Matter power spectrum P(k) at redshift z=99
# for k=1.04775e-05 to 67.6233 h/Mpc,
# number of wavenumbers equal to 246
#    1:k (h/Mpc)              2:P (Mpc/h)^3        
       1.047750691338e-05       7.261927673119e-03 
       1.131335172818e-05       7.820331745737e-03 
       1.221587619877e-05       8.421675986488e-03 
       1.319039970550e-05       9.069258192194e-03 
       1.424266598317e-05       9.766638404421e-03 
       1.537887697396e-05       1.051764069682e-02 
       1.660572938097e-05       1.132639105520e-02 
       1.793045413791e-05       1.219733231416e-02 
       1.936085902737e-05       1.313524224380e-02 
       2.090537469909e-05       1.414527121893e-02 
       2.257310435923e-05       1.523296272192e-02 
       2.437387742372e-05       1.640429444530e-02 
       2.631830745176e-05       1.766569582177e-02 
       2.841785470091e-05       1.902408601793e-02 
       3.068489367268e-05       2.048692970591e-02 
       3.313278604643e-05       2.206225513594e-02 
       3.577595943165e-05       2.375870704909e-02 
       3.862999240274e-05       2.558560727479e-02 
       4.171170631739e-05       2.755297763344e-02 
       4.503926445983e-05       2.967161927315e-02 
       4.863227909323e-05       3.195316450832e-02 
       5.251192705226e-05       3.441013519284e-02 
       5.670107455699e-05       3.705601722528e-02 
       6.122441198393e-05       3.990533413561e-02 
       6.610859938837e-05       4.297372168203e-02 
       7.138242363583e-05       4.627802141688e-02 
       7.707696806873e-05       4.983636194159e-02 
       8.322579570814e-05       5.366826847231e-02 
       8.986514707061e-05       5.779476394568e-02 
       9.703415376577e-05       6.223848243885e-02 
       1.047750691338e-04       6.702379865640e-02 
       1.131335172818e-04       7.217695153381e-02 
       1.221587619877e-04       7.772619073573e-02 
       1.319039970550e-04       8.370193432375e-02 
       1.424266598317e-04       9.013692507546e-02 
       1.537887697396e-04       9.706641242570e-02 
       1.660572938097e-04       1.045283354271e-01 
       1.793045413791e-04       1.125635349068e-01 
       1.936085902737e-04       1.212159614968e-01 
       2.090537469909e-04       1.305329132714e-01 
       2.257310435923e-04       1.405652846215e-01 
       2.437387742372e-04       1.513678302540e-01 
       2.631830745176e-04       1.629994504870e-01 
       2.841785470091e-04       1.755234921224e-01 
       3.068489367268e-04       1.890080670413e-01 
       3.313278604643e-04       2.035264002435e-01 
       3.577595943165e-04       2.191571803681e-01 
       3.862999240274e-04       2.359849437593e-01 
       4.171170631739e-04       2.541004741539e-01 
       4.503926445983e-04       2.736012080277e-01 
       4.863227909323e-04       2.945916790965e-01 
       5.251192705226e-04       3.171839525182e-01 
       5.670107455699e-04       3.414980764002e-01 
       6.122441198393e-04       3.676625413100e-01 
       6.610859938837e-04       3.958147252303e-01 
       7.138242363583e-04       4.261013284918e-01 
       7.707696806873e-04       4.586787792352e-01 
       8.322579570814e-04       4.937136001372e-01 
       8.986514707061e-04       5.313826801401e-01 
       9.703415376577e-04       5.718734972157e-01 
       1.047750691338e-03       6.153841629505e-01 
       1.131335172818e-03       6.621233239465e-01 
       1.221587619877e-03       7.123098220418e-01 
       1.319039970550e-03       7.661720584625e-01 
       1.424266598317e-03       8.239546297730e-01 
       1.537887697396e-03       8.859011173467e-01 
       1.660572938097e-03       9.522588006423e-01 
       1.793045413791e-03       1.023280099819e+00 
       1.936085902737e-03       1.099216304579e+00 
       2.090537469909e-03       1.180312990453e+00 
       2.257310435923e-03       1.266804115849e+00 
       2.437387742372e-03       1.358904853405e+00 
       2.631830745176e-03       1.456802683156e+00 
       2.841785470091e-03       1.560646890522e+00 
       3.068489367268e-03       1.670536062500e+00 
       3.313278604643e-03       1.786503852157e+00 
       3.577595943165e-03       1.908502930787e+00 
       3.862999240274e-03       2.036387730709e+00 
       4.171170631739e-03       2.169896178850e+00 
       4.503926445983e-03       2.308631878994e+00 
       4.863227909323e-03       2.452047290962e+00 
       5.251192705226e-03       2.599430628088e+00 
       5.670107455699e-03       2.749896931819e+00 
       6.122441198393e-03       2.902386513384e+00 
       6.610859938837e-03       3.055668696695e+00 
       7.138242363583e-03       3.208356461544e+00 
       7.707696806873e-03       3.358923892565e+00 
       8.322579570814e-03       3.505725595125e+00 
       8.986514707061e-03       3.647009701679e+00 
       9.703415376577e-03       3.780923304257e+00 
       1.047750691338e-02       3.905491513744e+00 
       1.131335172818e-02       4.018588481690e+00 
       1.221587619877e-02       4.117901586399e+00 
       1.319039970550e-02       4.200915414220e+00 
       1.424266598317e-02       4.264942457359e+00 
       1.537887697392e-02       4.307218562217e+00 
       1.660572938023e-02       4.325064980479e+00 
       1.793045412706e-02       4.316056985338e+00 
       1.936085890181e-02       4.278226846937e+00 
       2.090537352463e-02       4.210205658716e+00 
       2.257309535333e-02       4.111418915989e+00 
       2.437382002918e-02       3.982430706261e+00 
       2.631799944462e-02       3.825163568240e+00 
       2.841644545389e-02       3.643279425760e+00 
       3.067933355377e-02       3.442196613959e+00 
       3.311368470740e-02       3.229243595433e+00 
       3.571840443502e-02       3.013512712164e+00 
       3.847720348444e-02       2.805280837403e+00 
       4.135335538431e-02       2.614414862573e+00 
       4.429361667738e-02       2.448124351421e+00 
       4.724366439141e-02       2.309236269185e+00 
       5.016480835311e-02       2.196113289702e+00 
       5.303989620246e-02       2.104365655271e+00 
       5.586870669566e-02       2.028460903083e+00 
       5.866042680613e-02       1.963151423844e+00 
       6.142798932958e-02       1.903785233307e+00 
       6.418496440164e-02       1.846475449590e+00 
       6.694418833788e-02       1.788197429521e+00 
       6.971731106057e-02       1.726714602180e+00 
       7.251476155766e-02       1.660655333864e+00 
       7.534587671527e-02       1.589472716145e+00 
       7.821907666265e-02       1.513435203538e+00 
       8.114203772912e-02       1.433567740640e+00 
       8.412184535029e-02       1.351493619585e+00 
       8.716512279304e-02       1.269272584641e+00 
       9.027813695930e-02       1.189194629792e+00 
       9.346688431697e-02       1.113502160503e+00 
       9.673716028276e-02       1.044173336402e+00 
       1.000946150830e-01       9.827075877439e-01 
       1.035447986537e-01       9.299396813134e-01 
       1.070931966762e-01       8.859611344714e-01 
       1.107452594425e-01       8.500710020040e-01 
       1.145064249153e-01       8.208035004323e-01 
       1.183821370918e-01       7.960240705109e-01 
       1.223778605862e-01       7.731450668134e-01 
       1.264990921987e-01       7.494524470130e-01 
       1.307513701367e-01       7.225573863072e-01 
       1.351402814784e-01       6.909088094814e-01 
       1.396714684203e-01       6.541806631795e-01 
       1.443506338194e-01       6.134269479217e-01 
       1.491835465229e-01       5.708684944546e-01 
       1.541760469708e-01       5.293645158477e-01 
       1.593340535561e-01       4.917117972289e-01 
       1.646635702297e-01       4.599203918360e-01 
       1.701706958456e-01       4.347286578046e-01 
       1.758616357459e-01       4.154083363115e-01 
       1.817427160982e-01       3.999376383157e-01 
       1.878204015065e-01       3.856833811808e-01 
       1.941013164283e-01       3.698106221727e-01 
       2.005922709503e-01       3.505459652736e-01 
       2.073002914972e-01       3.280440185764e-01 
       2.142326570816e-01       3.042140734826e-01 
       2.213969417533e-01       2.816123288516e-01 
       2.288010639706e-01       2.622572236937e-01 
       2.364533437147e-01       2.469621400827e-01 
       2.443625682930e-01       2.350133728019e-01 
       2.525380679504e-01       2.244181350441e-01 
       2.609898026346e-01       2.130933284821e-01 
       2.697284615565e-01       2.001021040276e-01 
       2.787655775689e-01       1.860199241204e-01 
       2.881136588829e-01       1.725170376689e-01 
       2.977863412677e-01       1.610665241799e-01 
       3.077985646929e-01       1.517616308085e-01 
       3.181667794071e-01       1.435602967687e-01 
       3.289091877812e-01       1.351812118881e-01 
       3.400460299658e-01       1.261644241332e-01 
       3.515999236474e-01       1.172021429037e-01 
       3.635962711085e-01       1.091768933629e-01 
       3.760637506334e-01       1.023094629143e-01 
       3.890349143879e-01       9.593768732185e-02 
       4.025469216825e-01       8.950765500661e-02 
       4.166424456376e-01       8.311178506967e-02 
       4.313708035863e-01       7.721569524336e-02 
       4.467893782977e-01       7.190072222952e-02 
       4.629654199664e-01       6.686884573810e-02 
       4.799783501994e-01       6.191764647254e-02 
       4.979227319373e-01       5.722227691614e-02 
       5.169121270864e-01       5.290308470546e-02 
       5.370841404489e-01       4.876987884478e-02 
       5.586070464571e-01       4.479094924296e-02 
       5.816885094930e-01       4.105195276781e-02 
       6.065870144995e-01       3.748989471409e-02 
       6.336266468475e-01       3.407641301208e-02 
       6.632156059511e-01       3.083460125946e-02 
       6.958678639263e-01       2.772828103405e-02 
       7.322247985589e-01       2.476715536035e-02 
       7.730680195114e-01       2.193954079630e-02 
       8.193049553677e-01       1.925610900466e-02 
       8.718988016039e-01       1.672925629752e-02 
       9.317218031082e-01       1.438421119391e-02 
       9.993660908989e-01       1.225059641926e-02 
       1.075037110174e+00       1.035258608890e-02 
       1.158653485707e+00       8.699701301588e-03 
       1.250099157308e+00       7.284536608523e-03 
       1.349432401273e+00       6.085422591902e-03 
       1.456947457397e+00       5.075651236193e-03 
       1.573135111331e+00       4.228250342324e-03 
       1.698621895592e+00       3.518479949008e-03 
       1.834127512934e+00       2.924902180041e-03 
       1.980444934528e+00       2.429083155413e-03 
       2.138435191726e+00       2.015410055446e-03 
       2.309029199186e+00       1.670672840075e-03 
       2.493232377687e+00       1.383683684423e-03 
       2.692130395285e+00       1.145014583667e-03 
       2.906895534573e+00       9.467255974221e-04 
       3.138793597714e+00       7.821483530640e-04 
       3.389191366484e+00       6.456735646314e-04 
       3.659564657905e+00       5.326025990517e-04 
       3.951507022538e+00       4.390089751765e-04 
       4.266739136701e+00       3.615995784522e-04 
       4.607118943941e+00       2.976251202749e-04 
       4.974652605557e+00       2.447953873215e-04 
       5.371506324689e+00       2.012019995973e-04 
       5.800019113685e+00       1.652560332686e-04 
       6.262716579983e+00       1.356369598128e-04 
       6.762325811764e+00       1.112451538508e-04 
       7.301791451110e+00       9.117260555067e-05 
       7.884293049406e+00       7.466324406111e-05 
       8.513263807261e+00       6.109278914933e-05 
       9.192410809424e+00       4.994361316186e-05 
       9.925736873929e+00       4.078857742107e-05 
       1.071756414427e+01       3.327454215441e-05 
       1.157255956364e+01       2.710983690626e-05 
       1.249576238137e+01       2.205399798631e-05 
       1.349261385375e+01       1.790903551105e-05 
       1.456898931416e+01       1.451236940063e-05 
       1.573123280165e+01       1.172920178045e-05 
       1.698619445202e+01       9.449900704028e-06 
       1.834127087176e+01       7.583758637224e-06 
       1.980444873285e+01       6.056590287766e-06 
       2.138435184532e+01       4.807728343047e-06 
       2.309029198506e+01       3.787541194238e-06 
       2.493232377636e+01       2.955550387530e-06 
       2.692130395282e+01       2.278738935963e-06 
       2.906895534573e+01       1.730240940605e-06 
       3.138793597714e+01       1.288307193837e-06 
       3.389191366484e+01       9.352864151770e-07 
       3.659564657905e+01       6.568369093922e-07 
       3.951507022538e+01       4.411808575568e-07 
       4.266739136701e+01       2.785917625861e-07 
       4.607118943941e+01       1.608137757798e-07 
       4.974652605557e+01       8.057232493377e-08 
       5.371506324689e+01       3.123191135303e-08 
       5.800019113685e+01       6.447346150593e-09 
       6.262716579983e+01       2.004305520740e-11 
       6.762325811764e+01       5.847771966585e-09 
