# Matter power spectrum P(k) at redshift z=0
# for k=1.04775e-05 to 67.6233 h/Mpc,
# number of wavenumbers equal to 246
#    1:k (h/Mpc)              2:P (Mpc/h)^3        
       1.047750691338e-05       5.020964806750e+01 
       1.131335172818e-05       5.407048206553e+01 
       1.221587619877e-05       5.822819064071e+01 
       1.319039970550e-05       6.270562589676e+01 
       1.424266598317e-05       6.752731788102e+01 
       1.537887697396e-05       7.271977200257e+01 
       1.660572938097e-05       7.831147241542e+01 
       1.793045413791e-05       8.433311815128e+01 
       1.936085902737e-05       9.081778242446e+01 
       2.090537469909e-05       9.780108061339e+01 
       2.257310435923e-05       1.053213197032e+02 
       2.437387742372e-05       1.134197377001e+02 
       2.631830745176e-05       1.221408202815e+02 
       2.841785470091e-05       1.315324720916e+02 
       3.068489367268e-05       1.416462093729e+02 
       3.313278604643e-05       1.525374500691e+02 
       3.577595943165e-05       1.642660687078e+02 
       3.862999240274e-05       1.768963504868e+02 
       4.171170631739e-05       1.904975992460e+02 
       4.503926445983e-05       2.051444490305e+02 
       4.863227909323e-05       2.209171463752e+02 
       5.251192705226e-05       2.379022222314e+02 
       5.670107455699e-05       2.561927925732e+02 
       6.122441198393e-05       2.758890441791e+02 
       6.610859938837e-05       2.970989225467e+02 
       7.138242363583e-05       3.199385558200e+02 
       7.707696806873e-05       3.445329780878e+02 
       8.322579570814e-05       3.710167315928e+02 
       8.986514707061e-05       3.995346440954e+02 
       9.703415376577e-05       4.302425403884e+02 
       1.047750691338e-04       4.633080762974e+02 
       1.131335172818e-04       4.989116267507e+02 
       1.221587619877e-04       5.372471946561e+02 
       1.319039970550e-04       5.785234124626e+02 
       1.424266598317e-04       6.229645930980e+02 
       1.537887697396e-04       6.708118484951e+02 
       1.660572938097e-04       7.223242660220e+02 
       1.793045413791e-04       7.777801553561e+02 
       1.936085902737e-04       8.374783607334e+02 
       2.090537469909e-04       9.017396264495e+02 
       2.257310435923e-04       9.709080260152e+02 
       2.437387742372e-04       1.045352448644e+03 
       2.631830745176e-04       1.125468122836e+03 
       2.841785470091e-04       1.211678179511e+03 
       3.068489367268e-04       1.304435249091e+03 
       3.313278604643e-04       1.404223052541e+03 
       3.577595943165e-04       1.511558013390e+03 
       3.862999240274e-04       1.626990836471e+03 
       4.171170631739e-04       1.751108027371e+03 
       4.503926445983e-04       1.884533381345e+03 
       4.863227909323e-04       2.027929376470e+03 
       5.251192705226e-04       2.181998446367e+03 
       5.670107455699e-04       2.347484100857e+03 
       6.122441198393e-04       2.525171869336e+03 
       6.610859938837e-04       2.715889981400e+03 
       7.138242363583e-04       2.920509686093e+03 
       7.707696806873e-04       3.139945097710e+03 
       8.322579570814e-04       3.375152334394e+03 
       8.986514707061e-04       3.627127828231e+03 
       9.703415376577e-04       3.896905450016e+03 
       1.047750691338e-03       4.185552170960e+03 
       1.131335172818e-03       4.494162426791e+03 
       1.221587619877e-03       4.823850702662e+03 
       1.319039970550e-03       5.175742734666e+03 
       1.424266598317e-03       5.551019592535e+03 
       1.537887697396e-03       5.950788335877e+03 
       1.660572938097e-03       6.376123046784e+03 
       1.793045413791e-03       6.828073896111e+03 
       1.936085902737e-03       7.307625375386e+03 
       2.090537469909e-03       7.815671859480e+03 
       2.257310435923e-03       8.352990369401e+03 
       2.437387742372e-03       8.920211057538e+03 
       2.631830745176e-03       9.517783061886e+03 
       2.841785470091e-03       1.014593703671e+04 
       3.068489367268e-03       1.080464505729e+04 
       3.313278604643e-03       1.149357459543e+04 
       3.577595943165e-03       1.221203620825e+04 
       3.862999240274e-03       1.295892538503e+04 
       4.171170631739e-03       1.373266002380e+04 
       4.503926445983e-03       1.453111834590e+04 
       4.863227909323e-03       1.535154984188e+04 
       5.251192705226e-03       1.619063613232e+04 
       5.670107455699e-03       1.704431256606e+04 
       6.122441198393e-03       1.790755938544e+04 
       6.610859938837e-03       1.877460372892e+04 
       7.138242363583e-03       1.963872429425e+04 
       7.707696806873e-03       2.049215712159e+04 
       8.322579570814e-03       2.132607231795e+04 
       8.986514707061e-03       2.213055143322e+04 
       9.703415376577e-03       2.289445472099e+04 
       1.047750691338e-02       2.360548678737e+04 
       1.131335172818e-02       2.425022853477e+04 
       1.221587619877e-02       2.481424191599e+04 
       1.319039970550e-02       2.528218643238e+04 
       1.424266598317e-02       2.563814325801e+04 
       1.537887697392e-02       2.586606051354e+04 
       1.660572938023e-02       2.595026960716e+04 
       1.793045412706e-02       2.587633150931e+04 
       1.936085890181e-02       2.563218701160e+04 
       2.090537352463e-02       2.520936644381e+04 
       2.257309535333e-02       2.460446236400e+04 
       2.437382002918e-02       2.382083822405e+04 
       2.631799944462e-02       2.287043589731e+04 
       2.841644545389e-02       2.177449549979e+04 
       3.067933355377e-02       2.056556038883e+04 
       3.311368470740e-02       1.928729230448e+04 
       3.571840443502e-02       1.799401784732e+04 
       3.847720348444e-02       1.674681553077e+04 
       4.135335538431e-02       1.560459164059e+04 
       4.429361667738e-02       1.461034888522e+04 
       4.724366439141e-02       1.378053821925e+04 
       5.016480835311e-02       1.310503965760e+04 
       5.303989620246e-02       1.255716434594e+04 
       5.586870669566e-02       1.210422752010e+04 
       5.866042680613e-02       1.171463800354e+04 
       6.142798932958e-02       1.136045587258e+04 
       6.418496440164e-02       1.101856909893e+04 
       6.694418833788e-02       1.067065307797e+04 
       6.971731106057e-02       1.030356575687e+04 
       7.251476155766e-02       9.908980702183e+03 
       7.534587671527e-02       9.483731245261e+03 
       7.821907666265e-02       9.029489504698e+03 
       8.114203772912e-02       8.552309119744e+03 
       8.412184535029e-02       8.061944740106e+03 
       8.716512279304e-02       7.570768854465e+03 
       9.027813695930e-02       7.092477343028e+03 
       9.346688431697e-02       6.640503946971e+03 
       9.673716028276e-02       6.226656520912e+03 
       1.000946150830e-01       5.859899474809e+03 
       1.035447986537e-01       5.545228032128e+03 
       1.070931966762e-01       5.283124694596e+03 
       1.107452594425e-01       5.069412520161e+03 
       1.145064249153e-01       4.895233900917e+03 
       1.183821370918e-01       4.747833410829e+03 
       1.223778605862e-01       4.611726674823e+03 
       1.264990921987e-01       4.470619477280e+03 
       1.307513701367e-01       4.310251164433e+03 
       1.351402814784e-01       4.121369530837e+03 
       1.396714684203e-01       3.902040652221e+03 
       1.443506338194e-01       3.658648233974e+03 
       1.491835465229e-01       3.404466485729e+03 
       1.541760469708e-01       3.156658336266e+03 
       1.593340535561e-01       2.931958864785e+03 
       1.646635702297e-01       2.742353778383e+03 
       1.701706958456e-01       2.592240919346e+03 
       1.758616357459e-01       2.477220540432e+03 
       1.817427160982e-01       2.385156883072e+03 
       1.878204015065e-01       2.300332726081e+03 
       1.941013164283e-01       2.205732343080e+03 
       2.005922709503e-01       2.090790571881e+03 
       2.073002914972e-01       1.956439110799e+03 
       2.142326570816e-01       1.814168488934e+03 
       2.213969417533e-01       1.679263557857e+03 
       2.288010639706e-01       1.563816002745e+03 
       2.364533437147e-01       1.472651181829e+03 
       2.443625682930e-01       1.401475770126e+03 
       2.525380679504e-01       1.338371382029e+03 
       2.609898026346e-01       1.270859788009e+03 
       2.697284615565e-01       1.193335823064e+03 
       2.787655775689e-01       1.109291459107e+03 
       2.881136588829e-01       1.028722639986e+03 
       2.977863412677e-01       9.604290923472e+02 
       3.077985646929e-01       9.049690905426e+02 
       3.181667794071e-01       8.560839310339e+02 
       3.289091877812e-01       8.061269034290e+02 
       3.400460299658e-01       7.523252721473e+02 
       3.515999236474e-01       6.988556651920e+02 
       3.635962711085e-01       6.509922008594e+02 
       3.760637506334e-01       6.100497217992e+02 
       3.890349143879e-01       5.720538202587e+02 
       4.025469216825e-01       5.336984853120e+02 
       4.166424456376e-01       4.955467267101e+02 
       4.313708035863e-01       4.603779972716e+02 
       4.467893782977e-01       4.286835813187e+02 
       4.629654199664e-01       3.986733501466e+02 
       4.799783501994e-01       3.691370242618e+02 
       4.979227319373e-01       3.411315845781e+02 
       5.169121270864e-01       3.153686148814e+02 
       5.370841404489e-01       2.907150929931e+02 
       5.586070464571e-01       2.669807224606e+02 
       5.816885094930e-01       2.446767494863e+02 
       6.065870144995e-01       2.234275970160e+02 
       6.336266468475e-01       2.030636821470e+02 
       6.632156059511e-01       1.837233051387e+02 
       6.958678639263e-01       1.651896073862e+02 
       7.322247985589e-01       1.475207281992e+02 
       7.730680195114e-01       1.306471039199e+02 
       8.193049553677e-01       1.146318865696e+02 
       8.718988016039e-01       9.954869428393e+01 
       9.317218031082e-01       8.554830634912e+01 
       9.993660908989e-01       7.280717335111e+01 
       1.075037110174e+00       6.146834026557e+01 
       1.158653485707e+00       5.159037026354e+01 
       1.250099157308e+00       4.312869913769e+01 
       1.349432401273e+00       3.595406575247e+01 
       1.456947457397e+00       2.990736510657e+01 
       1.573135111331e+00       2.482788205199e+01 
       1.698621895592e+00       2.056848248990e+01 
       1.834127512934e+00       1.700112896563e+01 
       1.980444934528e+00       1.401620311261e+01 
       2.138435191726e+00       1.152095011404e+01 
       2.309029199186e+00       9.436685658774e+00 
       2.493232377687e+00       7.697341383627e+00 
       2.692130395285e+00       6.247064089426e+00 
       2.906895534573e+00       5.039024725584e+00 
       3.138793597714e+00       4.034171429454e+00 
       3.389191366484e+00       3.199821937363e+00 
       3.659564657905e+00       2.508827729798e+00 
       3.951507022538e+00       1.938760954991e+00 
       4.266739136701e+00       1.470983989172e+00 
       4.607118943941e+00       1.090253468943e+00 
       4.974652605557e+00       7.838825688771e-01 
       5.371506324689e+00       5.414685938272e-01 
       5.800019113685e+00       3.541829912590e-01 
       6.262716579983e+00       2.144758361883e-01 
       6.762325811764e+00       1.155730700531e-01 
       7.301791451110e+00       5.115481029517e-02 
       7.884293049406e+00       1.502011766552e-02 
       8.513263807261e+00       9.119056288352e-04 
       9.192410809424e+00       2.460686272972e-03 
       9.925736873929e+00       1.332497274472e-02 
       1.071756414427e+01       2.752810312453e-02 
       1.157255956364e+01       3.996175430373e-02 
       1.249576238137e+01       4.697121507707e-02 
       1.349261385375e+01       4.684843354106e-02 
       1.456898931416e+01       4.004106638330e-02 
       1.573123280165e+01       2.887371069731e-02 
       1.698619445202e+01       1.673827551707e-02 
       1.834127087176e+01       6.902921783194e-03 
       1.980444873285e+01       1.329088006854e-03 
       2.138435184532e+01       2.411209965816e-05 
       2.309029198506e+01       1.301500710763e-03 
       2.493232377636e+01       2.881154814975e-03 
       2.692130395282e+01       3.220073373049e-03 
       2.906895534573e+01       2.221807780215e-03 
       3.138793597714e+01       8.578006129290e-04 
       3.389191366484e+01       8.514958422030e-05 
       3.659564657905e+01       5.024960109100e-05 
       3.951507022538e+01       2.435776083593e-04 
       4.266739136701e+01       2.401601665667e-04 
       4.607118943941e+01       8.580897602930e-05 
       4.974652605557e+01       1.975714240004e-06 
       5.371506324689e+01       1.508888232688e-05 
       5.800019113685e+01       2.295347127914e-05 
       6.262716579983e+01       6.024432861404e-06 
       6.762325811764e+01       1.299711739919e-07 
