# Matter power spectrum P(k) at redshift z=99
# for k=1.04775e-05 to 134.926 h/Mpc,
# number of wavenumbers equal to 255
#    1:k (h/Mpc)              2:P (Mpc/h)^3        
       1.047750691338e-05       7.261927108672e-03 
       1.131335172818e-05       7.820332165171e-03 
       1.221587619877e-05       8.421675397855e-03 
       1.319039970550e-05       9.069257754721e-03 
       1.424266598317e-05       9.766636469129e-03 
       1.537887697396e-05       1.051763975580e-02 
       1.660572938097e-05       1.132639252840e-02 
       1.793045413791e-05       1.219733203757e-02 
       1.936085902737e-05       1.313524189624e-02 
       2.090537469909e-05       1.414527087585e-02 
       2.257310435923e-05       1.523296547301e-02 
       2.437387742372e-05       1.640429657665e-02 
       2.631830745176e-05       1.766569606544e-02 
       2.841785470091e-05       1.902408714671e-02 
       3.068489367268e-05       2.048692971222e-02 
       3.313278604643e-05       2.206225471617e-02 
       3.577595943165e-05       2.375870888233e-02 
       3.862999240274e-05       2.558560674541e-02 
       4.171170631739e-05       2.755297677589e-02 
       4.503926445983e-05       2.967161938885e-02 
       4.863227909323e-05       3.195316461547e-02 
       5.251192705226e-05       3.441013472474e-02 
       5.670107455699e-05       3.705601748545e-02 
       6.122441198393e-05       3.990533420201e-02 
       6.610859938837e-05       4.297372250466e-02 
       7.138242363583e-05       4.627802063382e-02 
       7.707696806873e-05       4.983636169089e-02 
       8.322579570814e-05       5.366826796809e-02 
       8.986514707061e-05       5.779476330367e-02 
       9.703415376577e-05       6.223848233276e-02 
       1.047750691338e-04       6.702379837333e-02 
       1.131335172818e-04       7.217695044331e-02 
       1.221587619877e-04       7.772619044618e-02 
       1.319039970550e-04       8.370193395374e-02 
       1.424266598317e-04       9.013692523163e-02 
       1.537887697396e-04       9.706641148138e-02 
       1.660572938097e-04       1.045283345018e-01 
       1.793045413791e-04       1.125635331235e-01 
       1.936085902737e-04       1.212159594512e-01 
       2.090537469909e-04       1.305329109802e-01 
       2.257310435923e-04       1.405652821901e-01 
       2.437387742372e-04       1.513678277802e-01 
       2.631830745176e-04       1.629994478057e-01 
       2.841785470091e-04       1.755234893611e-01 
       3.068489367268e-04       1.890080648653e-01 
       3.313278604643e-04       2.035263981019e-01 
       3.577595943165e-04       2.191571781877e-01 
       3.862999240274e-04       2.359849427348e-01 
       4.171170631739e-04       2.541004717356e-01 
       4.503926445983e-04       2.736012065786e-01 
       4.863227909323e-04       2.945916779548e-01 
       5.251192705226e-04       3.171839513049e-01 
       5.670107455699e-04       3.414980774570e-01 
       6.122441198393e-04       3.676625422029e-01 
       6.610859938837e-04       3.958147278841e-01 
       7.138242363583e-04       4.261013338259e-01 
       7.707696806873e-04       4.586787887216e-01 
       8.322579570814e-04       4.937136119296e-01 
       8.986514707061e-04       5.313826968572e-01 
       9.703415376577e-04       5.718735183199e-01 
       1.047750691338e-03       6.153841932383e-01 
       1.131335172818e-03       6.621233628783e-01 
       1.221587619877e-03       7.123098748563e-01 
       1.319039970550e-03       7.661721267588e-01 
       1.424266598317e-03       8.239547183209e-01 
       1.537887697396e-03       8.859012281912e-01 
       1.660572938097e-03       9.522589490993e-01 
       1.793045413791e-03       1.023280283742e+00 
       1.936085902737e-03       1.099216540442e+00 
       2.090537469909e-03       1.180313282467e+00 
       2.257310435923e-03       1.266804483057e+00 
       2.437387742372e-03       1.358905323179e+00 
       2.631830745176e-03       1.456803278689e+00 
       2.841785470091e-03       1.560647653241e+00 
       3.068489367268e-03       1.670536997542e+00 
       3.313278604643e-03       1.786505022483e+00 
       3.577595943165e-03       1.908504387735e+00 
       3.862999240274e-03       2.036389439765e+00 
       4.171170631739e-03       2.169898215476e+00 
       4.503926445983e-03       2.308634444168e+00 
       4.863227909323e-03       2.452050613840e+00 
       5.251192705226e-03       2.599434603774e+00 
       5.670107455699e-03       2.749901028635e+00 
       6.122441198393e-03       2.902389935043e+00 
       6.610859938837e-03       3.055671114978e+00 
       7.138242363583e-03       3.208359928972e+00 
       7.707696806873e-03       3.358926409403e+00 
       8.322579570814e-03       3.505726588828e+00 
       8.986514707061e-03       3.647011945988e+00 
       9.703415376577e-03       3.780925720811e+00 
       1.047750691338e-02       3.905492305478e+00 
       1.131335172818e-02       4.018588987561e+00 
       1.221587619877e-02       4.117902042843e+00 
       1.319039970550e-02       4.200916656017e+00 
       1.424266598317e-02       4.264942490613e+00 
       1.537887697392e-02       4.307218093560e+00 
       1.660572938023e-02       4.325060554946e+00 
       1.793045412706e-02       4.316058134472e+00 
       1.936085890181e-02       4.278226200073e+00 
       2.090537352463e-02       4.210201368714e+00 
       2.257309535333e-02       4.111415044122e+00 
       2.437382002918e-02       3.982416543325e+00 
       2.631799944462e-02       3.825163530201e+00 
       2.841644545389e-02       3.643276317743e+00 
       3.067933355377e-02       3.442191790888e+00 
       3.311368470740e-02       3.229233525200e+00 
       3.571840443502e-02       3.013507226526e+00 
       3.847720348444e-02       2.805273571926e+00 
       4.135335538431e-02       2.614399061638e+00 
       4.429361667738e-02       2.448118938268e+00 
       4.724366439141e-02       2.309225809449e+00 
       5.016480835311e-02       2.196098654141e+00 
       5.303989620246e-02       2.104351522311e+00 
       5.586870669566e-02       2.028442367395e+00 
       5.866042680613e-02       1.963133106027e+00 
       6.142798932958e-02       1.903755447382e+00 
       6.418496440164e-02       1.846452821792e+00 
       6.694418833788e-02       1.788168914000e+00 
       6.971731106057e-02       1.726684906878e+00 
       7.251476155766e-02       1.660621409713e+00 
       7.534587671527e-02       1.589434598529e+00 
       7.821907666265e-02       1.513399239467e+00 
       8.114203772912e-02       1.433529323329e+00 
       8.412184535029e-02       1.351450788815e+00 
       8.716512279304e-02       1.269230235545e+00 
       9.027813695930e-02       1.189147747142e+00 
       9.346688431697e-02       1.113453654918e+00 
       9.673716028276e-02       1.044125083817e+00 
       1.000946150830e-01       9.826545055758e-01 
       1.035447986537e-01       9.298837013055e-01 
       1.070931966762e-01       8.859022381442e-01 
       1.107452594425e-01       8.500115079748e-01 
       1.145064249153e-01       8.207420136271e-01 
       1.183821370918e-01       7.959587069764e-01 
       1.223778605862e-01       7.730766688866e-01 
       1.264990921987e-01       7.493785500184e-01 
       1.307513701367e-01       7.224809357703e-01 
       1.351402814784e-01       6.908292009344e-01 
       1.396714684203e-01       6.540984596426e-01 
       1.443506338194e-01       6.133408053870e-01 
       1.491835465229e-01       5.707786135829e-01 
       1.541760469708e-01       5.292710928223e-01 
       1.593340535561e-01       4.916143806639e-01 
       1.646635702297e-01       4.598205727296e-01 
       1.701706958456e-01       4.346246936381e-01 
       1.758616357459e-01       4.153000730430e-01 
       1.817427160982e-01       3.998233301101e-01 
       1.878204015065e-01       3.855673339549e-01 
       1.941013164283e-01       3.696901809178e-01 
       2.005922709503e-01       3.504222925535e-01 
       2.073002914972e-01       3.279141402888e-01 
       2.142326570816e-01       3.040756287988e-01 
       2.213969417533e-01       2.814696722867e-01 
       2.288010639706e-01       2.621103168751e-01 
       2.364533437147e-01       2.468100595540e-01 
       2.443625682930e-01       2.348546560108e-01 
       2.525380679504e-01       2.242549731202e-01 
       2.609898026346e-01       2.129235669011e-01 
       2.697284615565e-01       1.999239679622e-01 
       2.787655775689e-01       1.858356234009e-01 
       2.881136588829e-01       1.723272742080e-01 
       2.977863412677e-01       1.608698020603e-01 
       3.077985646929e-01       1.515570974412e-01 
       3.181667794071e-01       1.433474579560e-01 
       3.289091877812e-01       1.349618879090e-01 
       3.400460299658e-01       1.259366883584e-01 
       3.515999236474e-01       1.169668792968e-01 
       3.635962711085e-01       1.089338976389e-01 
       3.760637506334e-01       1.020574833790e-01 
       3.890349143879e-01       9.567596653755e-02 
       4.025469216825e-01       8.923660474680e-02 
       4.166424456376e-01       8.283126299461e-02 
       4.313708035863e-01       7.692505151803e-02 
       4.467893782977e-01       7.159926086455e-02 
       4.629654199664e-01       6.655636856324e-02 
       4.799783501994e-01       6.159325324885e-02 
       4.979227319373e-01       5.688586834571e-02 
       5.169121270864e-01       5.255330523266e-02 
       5.370841404489e-01       4.840634128641e-02 
       5.586070464571e-01       4.441300888941e-02 
       5.816885094930e-01       4.065836675421e-02 
       6.065870144995e-01       3.707934728628e-02 
       6.336266468475e-01       3.364788264127e-02 
       6.632156059511e-01       3.038633369313e-02 
       6.958678639263e-01       2.725848398995e-02 
       7.322247985589e-01       2.427365096572e-02 
       7.730680195114e-01       2.141971597103e-02 
       8.193049553677e-01       1.870672744360e-02 
       8.718988016039e-01       1.614710640386e-02 
       9.317218031082e-01       1.376562406052e-02 
       9.993660908989e-01       1.159233973235e-02 
       1.075037110174e+00       9.651651097743e-03 
       1.158653485707e+00       7.954126856022e-03 
       1.250099157308e+00       6.493821930041e-03 
       1.349432401273e+00       5.249999442953e-03 
       1.456947457397e+00       4.197048717381e-03 
       1.573135111331e+00       3.310289661429e-03 
       1.698621895592e+00       2.566517256255e-03 
       1.834127512934e+00       1.946690285515e-03 
       1.980444934528e+00       1.434383051626e-03 
       2.138435191726e+00       1.017285699519e-03 
       2.309029199186e+00       6.845690104172e-04 
       2.493232377687e+00       4.274997598941e-04 
       2.692130395285e+00       2.386042911860e-04 
       2.906895534573e+00       1.101507574418e-04 
       3.138793597714e+00       3.465425846329e-05 
       3.389191366484e+00       2.800771724271e-06 
       3.659564657905e+00       4.123577659973e-06 
       3.951507022538e+00       2.646149477129e-05 
       4.266739136701e+00       5.689372208254e-05 
       4.607118943941e+00       8.348997806082e-05 
       4.974652605557e+00       9.695157969274e-05 
       5.371506324689e+00       9.312508173881e-05 
       5.800019113685e+00       7.383512334792e-05 
       6.262716579983e+00       4.670427781154e-05 
       6.762325811764e+00       2.119059997182e-05 
       7.301791451110e+00       4.973364759863e-06 
       7.884293049406e+00       1.160566952540e-08 
       8.513263807261e+00       2.109762890720e-06 
       9.192410809424e+00       4.887845115121e-06 
       9.925736873929e+00       4.701712681460e-06 
       1.071756414427e+01       2.313368097795e-06 
       1.157255956364e+01       3.989604356406e-07 
       1.249576238137e+01       5.995215655276e-09 
       1.349261385375e+01       1.441316882366e-07 
       1.456898931416e+01       7.029741734893e-08 
       1.573123280165e+01       2.451704843050e-10 
       1.698619445202e+01       1.098959500891e-08 
       1.834127087176e+01       2.100677988691e-09 
       1.980444873285e+01       4.532991242007e-09 
       2.138435184532e+01       5.751433889131e-09 
       2.309029198506e+01       9.398446914435e-13 
       2.493232377636e+01       8.900219229576e-10 
       2.692130395282e+01       3.117212734533e-11 
       2.906895534573e+01       2.771613264525e-11 
       3.138793597714e+01       1.187999339910e-16 
       3.389191366484e+01       6.299807313942e-11 
       3.659564657905e+01       6.313133499224e-12 
       3.951507022538e+01       2.393997126959e-12 
       4.266739136701e+01       2.481522836695e-11 
       4.607118943941e+01       3.361971840967e-13 
       4.974652605557e+01       7.000789145875e-12 
       5.371506324689e+01       3.976691260860e-11 
       5.800019113685e+01       3.360950059356e-11 
       6.262716579983e+01       1.203343402820e-11 
       6.762325811764e+01       3.298141552640e-12 
       7.301791451110e+01       3.975350014014e-12 
       7.884293049406e+01       3.998992797067e-13 
       8.513263807261e+01       8.693941695555e-12 
       9.192410809424e+01       7.877357808137e-14 
       9.925736873929e+01       2.005841882817e-11 
       1.071756414427e+02       7.075750703015e-13 
       1.157255956364e+02       4.022797952399e-11 
       1.249576238137e+02       2.016674191691e-14 
       1.349261385375e+02       1.606606524238e-13 
