# Matter power spectrum P(k) at redshift z=0
# for k=1.04775e-05 to 67.6233 h/Mpc,
# number of wavenumbers equal to 246
#    1:k (h/Mpc)              2:P (Mpc/h)^3        
       1.047750691338e-05       5.020964806755e+01 
       1.131335172818e-05       5.407048206554e+01 
       1.221587619877e-05       5.822819063792e+01 
       1.319039970550e-05       6.270562589686e+01 
       1.424266598317e-05       6.752731788102e+01 
       1.537887697396e-05       7.271977200257e+01 
       1.660572938097e-05       7.831147241542e+01 
       1.793045413791e-05       8.433311815128e+01 
       1.936085902737e-05       9.081778242446e+01 
       2.090537469909e-05       9.780108061340e+01 
       2.257310435923e-05       1.053213197032e+02 
       2.437387742372e-05       1.134197377001e+02 
       2.631830745176e-05       1.221408202816e+02 
       2.841785470091e-05       1.315324720916e+02 
       3.068489367268e-05       1.416462093729e+02 
       3.313278604643e-05       1.525374500691e+02 
       3.577595943165e-05       1.642660687078e+02 
       3.862999240274e-05       1.768963504868e+02 
       4.171170631739e-05       1.904975992460e+02 
       4.503926445983e-05       2.051444490305e+02 
       4.863227909323e-05       2.209171463752e+02 
       5.251192705226e-05       2.379022222314e+02 
       5.670107455699e-05       2.561927925692e+02 
       6.122441198393e-05       2.758890441791e+02 
       6.610859938837e-05       2.970989225466e+02 
       7.138242363583e-05       3.199385558200e+02 
       7.707696806873e-05       3.445329780878e+02 
       8.322579570814e-05       3.710167315928e+02 
       8.986514707061e-05       3.995346440954e+02 
       9.703415376577e-05       4.302425403884e+02 
       1.047750691338e-04       4.633080762974e+02 
       1.131335172818e-04       4.989116267507e+02 
       1.221587619877e-04       5.372471946561e+02 
       1.319039970550e-04       5.785234124636e+02 
       1.424266598317e-04       6.229645930980e+02 
       1.537887697396e-04       6.708118484951e+02 
       1.660572938097e-04       7.223242660220e+02 
       1.793045413791e-04       7.777801557211e+02 
       1.936085902737e-04       8.374783607333e+02 
       2.090537469909e-04       9.017396264495e+02 
       2.257310435923e-04       9.709080260152e+02 
       2.437387742372e-04       1.045352448644e+03 
       2.631830745176e-04       1.125468122835e+03 
       2.841785470091e-04       1.211678179511e+03 
       3.068489367268e-04       1.304435249091e+03 
       3.313278604643e-04       1.404223052541e+03 
       3.577595943165e-04       1.511558013390e+03 
       3.862999240274e-04       1.626990836454e+03 
       4.171170631739e-04       1.751108027370e+03 
       4.503926445983e-04       1.884533381346e+03 
       4.863227909323e-04       2.027929376471e+03 
       5.251192705226e-04       2.181998446368e+03 
       5.670107455699e-04       2.347484100857e+03 
       6.122441198393e-04       2.525171869338e+03 
       6.610859938837e-04       2.715889981401e+03 
       7.138242363583e-04       2.920509686089e+03 
       7.707696806873e-04       3.139945097711e+03 
       8.322579570814e-04       3.375152334396e+03 
       8.986514707061e-04       3.627127828232e+03 
       9.703415376577e-04       3.896905450016e+03 
       1.047750691338e-03       4.185552170956e+03 
       1.131335172818e-03       4.494162426791e+03 
       1.221587619877e-03       4.823850702667e+03 
       1.319039970550e-03       5.175742736003e+03 
       1.424266598317e-03       5.551019592520e+03 
       1.537887697396e-03       5.950788335884e+03 
       1.660572938097e-03       6.376123046809e+03 
       1.793045413791e-03       6.828073896113e+03 
       1.936085902737e-03       7.307625375387e+03 
       2.090537469909e-03       7.815671860093e+03 
       2.257310435923e-03       8.352990369397e+03 
       2.437387742372e-03       8.920211057519e+03 
       2.631830745176e-03       9.517783061890e+03 
       2.841785470091e-03       1.014593703671e+04 
       3.068489367268e-03       1.080464505733e+04 
       3.313278604643e-03       1.149357459436e+04 
       3.577595943165e-03       1.221203620826e+04 
       3.862999240274e-03       1.295892538505e+04 
       4.171170631739e-03       1.373266002010e+04 
       4.503926445983e-03       1.453111834595e+04 
       4.863227909323e-03       1.535154984227e+04 
       5.251192705226e-03       1.619063613436e+04 
       5.670107455699e-03       1.704431256590e+04 
       6.122441198393e-03       1.790755938458e+04 
       6.610859938837e-03       1.877460410395e+04 
       7.138242363583e-03       1.963872429095e+04 
       7.707696806873e-03       2.049215713610e+04 
       8.322579570814e-03       2.132606711542e+04 
       8.986514707061e-03       2.213055021988e+04 
       9.703415376577e-03       2.289445470787e+04 
       1.047750691338e-02       2.360548228346e+04 
       1.131335172818e-02       2.425023378817e+04 
       1.221587619877e-02       2.481423922327e+04 
       1.319039970550e-02       2.528218804941e+04 
       1.424266598317e-02       2.563814361092e+04 
       1.537887697392e-02       2.586607866343e+04 
       1.660572938023e-02       2.595028548336e+04 
       1.793045412706e-02       2.587633818017e+04 
       1.936085890181e-02       2.563218888861e+04 
       2.090537352463e-02       2.520933573371e+04 
       2.257309535333e-02       2.460444206639e+04 
       2.437382002918e-02       2.382094395028e+04 
       2.631799944462e-02       2.287040910029e+04 
       2.841644545389e-02       2.177450599857e+04 
       3.067933355377e-02       2.056556477055e+04 
       3.311368470740e-02       1.928735724472e+04 
       3.571840443502e-02       1.799397846562e+04 
       3.847720348444e-02       1.674683141629e+04 
       4.135335538431e-02       1.560460522869e+04 
       4.429361667738e-02       1.461037430555e+04 
       4.724366439141e-02       1.378054439379e+04 
       5.016480835311e-02       1.310505440154e+04 
       5.303989620246e-02       1.255715670472e+04 
       5.586870669566e-02       1.210422407099e+04 
       5.866042680613e-02       1.171465187790e+04 
       6.142798932958e-02       1.136051029864e+04 
       6.418496440164e-02       1.101857063348e+04 
       6.694418833788e-02       1.067068664613e+04 
       6.971731106057e-02       1.030357474238e+04 
       7.251476155766e-02       9.909011418720e+03 
       7.534587671527e-02       9.483772585730e+03 
       7.821907666265e-02       9.029490548831e+03 
       8.114203772912e-02       8.552330083193e+03 
       8.412184535029e-02       8.061951382891e+03 
       8.716512279304e-02       7.570782847347e+03 
       9.027813695930e-02       7.092507642029e+03 
       9.346688431697e-02       6.640523938693e+03 
       9.673716028276e-02       6.226719467351e+03 
       1.000946150830e-01       5.859928931561e+03 
       1.035447986537e-01       5.545238069467e+03 
       1.070931966762e-01       5.283127906203e+03 
       1.107452594425e-01       5.069418211382e+03 
       1.145064249153e-01       4.895235577816e+03 
       1.183821370918e-01       4.747841074405e+03 
       1.223778605862e-01       4.611740476018e+03 
       1.264990921987e-01       4.470623582216e+03 
       1.307513701367e-01       4.310268711928e+03 
       1.351402814784e-01       4.121396488913e+03 
       1.396714684203e-01       3.902074548807e+03 
       1.443506338194e-01       3.658636833367e+03 
       1.491835465229e-01       3.404478556869e+03 
       1.541760469708e-01       3.156675287058e+03 
       1.593340535561e-01       2.931980492115e+03 
       1.646635702297e-01       2.742365115915e+03 
       1.701706958456e-01       2.592258148057e+03 
       1.758616357459e-01       2.477237371992e+03 
       1.817427160982e-01       2.385185165325e+03 
       1.878204015065e-01       2.300361444317e+03 
       1.941013164283e-01       2.205759766884e+03 
       2.005922709503e-01       2.090816257300e+03 
       2.073002914972e-01       1.956465932505e+03 
       2.142326570816e-01       1.814192466575e+03 
       2.213969417533e-01       1.679295973754e+03 
       2.288010639706e-01       1.563847685458e+03 
       2.364533437147e-01       1.472688203149e+03 
       2.443625682930e-01       1.401516567318e+03 
       2.525380679504e-01       1.338411964484e+03 
       2.609898026346e-01       1.270905568189e+03 
       2.697284615565e-01       1.193382831216e+03 
       2.787655775689e-01       1.109335563652e+03 
       2.881136588829e-01       1.028772939700e+03 
       2.977863412677e-01       9.604843735338e+02 
       3.077985646929e-01       9.050256588783e+02 
       3.181667794071e-01       8.561463686317e+02 
       3.289091877812e-01       8.061894292314e+02 
       3.400460299658e-01       7.523877735648e+02 
       3.515999236474e-01       6.989251120858e+02 
       3.635962711085e-01       6.510638805266e+02 
       3.760637506334e-01       6.101233965233e+02 
       3.890349143879e-01       5.721333048657e+02 
       4.025469216825e-01       5.337830179187e+02 
       4.166424456376e-01       4.956323774941e+02 
       4.313708035863e-01       4.604711463718e+02 
       4.467893782977e-01       4.287772617856e+02 
       4.629654199664e-01       3.987736773392e+02 
       4.799783501994e-01       3.692417874467e+02 
       4.979227319373e-01       3.412404850324e+02 
       5.169121270864e-01       3.154853105719e+02 
       5.370841404489e-01       2.908360673510e+02 
       5.586070464571e-01       2.671064675743e+02 
       5.816885094930e-01       2.448101202228e+02 
       6.065870144995e-01       2.235689523755e+02 
       6.336266468475e-01       2.032106886001e+02 
       6.632156059511e-01       1.838791847565e+02 
       6.958678639263e-01       1.653550720388e+02 
       7.322247985589e-01       1.476963182207e+02 
       7.730680195114e-01       1.308343532718e+02 
       8.193049553677e-01       1.148315915336e+02 
       8.718988016039e-01       9.976297977995e+01 
       9.317218031082e-01       8.577809974004e+01 
       9.993660908989e-01       7.305526929261e+01 
       1.075037110174e+00       6.173616172557e+01 
       1.158653485707e+00       5.187947451084e+01 
       1.250099157308e+00       4.344044138009e+01 
       1.349432401273e+00       3.628959818151e+01 
       1.456947457397e+00       3.026805131288e+01 
       1.573135111331e+00       2.521459005155e+01 
       1.698621895592e+00       2.098205074782e+01 
       1.834127512934e+00       1.744242943093e+01 
       1.980444934528e+00       1.448575195321e+01 
       2.138435191726e+00       1.201901532959e+01 
       2.309029199186e+00       9.963185236321e+00 
       2.493232377687e+00       8.251857675255e+00 
       2.692130395285e+00       6.828625758247e+00 
       2.906895534573e+00       5.646302557478e+00 
       3.138793597714e+00       4.664907263294e+00 
       3.389191366484e+00       3.851141644669e+00 
       3.659564657905e+00       3.176947156726e+00 
       3.951507022538e+00       2.618891036924e+00 
       4.266739136701e+00       2.157369221889e+00 
       4.607118943941e+00       1.775948386073e+00 
       4.974652605557e+00       1.460997583127e+00 
       5.371506324689e+00       1.201139207223e+00 
       5.800019113685e+00       9.868863073346e-01 
       6.262716579983e+00       8.103502268831e-01 
       6.762325811764e+00       6.650135786767e-01 
       7.301791451110e+00       5.454289797993e-01 
       7.884293049406e+00       4.471000937430e-01 
       8.513263807261e+00       3.663016645421e-01 
       9.192410809424e+00       2.999438019751e-01 
       9.925736873929e+00       2.454816665761e-01 
       1.071756414427e+01       2.008092642712e-01 
       1.157255956364e+01       1.641857560537e-01 
       1.249576238137e+01       1.341777743020e-01 
       1.349261385375e+01       1.096030299539e-01 
       1.456898931416e+01       8.948927566198e-02 
       1.573123280165e+01       7.303453678081e-02 
       1.698619445202e+01       5.957774770336e-02 
       1.834127087176e+01       4.858110923589e-02 
       1.980444873285e+01       3.959714913540e-02 
       2.138435184532e+01       3.226095756501e-02 
       2.309029198506e+01       2.627338597606e-02 
       2.493232377636e+01       2.138853301486e-02 
       2.692130395282e+01       1.740478879273e-02 
       2.906895534573e+01       1.415747947823e-02 
       3.138793597714e+01       1.151143486681e-02 
       3.389191366484e+01       9.356101955720e-03 
       3.659564657905e+01       7.601300953518e-03 
       3.951507022538e+01       6.173127444775e-03 
       4.266739136701e+01       5.011223722070e-03 
       4.607118943941e+01       4.066194341795e-03 
       4.974652605557e+01       3.298040952925e-03 
       5.371506324689e+01       2.673701282510e-03 
       5.800019113685e+01       2.166617652937e-03 
       6.262716579983e+01       1.754757843213e-03 
       6.762325811764e+01       1.420475614560e-03 
