# Matter power spectrum P(k) at redshift z=99
# for k=1.04775e-05 to 67.6233 h/Mpc,
# number of wavenumbers equal to 246
#    1:k (h/Mpc)              2:P (Mpc/h)^3        
       1.047750691338e-05       7.261927673119e-03 
       1.131335172818e-05       7.820331745737e-03 
       1.221587619877e-05       8.421675986488e-03 
       1.319039970550e-05       9.069258192194e-03 
       1.424266598317e-05       9.766638404421e-03 
       1.537887697396e-05       1.051764069682e-02 
       1.660572938097e-05       1.132639105520e-02 
       1.793045413791e-05       1.219733231416e-02 
       1.936085902737e-05       1.313524224380e-02 
       2.090537469909e-05       1.414527121893e-02 
       2.257310435923e-05       1.523296272192e-02 
       2.437387742372e-05       1.640429444530e-02 
       2.631830745176e-05       1.766569582177e-02 
       2.841785470091e-05       1.902408601793e-02 
       3.068489367268e-05       2.048692970591e-02 
       3.313278604643e-05       2.206225513594e-02 
       3.577595943165e-05       2.375870704909e-02 
       3.862999240274e-05       2.558560727479e-02 
       4.171170631739e-05       2.755297763344e-02 
       4.503926445983e-05       2.967161927315e-02 
       4.863227909323e-05       3.195316450832e-02 
       5.251192705226e-05       3.441013519284e-02 
       5.670107455699e-05       3.705601722525e-02 
       6.122441198393e-05       3.990533413560e-02 
       6.610859938837e-05       4.297372168203e-02 
       7.138242363583e-05       4.627802141688e-02 
       7.707696806873e-05       4.983636194159e-02 
       8.322579570814e-05       5.366826847231e-02 
       8.986514707061e-05       5.779476394569e-02 
       9.703415376577e-05       6.223848243885e-02 
       1.047750691338e-04       6.702379865640e-02 
       1.131335172818e-04       7.217695153381e-02 
       1.221587619877e-04       7.772619073570e-02 
       1.319039970550e-04       8.370193432376e-02 
       1.424266598317e-04       9.013692507547e-02 
       1.537887697396e-04       9.706641242570e-02 
       1.660572938097e-04       1.045283354271e-01 
       1.793045413791e-04       1.125635349068e-01 
       1.936085902737e-04       1.212159614968e-01 
       2.090537469909e-04       1.305329132714e-01 
       2.257310435923e-04       1.405652846215e-01 
       2.437387742372e-04       1.513678302540e-01 
       2.631830745176e-04       1.629994504871e-01 
       2.841785470091e-04       1.755234921224e-01 
       3.068489367268e-04       1.890080670413e-01 
       3.313278604643e-04       2.035264002435e-01 
       3.577595943165e-04       2.191571803681e-01 
       3.862999240274e-04       2.359849437594e-01 
       4.171170631739e-04       2.541004741539e-01 
       4.503926445983e-04       2.736012080277e-01 
       4.863227909323e-04       2.945916790965e-01 
       5.251192705226e-04       3.171839525182e-01 
       5.670107455699e-04       3.414980764002e-01 
       6.122441198393e-04       3.676625413100e-01 
       6.610859938837e-04       3.958147252304e-01 
       7.138242363583e-04       4.261013284922e-01 
       7.707696806873e-04       4.586787792355e-01 
       8.322579570814e-04       4.937136001343e-01 
       8.986514707061e-04       5.313826801402e-01 
       9.703415376577e-04       5.718734972158e-01 
       1.047750691338e-03       6.153841629504e-01 
       1.131335172818e-03       6.621233239466e-01 
       1.221587619877e-03       7.123098220433e-01 
       1.319039970550e-03       7.661720584717e-01 
       1.424266598317e-03       8.239546297731e-01 
       1.537887697396e-03       8.859011173466e-01 
       1.660572938097e-03       9.522588006420e-01 
       1.793045413791e-03       1.023280099819e+00 
       1.936085902737e-03       1.099216304579e+00 
       2.090537469909e-03       1.180312990454e+00 
       2.257310435923e-03       1.266804115850e+00 
       2.437387742372e-03       1.358904853407e+00 
       2.631830745176e-03       1.456802683156e+00 
       2.841785470091e-03       1.560646890522e+00 
       3.068489367268e-03       1.670536062499e+00 
       3.313278604643e-03       1.786503852160e+00 
       3.577595943165e-03       1.908502930787e+00 
       3.862999240274e-03       2.036387730709e+00 
       4.171170631739e-03       2.169896178365e+00 
       4.503926445983e-03       2.308631878994e+00 
       4.863227909323e-03       2.452047290962e+00 
       5.251192705226e-03       2.599430628088e+00 
       5.670107455699e-03       2.749896931843e+00 
       6.122441198393e-03       2.902386513385e+00 
       6.610859938837e-03       3.055668712194e+00 
       7.138242363583e-03       3.208356461546e+00 
       7.707696806873e-03       3.358923892166e+00 
       8.322579570814e-03       3.505725280140e+00 
       8.986514707061e-03       3.647009711095e+00 
       9.703415376577e-03       3.780923304282e+00 
       1.047750691338e-02       3.905490913500e+00 
       1.131335172818e-02       4.018587641232e+00 
       1.221587619877e-02       4.117901583186e+00 
       1.319039970550e-02       4.200915310248e+00 
       1.424266598317e-02       4.264942251166e+00 
       1.537887697392e-02       4.307219302990e+00 
       1.660572938023e-02       4.325062963970e+00 
       1.793045412706e-02       4.316059959998e+00 
       1.936085890181e-02       4.278230159660e+00 
       2.090537352463e-02       4.210205323159e+00 
       2.257309535333e-02       4.111423628252e+00 
       2.437382002918e-02       3.982417414946e+00 
       2.631799944462e-02       3.825166639967e+00 
       2.841644545389e-02       3.643278038958e+00 
       3.067933355377e-02       3.442196671097e+00 
       3.311368470740e-02       3.229237799330e+00 
       3.571840443502e-02       3.013510652875e+00 
       3.847720348444e-02       2.805280604287e+00 
       4.135335538431e-02       2.614408289252e+00 
       4.429361667738e-02       2.448130460104e+00 
       4.724366439141e-02       2.309240824641e+00 
       5.016480835311e-02       2.196116747872e+00 
       5.303989620246e-02       2.104359534281e+00 
       5.586870669566e-02       2.028466374010e+00 
       5.866042680613e-02       1.963154471721e+00 
       6.142798932958e-02       1.903783827463e+00 
       6.418496440164e-02       1.846476990043e+00 
       6.694418833788e-02       1.788195302737e+00 
       6.971731106057e-02       1.726713146654e+00 
       7.251476155766e-02       1.660654085164e+00 
       7.534587671527e-02       1.589470865002e+00 
       7.821907666265e-02       1.513440022952e+00 
       8.114203772912e-02       1.433569661977e+00 
       8.412184535029e-02       1.351492438366e+00 
       8.716512279304e-02       1.269278122415e+00 
       9.027813695930e-02       1.189191972314e+00 
       9.346688431697e-02       1.113502285208e+00 
       9.673716028276e-02       1.044176991792e+00 
       1.000946150830e-01       9.827074104725e-01 
       1.035447986537e-01       9.299389134984e-01 
       1.070931966762e-01       8.859579703380e-01 
       1.107452594425e-01       8.500692222979e-01 
       1.145064249153e-01       8.208031771955e-01 
       1.183821370918e-01       7.960261136702e-01 
       1.223778605862e-01       7.731471400482e-01 
       1.264990921987e-01       7.494496420859e-01 
       1.307513701367e-01       7.225580553154e-01 
       1.351402814784e-01       6.909083308479e-01 
       1.396714684203e-01       6.541799421164e-01 
       1.443506338194e-01       6.134267754782e-01 
       1.491835465229e-01       5.708679757070e-01 
       1.541760469708e-01       5.293625356402e-01 
       1.593340535561e-01       4.917109185262e-01 
       1.646635702297e-01       4.599205476699e-01 
       1.701706958456e-01       4.347284856612e-01 
       1.758616357459e-01       4.154081657317e-01 
       1.817427160982e-01       3.999375463304e-01 
       1.878204015065e-01       3.856825696403e-01 
       1.941013164283e-01       3.698095961798e-01 
       2.005922709503e-01       3.505466653071e-01 
       2.073002914972e-01       3.280440817828e-01 
       2.142326570816e-01       3.042137252063e-01 
       2.213969417533e-01       2.816123660316e-01 
       2.288010639706e-01       2.622567846892e-01 
       2.364533437147e-01       2.469618832250e-01 
       2.443625682930e-01       2.350127228409e-01 
       2.525380679504e-01       2.244180803192e-01 
       2.609898026346e-01       2.130935100659e-01 
       2.697284615565e-01       2.001018902266e-01 
       2.787655775689e-01       1.860198130921e-01 
       2.881136588829e-01       1.725171412715e-01 
       2.977863412677e-01       1.610660784936e-01 
       3.077985646929e-01       1.517611851403e-01 
       3.181667794071e-01       1.435590608736e-01 
       3.289091877812e-01       1.351815651966e-01 
       3.400460299658e-01       1.261644867265e-01 
       3.515999236474e-01       1.172023172827e-01 
       3.635962711085e-01       1.091769309116e-01 
       3.760637506334e-01       1.023096343010e-01 
       3.890349143879e-01       9.593766687803e-02 
       4.025469216825e-01       8.950759295065e-02 
       4.166424456376e-01       8.311177107822e-02 
       4.313708035863e-01       7.721574737721e-02 
       4.467893782977e-01       7.190047408333e-02 
       4.629654199664e-01       6.686908010167e-02 
       4.799783501994e-01       6.191756492135e-02 
       4.979227319373e-01       5.722233666633e-02 
       5.169121270864e-01       5.290288882008e-02 
       5.370841404489e-01       4.876986105165e-02 
       5.586070464571e-01       4.479089004390e-02 
       5.816885094930e-01       4.105180692128e-02 
       6.065870144995e-01       3.748995957073e-02 
       6.336266468475e-01       3.407625040807e-02 
       6.632156059511e-01       3.083451228814e-02 
       6.958678639263e-01       2.772835097826e-02 
       7.322247985589e-01       2.476708825164e-02 
       7.730680195114e-01       2.193959215025e-02 
       8.193049553677e-01       1.925614943259e-02 
       8.718988016039e-01       1.672930235146e-02 
       9.317218031082e-01       1.438424252516e-02 
       9.993660908989e-01       1.225064915120e-02 
       1.075037110174e+00       1.035262410807e-02 
       1.158653485707e+00       8.699723545804e-03 
       1.250099157308e+00       7.284584044531e-03 
       1.349432401273e+00       6.085464655563e-03 
       1.456947457397e+00       5.075760070427e-03 
       1.573135111331e+00       4.228307995387e-03 
       1.698621895592e+00       3.518553843234e-03 
       1.834127512934e+00       2.924985898561e-03 
       1.980444934528e+00       2.429159629731e-03 
       2.138435191726e+00       2.015510964472e-03 
       2.309029199186e+00       1.670778874235e-03 
       2.493232377687e+00       1.383796689420e-03 
       2.692130395285e+00       1.145127042879e-03 
       2.906895534573e+00       9.468582020746e-04 
       3.138793597714e+00       7.822890376724e-04 
       3.389191366484e+00       6.458230384946e-04 
       3.659564657905e+00       5.327694399943e-04 
       3.951507022538e+00       4.391875600190e-04 
       4.266739136701e+00       3.617892604748e-04 
       4.607118943941e+00       2.978286418841e-04 
       4.974652605557e+00       2.450142490494e-04 
       5.371506324689e+00       2.014362767340e-04 
       5.800019113685e+00       1.655064258744e-04 
       6.262716579983e+00       1.359037494982e-04 
       6.762325811764e+00       1.115309635062e-04 
       7.301791451110e+00       9.147681981246e-05 
       7.884293049406e+00       7.498677990209e-05 
       8.513263807261e+00       6.143643387925e-05 
       9.192410809424e+00       5.030831617500e-05 
       9.925736873929e+00       4.117508958085e-05 
       1.071756414427e+01       3.368320070618e-05 
       1.157255956364e+01       2.754132967542e-05 
       1.249576238137e+01       2.250876102790e-05 
       1.349261385375e+01       1.838756687780e-05 
       1.456898931416e+01       1.501416016468e-05 
       1.573123280165e+01       1.225429556493e-05 
       1.698619445202e+01       9.997607732066e-06 
       1.834127087176e+01       8.153081365046e-06 
       1.980444873285e+01       6.646249519869e-06 
       2.138435184532e+01       5.415719890757e-06 
       2.309029198506e+01       4.411309051341e-06 
       2.493232377636e+01       3.591878350182e-06 
       2.692130395282e+01       2.923562001817e-06 
       2.906895534573e+01       2.378747543673e-06 
       3.138793597714e+01       1.934759733164e-06 
       3.389191366484e+01       1.573100052810e-06 
       3.659564657905e+01       1.278624968216e-06 
       3.951507022538e+01       1.038917516807e-06 
       4.266739136701e+01       8.438638964482e-07 
       4.607118943941e+01       6.852066516309e-07 
       4.974652605557e+01       5.562055313925e-07 
       5.371506324689e+01       4.513419161329e-07 
       5.800019113685e+01       3.661337169295e-07 
       6.262716579983e+01       2.969117647846e-07 
       6.762325811764e+01       2.407043702269e-07 
