# Matter power spectrum P(k) at redshift z=0
# for k=1.04775e-05 to 67.6233 h/Mpc,
# number of wavenumbers equal to 246
#    1:k (h/Mpc)              2:P (Mpc/h)^3        
       1.047750691338e-05       5.020964806750e+01 
       1.131335172818e-05       5.407048206553e+01 
       1.221587619877e-05       5.822819063915e+01 
       1.319039970550e-05       6.270562589682e+01 
       1.424266598317e-05       6.752731788102e+01 
       1.537887697396e-05       7.271977200258e+01 
       1.660572938097e-05       7.831147241542e+01 
       1.793045413791e-05       8.433311815128e+01 
       1.936085902737e-05       9.081778242446e+01 
       2.090537469909e-05       9.780108061341e+01 
       2.257310435923e-05       1.053213197032e+02 
       2.437387742372e-05       1.134197377001e+02 
       2.631830745176e-05       1.221408202816e+02 
       2.841785470091e-05       1.315324720916e+02 
       3.068489367268e-05       1.416462093729e+02 
       3.313278604643e-05       1.525374500691e+02 
       3.577595943165e-05       1.642660687078e+02 
       3.862999240274e-05       1.768963504868e+02 
       4.171170631739e-05       1.904975992459e+02 
       4.503926445983e-05       2.051444490305e+02 
       4.863227909323e-05       2.209171463752e+02 
       5.251192705226e-05       2.379022222314e+02 
       5.670107455699e-05       2.561927925595e+02 
       6.122441198393e-05       2.758890441791e+02 
       6.610859938837e-05       2.970989225465e+02 
       7.138242363583e-05       3.199385558200e+02 
       7.707696806873e-05       3.445329780878e+02 
       8.322579570814e-05       3.710167315928e+02 
       8.986514707061e-05       3.995346440953e+02 
       9.703415376577e-05       4.302425403884e+02 
       1.047750691338e-04       4.633080762974e+02 
       1.131335172818e-04       4.989116267507e+02 
       1.221587619877e-04       5.372471946561e+02 
       1.319039970550e-04       5.785234124635e+02 
       1.424266598317e-04       6.229645930980e+02 
       1.537887697396e-04       6.708118484951e+02 
       1.660572938097e-04       7.223242660219e+02 
       1.793045413791e-04       7.777801557657e+02 
       1.936085902737e-04       8.374783607333e+02 
       2.090537469909e-04       9.017396264495e+02 
       2.257310435923e-04       9.709080260152e+02 
       2.437387742372e-04       1.045352448644e+03 
       2.631830745176e-04       1.125468122835e+03 
       2.841785470091e-04       1.211678179511e+03 
       3.068489367268e-04       1.304435249091e+03 
       3.313278604643e-04       1.404223052541e+03 
       3.577595943165e-04       1.511558013390e+03 
       3.862999240274e-04       1.626990836470e+03 
       4.171170631739e-04       1.751108027371e+03 
       4.503926445983e-04       1.884533381345e+03 
       4.863227909323e-04       2.027929376470e+03 
       5.251192705226e-04       2.181998446367e+03 
       5.670107455699e-04       2.347484100857e+03 
       6.122441198393e-04       2.525171869336e+03 
       6.610859938837e-04       2.715889981401e+03 
       7.138242363583e-04       2.920509686094e+03 
       7.707696806873e-04       3.139945097711e+03 
       8.322579570814e-04       3.375152334395e+03 
       8.986514707061e-04       3.627127828231e+03 
       9.703415376577e-04       3.896905450016e+03 
       1.047750691338e-03       4.185552170959e+03 
       1.131335172818e-03       4.494162426790e+03 
       1.221587619877e-03       4.823850702666e+03 
       1.319039970550e-03       5.175742735905e+03 
       1.424266598317e-03       5.551019592521e+03 
       1.537887697396e-03       5.950788335878e+03 
       1.660572938097e-03       6.376123046784e+03 
       1.793045413791e-03       6.828073896116e+03 
       1.936085902737e-03       7.307625375384e+03 
       2.090537469909e-03       7.815671858283e+03 
       2.257310435923e-03       8.352990369392e+03 
       2.437387742372e-03       8.920211057523e+03 
       2.631830745176e-03       9.517783061877e+03 
       2.841785470091e-03       1.014593703669e+04 
       3.068489367268e-03       1.080464505726e+04 
       3.313278604643e-03       1.149357459540e+04 
       3.577595943165e-03       1.221203620820e+04 
       3.862999240274e-03       1.295892538496e+04 
       4.171170631739e-03       1.373266002228e+04 
       4.503926445983e-03       1.453111834575e+04 
       4.863227909323e-03       1.535154984150e+04 
       5.251192705226e-03       1.619063613103e+04 
       5.670107455699e-03       1.704431256499e+04 
       6.122441198393e-03       1.790755938540e+04 
       6.610859938837e-03       1.877460414466e+04 
       7.138242363583e-03       1.963872429468e+04 
       7.707696806873e-03       2.049215713009e+04 
       8.322579570814e-03       2.132606793516e+04 
       8.986514707061e-03       2.213055075240e+04 
       9.703415376577e-03       2.289445472211e+04 
       1.047750691338e-02       2.360548522294e+04 
       1.131335172818e-02       2.425022933987e+04 
       1.221587619877e-02       2.481423921925e+04 
       1.319039970550e-02       2.528218634100e+04 
       1.424266598317e-02       2.563814164113e+04 
       1.537887697392e-02       2.586607366649e+04 
       1.660572938023e-02       2.595027231844e+04 
       1.793045412706e-02       2.587633286091e+04 
       1.936085890181e-02       2.563220475787e+04 
       2.090537352463e-02       2.520936204136e+04 
       2.257309535333e-02       2.460447411596e+04 
       2.437382002918e-02       2.382088602444e+04 
       2.631799944462e-02       2.287042710800e+04 
       2.841644545389e-02       2.177446924415e+04 
       3.067933355377e-02       2.056555124889e+04 
       3.311368470740e-02       1.928730282110e+04 
       3.571840443502e-02       1.799401387501e+04 
       3.847720348444e-02       1.674689047528e+04 
       4.135335538431e-02       1.560460161970e+04 
       4.429361667738e-02       1.461037521866e+04 
       4.724366439141e-02       1.378059788984e+04 
       5.016480835311e-02       1.310506716142e+04 
       5.303989620246e-02       1.255714987406e+04 
       5.586870669566e-02       1.210424919473e+04 
       5.866042680613e-02       1.171463002573e+04 
       6.142798932958e-02       1.136046335974e+04 
       6.418496440164e-02       1.101853702239e+04 
       6.694418833788e-02       1.067066958651e+04 
       6.971731106057e-02       1.030355524962e+04 
       7.251476155766e-02       9.908979276511e+03 
       7.534587671527e-02       9.483747920554e+03 
       7.821907666265e-02       9.029503353847e+03 
       8.114203772912e-02       8.552315998346e+03 
       8.412184535029e-02       8.061883343372e+03 
       8.716512279304e-02       7.570745969925e+03 
       9.027813695930e-02       7.092459556017e+03 
       9.346688431697e-02       6.640488079746e+03 
       9.673716028276e-02       6.226697763126e+03 
       1.000946150830e-01       5.859933803703e+03 
       1.035447986537e-01       5.545207200008e+03 
       1.070931966762e-01       5.283092890053e+03 
       1.107452594425e-01       5.069379757356e+03 
       1.145064249153e-01       4.895209395667e+03 
       1.183821370918e-01       4.747821362812e+03 
       1.223778605862e-01       4.611703872529e+03 
       1.264990921987e-01       4.470560039002e+03 
       1.307513701367e-01       4.310220598480e+03 
       1.351402814784e-01       4.121333051761e+03 
       1.396714684203e-01       3.901993239107e+03 
       1.443506338194e-01       3.658569632853e+03 
       1.491835465229e-01       3.404418255580e+03 
       1.541760469708e-01       3.156596549748e+03 
       1.593340535561e-01       2.931901225772e+03 
       1.646635702297e-01       2.742298441187e+03 
       1.701706958456e-01       2.592170628390e+03 
       1.758616357459e-01       2.477147520487e+03 
       1.817427160982e-01       2.385084427027e+03 
       1.878204015065e-01       2.300251899568e+03 
       1.941013164283e-01       2.205651815798e+03 
       2.005922709503e-01       2.090696778486e+03 
       2.073002914972e-01       1.956348592283e+03 
       2.142326570816e-01       1.814063355400e+03 
       2.213969417533e-01       1.679161145005e+03 
       2.288010639706e-01       1.563700352784e+03 
       2.364533437147e-01       1.472535688525e+03 
       2.443625682930e-01       1.401358687104e+03 
       2.525380679504e-01       1.338249027244e+03 
       2.609898026346e-01       1.270721083003e+03 
       2.697284615565e-01       1.193192322548e+03 
       2.787655775689e-01       1.109146357737e+03 
       2.881136588829e-01       1.028563202977e+03 
       2.977863412677e-01       9.602664380621e+02 
       3.077985646929e-01       9.047968936610e+02 
       3.181667794071e-01       8.559069038291e+02 
       3.289091877812e-01       8.059368571177e+02 
       3.400460299658e-01       7.521266621769e+02 
       3.515999236474e-01       6.986475055693e+02 
       3.635962711085e-01       6.507762078170e+02 
       3.760637506334e-01       6.098206058615e+02 
       3.890349143879e-01       5.718168451110e+02 
       4.025469216825e-01       5.334513107570e+02 
       4.166424456376e-01       4.952859773809e+02 
       4.313708035863e-01       4.601064600274e+02 
       4.467893782977e-01       4.283979328228e+02 
       4.629654199664e-01       3.983743344638e+02 
       4.799783501994e-01       3.688255873049e+02 
       4.979227319373e-01       3.408041787772e+02 
       5.169121270864e-01       3.150277276503e+02 
       5.370841404489e-01       2.903564227269e+02 
       5.586070464571e-01       2.666041043659e+02 
       5.816885094930e-01       2.442817235919e+02 
       6.065870144995e-01       2.230126811611e+02 
       6.336266468475e-01       2.026272138484e+02 
       6.632156059511e-01       1.832636594890e+02 
       6.958678639263e-01       1.647046427085e+02 
       7.322247985589e-01       1.470073195506e+02 
       7.730680195114e-01       1.301027498249e+02 
       8.193049553677e-01       1.140532994966e+02 
       8.718988016039e-01       9.893213051733e+01 
       9.317218031082e-01       8.488881765395e+01 
       9.993660908989e-01       7.210112790817e+01 
       1.075037110174e+00       6.071252340040e+01 
       1.158653485707e+00       5.078149426167e+01 
       1.250099157308e+00       4.226499951263e+01 
       1.349432401273e+00       3.503470005854e+01 
       1.456947457397e+00       2.893230563553e+01 
       1.573135111331e+00       2.379796828065e+01 
       1.698621895592e+00       1.948533917800e+01 
       1.834127512934e+00       1.586802457922e+01 
       1.980444934528e+00       1.283753738393e+01 
       2.138435191726e+00       1.030304391645e+01 
       2.309029199186e+00       8.187649988460e+00 
       2.493232377687e+00       6.427357182612e+00 
       2.692130395285e+00       4.968740771344e+00 
       2.906895534573e+00       3.767469108900e+00 
       3.138793597714e+00       2.786753740356e+00 
       3.389191366484e+00       1.996200420975e+00 
       3.659564657905e+00       1.370424190419e+00 
       3.951507022538e+00       8.877288531564e-01 
       4.266739136701e+00       5.293023928238e-01 
       4.607118943941e+00       2.779098877740e-01 
       4.974652605557e+00       1.170668071104e-01 
       5.371506324689e+00       3.027853634444e-02 
       5.800019113685e+00       6.111607361750e-04 
       6.262716579983e+00       1.069009336846e-02 
       6.762325811764e+00       4.322121009948e-02 
       7.301791451110e+00       8.207510174229e-02 
       7.884293049406e+00       1.137845888523e-01 
       8.513263807261e+00       1.292192040220e-01 
       9.192410809424e+00       1.248452522826e-01 
       9.925736873929e+00       1.030710236621e-01 
       1.071756414427e+01       7.116849270689e-02 
       1.157255956364e+01       3.872257596616e-02 
       1.249576238137e+01       1.419647249091e-02 
       1.349261385375e+01       1.857716845387e-03 
       1.456898931416e+01       4.903257124355e-04 
       1.573123280165e+01       4.734598375555e-03 
       1.698619445202e+01       8.489894542263e-03 
       1.834127087176e+01       8.395784465148e-03 
       1.980444873285e+01       5.112277564917e-03 
       2.138435184532e+01       1.601218080169e-03 
       2.309029198506e+01       5.578611696317e-05 
       2.493232377636e+01       2.802589308678e-04 
       2.692130395282e+01       7.334652908541e-04 
       2.906895534573e+01       5.607095065973e-04 
       3.138793597714e+01       1.406677417614e-04 
       3.389191366484e+01       3.857014805907e-07 
       3.659564657905e+01       5.714696193004e-05 
       3.951507022538e+01       5.288704693566e-05 
       4.266739136701e+01       7.296280027059e-06 
       4.607118943941e+01       2.148156152033e-06 
       4.974652605557e+01       6.077089580840e-06 
       5.371506324689e+01       9.693180649434e-07 
       5.800019113685e+01       2.714968823871e-07 
       6.262716579983e+01       4.339489679539e-07 
       6.762325811764e+01       9.724825489011e-10 
