# Matter power spectrum P(k) at redshift z=0
# for k=1.04775e-05 to 67.6233 h/Mpc,
# number of wavenumbers equal to 246
#    1:k (h/Mpc)              2:P (Mpc/h)^3        
       1.047750691338e-05       5.020964806755e+01 
       1.131335172818e-05       5.407048206553e+01 
       1.221587619877e-05       5.822819063905e+01 
       1.319039970550e-05       6.270562589679e+01 
       1.424266598317e-05       6.752731788102e+01 
       1.537887697396e-05       7.271977200258e+01 
       1.660572938097e-05       7.831147241542e+01 
       1.793045413791e-05       8.433311815128e+01 
       1.936085902737e-05       9.081778242446e+01 
       2.090537469909e-05       9.780108061339e+01 
       2.257310435923e-05       1.053213197032e+02 
       2.437387742372e-05       1.134197377001e+02 
       2.631830745176e-05       1.221408202816e+02 
       2.841785470091e-05       1.315324720916e+02 
       3.068489367268e-05       1.416462093730e+02 
       3.313278604643e-05       1.525374500691e+02 
       3.577595943165e-05       1.642660687078e+02 
       3.862999240274e-05       1.768963504868e+02 
       4.171170631739e-05       1.904975992460e+02 
       4.503926445983e-05       2.051444490305e+02 
       4.863227909323e-05       2.209171463752e+02 
       5.251192705226e-05       2.379022222314e+02 
       5.670107455699e-05       2.561927925428e+02 
       6.122441198393e-05       2.758890441791e+02 
       6.610859938837e-05       2.970989225466e+02 
       7.138242363583e-05       3.199385558200e+02 
       7.707696806873e-05       3.445329780878e+02 
       8.322579570814e-05       3.710167315928e+02 
       8.986514707061e-05       3.995346440954e+02 
       9.703415376577e-05       4.302425403884e+02 
       1.047750691338e-04       4.633080762974e+02 
       1.131335172818e-04       4.989116267507e+02 
       1.221587619877e-04       5.372471946561e+02 
       1.319039970550e-04       5.785234124632e+02 
       1.424266598317e-04       6.229645930980e+02 
       1.537887697396e-04       6.708118484951e+02 
       1.660572938097e-04       7.223242660220e+02 
       1.793045413791e-04       7.777801552911e+02 
       1.936085902737e-04       8.374783607333e+02 
       2.090537469909e-04       9.017396264495e+02 
       2.257310435923e-04       9.709080260152e+02 
       2.437387742372e-04       1.045352448644e+03 
       2.631830745176e-04       1.125468122836e+03 
       2.841785470091e-04       1.211678179511e+03 
       3.068489367268e-04       1.304435249091e+03 
       3.313278604643e-04       1.404223052541e+03 
       3.577595943165e-04       1.511558013390e+03 
       3.862999240274e-04       1.626990836448e+03 
       4.171170631739e-04       1.751108027370e+03 
       4.503926445983e-04       1.884533381345e+03 
       4.863227909323e-04       2.027929376470e+03 
       5.251192705226e-04       2.181998446368e+03 
       5.670107455699e-04       2.347484100857e+03 
       6.122441198393e-04       2.525171869337e+03 
       6.610859938837e-04       2.715889981400e+03 
       7.138242363583e-04       2.920509686090e+03 
       7.707696806873e-04       3.139945097711e+03 
       8.322579570814e-04       3.375152334397e+03 
       8.986514707061e-04       3.627127828231e+03 
       9.703415376577e-04       3.896905450016e+03 
       1.047750691338e-03       4.185552170958e+03 
       1.131335172818e-03       4.494162426791e+03 
       1.221587619877e-03       4.823850702673e+03 
       1.319039970550e-03       5.175742734762e+03 
       1.424266598317e-03       5.551019592523e+03 
       1.537887697396e-03       5.950788335879e+03 
       1.660572938097e-03       6.376123046806e+03 
       1.793045413791e-03       6.828073896117e+03 
       1.936085902737e-03       7.307625375386e+03 
       2.090537469909e-03       7.815671898625e+03 
       2.257310435923e-03       8.352990369399e+03 
       2.437387742372e-03       8.920211057544e+03 
       2.631830745176e-03       9.517783061890e+03 
       2.841785470091e-03       1.014593703671e+04 
       3.068489367268e-03       1.080464505748e+04 
       3.313278604643e-03       1.149357459444e+04 
       3.577595943165e-03       1.221203620826e+04 
       3.862999240274e-03       1.295892538505e+04 
       4.171170631739e-03       1.373266001999e+04 
       4.503926445983e-03       1.453111834595e+04 
       4.863227909323e-03       1.535154984227e+04 
       5.251192705226e-03       1.619063613437e+04 
       5.670107455699e-03       1.704431256581e+04 
       6.122441198393e-03       1.790755938454e+04 
       6.610859938837e-03       1.877460416313e+04 
       7.138242363583e-03       1.963872429095e+04 
       7.707696806873e-03       2.049215713340e+04 
       8.322579570814e-03       2.132607230559e+04 
       8.986514707061e-03       2.213055093561e+04 
       9.703415376577e-03       2.289445470793e+04 
       1.047750691338e-02       2.360547952612e+04 
       1.131335172818e-02       2.425022856779e+04 
       1.221587619877e-02       2.481423923128e+04 
       1.319039970550e-02       2.528218633378e+04 
       1.424266598317e-02       2.563814136567e+04 
       1.537887697392e-02       2.586605655975e+04 
       1.660572938023e-02       2.595028115974e+04 
       1.793045412706e-02       2.587634274985e+04 
       1.936085890181e-02       2.563219809828e+04 
       2.090537352463e-02       2.520933129296e+04 
       2.257309535333e-02       2.460448564948e+04 
       2.437382002918e-02       2.382088336588e+04 
       2.631799944462e-02       2.287045625634e+04 
       2.841644545389e-02       2.177449489259e+04 
       3.067933355377e-02       2.056555417224e+04 
       3.311368470740e-02       1.928730284641e+04 
       3.571840443502e-02       1.799395703582e+04 
       3.847720348444e-02       1.674683711399e+04 
       4.135335538431e-02       1.560448178447e+04 
       4.429361667738e-02       1.461039192236e+04 
       4.724366439141e-02       1.378054605724e+04 
       5.016480835311e-02       1.310506474339e+04 
       5.303989620246e-02       1.255716259777e+04 
       5.586870669566e-02       1.210424792076e+04 
       5.866042680613e-02       1.171466808987e+04 
       6.142798932958e-02       1.136048079673e+04 
       6.418496440164e-02       1.101856652639e+04 
       6.694418833788e-02       1.067068705453e+04 
       6.971731106057e-02       1.030357112909e+04 
       7.251476155766e-02       9.909000857759e+03 
       7.534587671527e-02       9.483797270891e+03 
       7.821907666265e-02       9.029503796616e+03 
       8.114203772912e-02       8.552338938747e+03 
       8.412184535029e-02       8.061951399633e+03 
       8.716512279304e-02       7.570762949070e+03 
       9.027813695930e-02       7.092510766237e+03 
       9.346688431697e-02       6.640502680182e+03 
       9.673716028276e-02       6.226727262090e+03 
       1.000946150830e-01       5.859933764535e+03 
       1.035447986537e-01       5.545209494826e+03 
       1.070931966762e-01       5.283128023940e+03 
       1.107452594425e-01       5.069408774818e+03 
       1.145064249153e-01       4.895244888818e+03 
       1.183821370918e-01       4.747839047151e+03 
       1.223778605862e-01       4.611725361822e+03 
       1.264990921987e-01       4.470622960782e+03 
       1.307513701367e-01       4.310275713566e+03 
       1.351402814784e-01       4.121389185103e+03 
       1.396714684203e-01       3.902066271325e+03 
       1.443506338194e-01       3.658642362723e+03 
       1.491835465229e-01       3.404485994347e+03 
       1.541760469708e-01       3.156681627267e+03 
       1.593340535561e-01       2.931978345411e+03 
       1.646635702297e-01       2.742371515454e+03 
       1.701706958456e-01       2.592258585518e+03 
       1.758616357459e-01       2.477242895898e+03 
       1.817427160982e-01       2.385186127681e+03 
       1.878204015065e-01       2.300361241283e+03 
       1.941013164283e-01       2.205760848240e+03 
       2.005922709503e-01       2.090810085160e+03 
       2.073002914972e-01       1.956466968446e+03 
       2.142326570816e-01       1.814192452212e+03 
       2.213969417533e-01       1.679299994730e+03 
       2.288010639706e-01       1.563848493810e+03 
       2.364533437147e-01       1.472686197977e+03 
       2.443625682930e-01       1.401513313711e+03 
       2.525380679504e-01       1.338412322279e+03 
       2.609898026346e-01       1.270904658737e+03 
       2.697284615565e-01       1.193383837451e+03 
       2.787655775689e-01       1.109335409084e+03 
       2.881136588829e-01       1.028773030324e+03 
       2.977863412677e-01       9.604820133629e+02 
       3.077985646929e-01       9.050246898551e+02 
       3.181667794071e-01       8.561475819991e+02 
       3.289091877812e-01       8.061882538924e+02 
       3.400460299658e-01       7.523919544551e+02 
       3.515999236474e-01       6.989235030735e+02 
       3.635962711085e-01       6.510667311307e+02 
       3.760637506334e-01       6.101233680549e+02 
       3.890349143879e-01       5.721338242829e+02 
       4.025469216825e-01       5.337834507733e+02 
       4.166424456376e-01       4.956340036701e+02 
       4.313708035863e-01       4.604695383486e+02 
       4.467893782977e-01       4.287798880328e+02 
       4.629654199664e-01       3.987735205665e+02 
       4.799783501994e-01       3.692418896307e+02 
       4.979227319373e-01       3.412416268139e+02 
       5.169121270864e-01       3.154851176675e+02 
       5.370841404489e-01       2.908353865764e+02 
       5.586070464571e-01       2.671068934532e+02 
       5.816885094930e-01       2.448108736969e+02 
       6.065870144995e-01       2.235674502423e+02 
       6.336266468475e-01       2.032112527406e+02 
       6.632156059511e-01       1.838797175532e+02 
       6.958678639263e-01       1.653546629466e+02 
       7.322247985589e-01       1.476958229768e+02 
       7.730680195114e-01       1.308338448543e+02 
       8.193049553677e-01       1.148314062720e+02 
       8.718988016039e-01       9.976267886012e+01 
       9.317218031082e-01       8.577800851702e+01 
       9.993660908989e-01       7.305529541351e+01 
       1.075037110174e+00       6.173614719908e+01 
       1.158653485707e+00       5.187946436428e+01 
       1.250099157308e+00       4.344044640823e+01 
       1.349432401273e+00       3.628952939872e+01 
       1.456947457397e+00       3.026819374550e+01 
       1.573135111331e+00       2.521468172446e+01 
       1.698621895592e+00       2.098212913272e+01 
       1.834127512934e+00       1.744243186490e+01 
       1.980444934528e+00       1.448573300670e+01 
       2.138435191726e+00       1.201898462886e+01 
       2.309029199186e+00       9.963260784271e+00 
       2.493232377687e+00       8.251859152585e+00 
       2.692130395285e+00       6.828650230329e+00 
       2.906895534573e+00       5.646308319098e+00 
       3.138793597714e+00       4.664942070924e+00 
       3.389191366484e+00       3.851126748822e+00 
       3.659564657905e+00       3.176951793715e+00 
       3.951507022538e+00       2.618894866217e+00 
       4.266739136701e+00       2.157372984880e+00 
       4.607118943941e+00       1.775953755142e+00 
       4.974652605557e+00       1.461005416829e+00 
       5.371506324689e+00       1.201133406569e+00 
       5.800019113685e+00       9.868806640789e-01 
       6.262716579983e+00       8.103561685254e-01 
       6.762325811764e+00       6.650180411580e-01 
       7.301791451110e+00       5.454295252209e-01 
       7.884293049406e+00       4.471036895681e-01 
       8.513263807261e+00       3.662983067434e-01 
       9.192410809424e+00       2.999450272297e-01 
       9.925736873929e+00       2.454816672041e-01 
       1.071756414427e+01       2.008094661372e-01 
       1.157255956364e+01       1.641861881918e-01 
       1.249576238137e+01       1.341777212265e-01 
       1.349261385375e+01       1.096026306906e-01 
       1.456898931416e+01       8.949018626715e-02 
       1.573123280165e+01       7.303425272322e-02 
       1.698619445202e+01       5.957834657220e-02 
       1.834127087176e+01       4.858127760765e-02 
       1.980444873285e+01       3.959755750660e-02 
       2.138435184532e+01       3.226128951674e-02 
       2.309029198506e+01       2.627352240938e-02 
       2.493232377636e+01       2.138856575350e-02 
       2.692130395282e+01       1.740470052616e-02 
       2.906895534573e+01       1.415750497931e-02 
       3.138793597714e+01       1.151138042689e-02 
       3.389191366484e+01       9.356185851254e-03 
       3.659564657905e+01       7.601223349547e-03 
       3.951507022538e+01       6.173118857845e-03 
       4.266739136701e+01       5.011168505641e-03 
       4.607118943941e+01       4.066188812136e-03 
       4.974652605557e+01       3.298000134354e-03 
       5.371506324689e+01       2.673713915544e-03 
       5.800019113685e+01       2.166598341471e-03 
       6.262716579983e+01       1.754767777626e-03 
       6.762325811764e+01       1.420479192886e-03 
