# Matter power spectrum P(k) at redshift z=99
# for k=1.04775e-05 to 67.6233 h/Mpc,
# number of wavenumbers equal to 246
#    1:k (h/Mpc)              2:P (Mpc/h)^3        
       1.047750691338e-05       7.261927673119e-03 
       1.131335172818e-05       7.820331745737e-03 
       1.221587619877e-05       8.421675986489e-03 
       1.319039970550e-05       9.069258192194e-03 
       1.424266598317e-05       9.766638404421e-03 
       1.537887697396e-05       1.051764069682e-02 
       1.660572938097e-05       1.132639105520e-02 
       1.793045413791e-05       1.219733231416e-02 
       1.936085902737e-05       1.313524224380e-02 
       2.090537469909e-05       1.414527121893e-02 
       2.257310435923e-05       1.523296272192e-02 
       2.437387742372e-05       1.640429444530e-02 
       2.631830745176e-05       1.766569582178e-02 
       2.841785470091e-05       1.902408601793e-02 
       3.068489367268e-05       2.048692970591e-02 
       3.313278604643e-05       2.206225513594e-02 
       3.577595943165e-05       2.375870704909e-02 
       3.862999240274e-05       2.558560727479e-02 
       4.171170631739e-05       2.755297763344e-02 
       4.503926445983e-05       2.967161927315e-02 
       4.863227909323e-05       3.195316450832e-02 
       5.251192705226e-05       3.441013519284e-02 
       5.670107455699e-05       3.705601722526e-02 
       6.122441198393e-05       3.990533413563e-02 
       6.610859938837e-05       4.297372168203e-02 
       7.138242363583e-05       4.627802141688e-02 
       7.707696806873e-05       4.983636194159e-02 
       8.322579570814e-05       5.366826847231e-02 
       8.986514707061e-05       5.779476394568e-02 
       9.703415376577e-05       6.223848243885e-02 
       1.047750691338e-04       6.702379865640e-02 
       1.131335172818e-04       7.217695153381e-02 
       1.221587619877e-04       7.772619073570e-02 
       1.319039970550e-04       8.370193432376e-02 
       1.424266598317e-04       9.013692507548e-02 
       1.537887697396e-04       9.706641242570e-02 
       1.660572938097e-04       1.045283354271e-01 
       1.793045413791e-04       1.125635349068e-01 
       1.936085902737e-04       1.212159614968e-01 
       2.090537469909e-04       1.305329132714e-01 
       2.257310435923e-04       1.405652846215e-01 
       2.437387742372e-04       1.513678302540e-01 
       2.631830745176e-04       1.629994504870e-01 
       2.841785470091e-04       1.755234921224e-01 
       3.068489367268e-04       1.890080670413e-01 
       3.313278604643e-04       2.035264002435e-01 
       3.577595943165e-04       2.191571803681e-01 
       3.862999240274e-04       2.359849437592e-01 
       4.171170631739e-04       2.541004741539e-01 
       4.503926445983e-04       2.736012080277e-01 
       4.863227909323e-04       2.945916790965e-01 
       5.251192705226e-04       3.171839525183e-01 
       5.670107455699e-04       3.414980764002e-01 
       6.122441198393e-04       3.676625413100e-01 
       6.610859938837e-04       3.958147252304e-01 
       7.138242363583e-04       4.261013284913e-01 
       7.707696806873e-04       4.586787792351e-01 
       8.322579570814e-04       4.937136001347e-01 
       8.986514707061e-04       5.313826801402e-01 
       9.703415376577e-04       5.718734972157e-01 
       1.047750691338e-03       6.153841629505e-01 
       1.131335172818e-03       6.621233239465e-01 
       1.221587619877e-03       7.123098220425e-01 
       1.319039970550e-03       7.661720584626e-01 
       1.424266598317e-03       8.239546297729e-01 
       1.537887697396e-03       8.859011173466e-01 
       1.660572938097e-03       9.522588006418e-01 
       1.793045413791e-03       1.023280099819e+00 
       1.936085902737e-03       1.099216304579e+00 
       2.090537469909e-03       1.180312990453e+00 
       2.257310435923e-03       1.266804115856e+00 
       2.437387742372e-03       1.358904853404e+00 
       2.631830745176e-03       1.456802683156e+00 
       2.841785470091e-03       1.560646890522e+00 
       3.068489367268e-03       1.670536062500e+00 
       3.313278604643e-03       1.786503852161e+00 
       3.577595943165e-03       1.908502930789e+00 
       3.862999240274e-03       2.036387730709e+00 
       4.171170631739e-03       2.169896178424e+00 
       4.503926445983e-03       2.308631878994e+00 
       4.863227909323e-03       2.452047290962e+00 
       5.251192705226e-03       2.599430628088e+00 
       5.670107455699e-03       2.749896931836e+00 
       6.122441198393e-03       2.902386513386e+00 
       6.610859938837e-03       3.055668700449e+00 
       7.138242363583e-03       3.208356461540e+00 
       7.707696806873e-03       3.358923893156e+00 
       8.322579570814e-03       3.505725595263e+00 
       8.986514707061e-03       3.647008939311e+00 
       9.703415376577e-03       3.780923304253e+00 
       1.047750691338e-02       3.905490673662e+00 
       1.131335172818e-02       4.018587641333e+00 
       1.221587619877e-02       4.117901586092e+00 
       1.319039970550e-02       4.200915384907e+00 
       1.424266598317e-02       4.264942135828e+00 
       1.537887697392e-02       4.307219037889e+00 
       1.660572938023e-02       4.325062851835e+00 
       1.793045412706e-02       4.316059131863e+00 
       1.936085890181e-02       4.278228565429e+00 
       2.090537352463e-02       4.210198160758e+00 
       2.257309535333e-02       4.111417316522e+00 
       2.437382002918e-02       3.982419867705e+00 
       2.631799944462e-02       3.825163933167e+00 
       2.841644545389e-02       3.643278272485e+00 
       3.067933355377e-02       3.442197333708e+00 
       3.311368470740e-02       3.229239760433e+00 
       3.571840443502e-02       3.013510075001e+00 
       3.847720348444e-02       2.805282236070e+00 
       4.135335538431e-02       2.614420854478e+00 
       4.429361667738e-02       2.448137264174e+00 
       4.724366439141e-02       2.309237727616e+00 
       5.016480835311e-02       2.196110261871e+00 
       5.303989620246e-02       2.104364991857e+00 
       5.586870669566e-02       2.028464656641e+00 
       5.866042680613e-02       1.963151360098e+00 
       6.142798932958e-02       1.903779805031e+00 
       6.418496440164e-02       1.846479488987e+00 
       6.694418833788e-02       1.788195160305e+00 
       6.971731106057e-02       1.726715879465e+00 
       7.251476155766e-02       1.660654867155e+00 
       7.534587671527e-02       1.589469764171e+00 
       7.821907666265e-02       1.513437367334e+00 
       8.114203772912e-02       1.433571234602e+00 
       8.412184535029e-02       1.351491526241e+00 
       8.716512279304e-02       1.269273991385e+00 
       9.027813695930e-02       1.189192841330e+00 
       9.346688431697e-02       1.113501575241e+00 
       9.673716028276e-02       1.044174423644e+00 
       1.000946150830e-01       9.827074683705e-01 
       1.035447986537e-01       9.299383493519e-01 
       1.070931966762e-01       8.859599202457e-01 
       1.107452594425e-01       8.500702334898e-01 
       1.145064249153e-01       8.208037024478e-01 
       1.183821370918e-01       7.960259931907e-01 
       1.223778605862e-01       7.731463609516e-01 
       1.264990921987e-01       7.494526338588e-01 
       1.307513701367e-01       7.225572299233e-01 
       1.351402814784e-01       6.909093119247e-01 
       1.396714684203e-01       6.541804114573e-01 
       1.443506338194e-01       6.134263493329e-01 
       1.491835465229e-01       5.708669500996e-01 
       1.541760469708e-01       5.293631352551e-01 
       1.593340535561e-01       4.917103126585e-01 
       1.646635702297e-01       4.599198354204e-01 
       1.701706958456e-01       4.347282957133e-01 
       1.758616357459e-01       4.154078492222e-01 
       1.817427160982e-01       3.999377677952e-01 
       1.878204015065e-01       3.856825112352e-01 
       1.941013164283e-01       3.698089652841e-01 
       2.005922709503e-01       3.505466587361e-01 
       2.073002914972e-01       3.280428551017e-01 
       2.142326570816e-01       3.042141668148e-01 
       2.213969417533e-01       2.816119714974e-01 
       2.288010639706e-01       2.622573827752e-01 
       2.364533437147e-01       2.469625158525e-01 
       2.443625682930e-01       2.350130045844e-01 
       2.525380679504e-01       2.244180103542e-01 
       2.609898026346e-01       2.130934408370e-01 
       2.697284615565e-01       2.001016004754e-01 
       2.787655775689e-01       1.860198796873e-01 
       2.881136588829e-01       1.725170725888e-01 
       2.977863412677e-01       1.610661085687e-01 
       3.077985646929e-01       1.517612342263e-01 
       3.181667794071e-01       1.435591851622e-01 
       3.289091877812e-01       1.351815320871e-01 
       3.400460299658e-01       1.261644469925e-01 
       3.515999236474e-01       1.172020124195e-01 
       3.635962711085e-01       1.091768525223e-01 
       3.760637506334e-01       1.023097374016e-01 
       3.890349143879e-01       9.593781421183e-02 
       4.025469216825e-01       8.950767635673e-02 
       4.166424456376e-01       8.311163009023e-02 
       4.313708035863e-01       7.721563332610e-02 
       4.467893782977e-01       7.190064048823e-02 
       4.629654199664e-01       6.686900031701e-02 
       4.799783501994e-01       6.191765249010e-02 
       4.979227319373e-01       5.722218719864e-02 
       5.169121270864e-01       5.290296333255e-02 
       5.370841404489e-01       4.876976416634e-02 
       5.586070464571e-01       4.479076132304e-02 
       5.816885094930e-01       4.105190038699e-02 
       6.065870144995e-01       3.749002900408e-02 
       6.336266468475e-01       3.407638847315e-02 
       6.632156059511e-01       3.083465302085e-02 
       6.958678639263e-01       2.772829715247e-02 
       7.322247985589e-01       2.476707555414e-02 
       7.730680195114e-01       2.193956578695e-02 
       8.193049553677e-01       1.925618532000e-02 
       8.718988016039e-01       1.672926021891e-02 
       9.317218031082e-01       1.438427546515e-02 
       9.993660908989e-01       1.225067720968e-02 
       1.075037110174e+00       1.035268949862e-02 
       1.158653485707e+00       8.699733796734e-03 
       1.250099157308e+00       7.284603488806e-03 
       1.349432401273e+00       6.085469949701e-03 
       1.456947457397e+00       5.075715971310e-03 
       1.573135111331e+00       4.228296389809e-03 
       1.698621895592e+00       3.518543110612e-03 
       1.834127512934e+00       2.924995737456e-03 
       1.980444934528e+00       2.429159043516e-03 
       2.138435191726e+00       2.015513180275e-03 
       2.309029199186e+00       1.670778791126e-03 
       2.493232377687e+00       1.383796824805e-03 
       2.692130395285e+00       1.145131029576e-03 
       2.906895534573e+00       9.468586387455e-04 
       3.138793597714e+00       7.822908672712e-04 
       3.389191366484e+00       6.458235262017e-04 
       3.659564657905e+00       5.327712489644e-04 
       3.951507022538e+00       4.391845150348e-04 
       4.266739136701e+00       3.617878373391e-04 
       4.607118943941e+00       2.978262024181e-04 
       4.974652605557e+00       2.450129481343e-04 
       5.371506324689e+00       2.014363392251e-04 
       5.800019113685e+00       1.655061737409e-04 
       6.262716579983e+00       1.359035398239e-04 
       6.762325811764e+00       1.115299670784e-04 
       7.301791451110e+00       9.147572895896e-05 
       7.884293049406e+00       7.498579696686e-05 
       8.513263807261e+00       6.143549955064e-05 
       9.192410809424e+00       5.030783277593e-05 
       9.925736873929e+00       4.117447913113e-05 
       1.071756414427e+01       3.368287276503e-05 
       1.157255956364e+01       2.754081373407e-05 
       1.249576238137e+01       2.250835915195e-05 
       1.349261385375e+01       1.838702116494e-05 
       1.456898931416e+01       1.501360403270e-05 
       1.573123280165e+01       1.225371272772e-05 
       1.698619445202e+01       9.996982520458e-06 
       1.834127087176e+01       8.152398341826e-06 
       1.980444873285e+01       6.645518187817e-06 
       2.138435184532e+01       5.414963567894e-06 
       2.309029198506e+01       4.410518118528e-06 
       2.493232377636e+01       3.590999039450e-06 
       2.692130395282e+01       2.922656366735e-06 
       2.906895534573e+01       2.377772873143e-06 
       3.138793597714e+01       1.933737145740e-06 
       3.389191366484e+01       1.572019105148e-06 
       3.659564657905e+01       1.277472109985e-06 
       3.951507022538e+01       1.037699158531e-06 
       4.266739136701e+01       8.425692549416e-07 
       4.607118943941e+01       6.838454171981e-07 
       4.974652605557e+01       5.547678894940e-07 
       5.371506324689e+01       4.498233434324e-07 
       5.800019113685e+01       3.645346292225e-07 
       6.262716579983e+01       2.952308784612e-07 
       6.762325811764e+01       2.389337526978e-07 
