# Matter power spectrum P(k) at redshift z=0
# for k=1.04775e-05 to 67.6233 h/Mpc,
# number of wavenumbers equal to 246
#    1:k (h/Mpc)              2:P (Mpc/h)^3        
       1.047750691338e-05       5.020964806751e+01 
       1.131335172818e-05       5.407048206554e+01 
       1.221587619877e-05       5.822819063965e+01 
       1.319039970550e-05       6.270562589688e+01 
       1.424266598317e-05       6.752731788102e+01 
       1.537887697396e-05       7.271977200257e+01 
       1.660572938097e-05       7.831147241542e+01 
       1.793045413791e-05       8.433311815128e+01 
       1.936085902737e-05       9.081778242446e+01 
       2.090537469909e-05       9.780108061338e+01 
       2.257310435923e-05       1.053213197032e+02 
       2.437387742372e-05       1.134197377001e+02 
       2.631830745176e-05       1.221408202816e+02 
       2.841785470091e-05       1.315324720916e+02 
       3.068489367268e-05       1.416462093730e+02 
       3.313278604643e-05       1.525374500691e+02 
       3.577595943165e-05       1.642660687078e+02 
       3.862999240274e-05       1.768963504868e+02 
       4.171170631739e-05       1.904975992461e+02 
       4.503926445983e-05       2.051444490305e+02 
       4.863227909323e-05       2.209171463752e+02 
       5.251192705226e-05       2.379022222314e+02 
       5.670107455699e-05       2.561927925548e+02 
       6.122441198393e-05       2.758890441791e+02 
       6.610859938837e-05       2.970989225465e+02 
       7.138242363583e-05       3.199385558200e+02 
       7.707696806873e-05       3.445329780878e+02 
       8.322579570814e-05       3.710167315928e+02 
       8.986514707061e-05       3.995346440954e+02 
       9.703415376577e-05       4.302425403884e+02 
       1.047750691338e-04       4.633080762974e+02 
       1.131335172818e-04       4.989116267507e+02 
       1.221587619877e-04       5.372471946561e+02 
       1.319039970550e-04       5.785234124635e+02 
       1.424266598317e-04       6.229645930980e+02 
       1.537887697396e-04       6.708118484951e+02 
       1.660572938097e-04       7.223242660220e+02 
       1.793045413791e-04       7.777801552690e+02 
       1.936085902737e-04       8.374783607334e+02 
       2.090537469909e-04       9.017396264495e+02 
       2.257310435923e-04       9.709080260152e+02 
       2.437387742372e-04       1.045352448644e+03 
       2.631830745176e-04       1.125468122835e+03 
       2.841785470091e-04       1.211678179511e+03 
       3.068489367268e-04       1.304435249091e+03 
       3.313278604643e-04       1.404223052541e+03 
       3.577595943165e-04       1.511558013390e+03 
       3.862999240274e-04       1.626990836428e+03 
       4.171170631739e-04       1.751108027371e+03 
       4.503926445983e-04       1.884533381345e+03 
       4.863227909323e-04       2.027929376471e+03 
       5.251192705226e-04       2.181998446368e+03 
       5.670107455699e-04       2.347484100857e+03 
       6.122441198393e-04       2.525171869337e+03 
       6.610859938837e-04       2.715889981401e+03 
       7.138242363583e-04       2.920509686093e+03 
       7.707696806873e-04       3.139945097711e+03 
       8.322579570814e-04       3.375152334396e+03 
       8.986514707061e-04       3.627127828231e+03 
       9.703415376577e-04       3.896905450016e+03 
       1.047750691338e-03       4.185552170956e+03 
       1.131335172818e-03       4.494162426791e+03 
       1.221587619877e-03       4.823850702666e+03 
       1.319039970550e-03       5.175742739749e+03 
       1.424266598317e-03       5.551019592523e+03 
       1.537887697396e-03       5.950788335875e+03 
       1.660572938097e-03       6.376123046804e+03 
       1.793045413791e-03       6.828073896119e+03 
       1.936085902737e-03       7.307625375387e+03 
       2.090537469909e-03       7.815671860201e+03 
       2.257310435923e-03       8.352990369398e+03 
       2.437387742372e-03       8.920211057535e+03 
       2.631830745176e-03       9.517783061890e+03 
       2.841785470091e-03       1.014593703671e+04 
       3.068489367268e-03       1.080464505750e+04 
       3.313278604643e-03       1.149357459459e+04 
       3.577595943165e-03       1.221203620827e+04 
       3.862999240274e-03       1.295892538505e+04 
       4.171170631739e-03       1.373266000636e+04 
       4.503926445983e-03       1.453111834595e+04 
       4.863227909323e-03       1.535154984227e+04 
       5.251192705226e-03       1.619063613436e+04 
       5.670107455699e-03       1.704431256595e+04 
       6.122441198393e-03       1.790755938458e+04 
       6.610859938837e-03       1.877460396451e+04 
       7.138242363583e-03       1.963872429095e+04 
       7.707696806873e-03       2.049215713541e+04 
       8.322579570814e-03       2.132607230600e+04 
       8.986514707061e-03       2.213055173057e+04 
       9.703415376577e-03       2.289445470789e+04 
       1.047750691338e-02       2.360548152331e+04 
       1.131335172818e-02       2.425022856809e+04 
       1.221587619877e-02       2.481423922883e+04 
       1.319039970550e-02       2.528218634951e+04 
       1.424266598317e-02       2.563814491117e+04 
       1.537887697392e-02       2.586607997605e+04 
       1.660572938023e-02       2.595026235578e+04 
       1.793045412706e-02       2.587633682612e+04 
       1.936085890181e-02       2.563218692817e+04 
       2.090537352463e-02       2.520934763116e+04 
       2.257309535333e-02       2.460447263805e+04 
       2.437382002918e-02       2.382087733535e+04 
       2.631799944462e-02       2.287047900467e+04 
       2.841644545389e-02       2.177453180822e+04 
       3.067933355377e-02       2.056555053717e+04 
       3.311368470740e-02       1.928731456099e+04 
       3.571840443502e-02       1.799401289077e+04 
       3.847720348444e-02       1.674682097866e+04 
       4.135335538431e-02       1.560457724396e+04 
       4.429361667738e-02       1.461038966785e+04 
       4.724366439141e-02       1.378050857219e+04 
       5.016480835311e-02       1.310508760643e+04 
       5.303989620246e-02       1.255714535589e+04 
       5.586870669566e-02       1.210427700216e+04 
       5.866042680613e-02       1.171465473797e+04 
       6.142798932958e-02       1.136048646945e+04 
       6.418496440164e-02       1.101856522969e+04 
       6.694418833788e-02       1.067071101320e+04 
       6.971731106057e-02       1.030357712063e+04 
       7.251476155766e-02       9.909006723233e+03 
       7.534587671527e-02       9.483781581995e+03 
       7.821907666265e-02       9.029501041592e+03 
       8.114203772912e-02       8.552296907102e+03 
       8.412184535029e-02       8.061968925606e+03 
       8.716512279304e-02       7.570778413898e+03 
       9.027813695930e-02       7.092513215222e+03 
       9.346688431697e-02       6.640498362902e+03 
       9.673716028276e-02       6.226700998365e+03 
       1.000946150830e-01       5.859938184086e+03 
       1.035447986537e-01       5.545242557963e+03 
       1.070931966762e-01       5.283136832016e+03 
       1.107452594425e-01       5.069424641202e+03 
       1.145064249153e-01       4.895253002023e+03 
       1.183821370918e-01       4.747831739375e+03 
       1.223778605862e-01       4.611746348347e+03 
       1.264990921987e-01       4.470625443922e+03 
       1.307513701367e-01       4.310286962728e+03 
       1.351402814784e-01       4.121396480266e+03 
       1.396714684203e-01       3.902067773351e+03 
       1.443506338194e-01       3.658636025388e+03 
       1.491835465229e-01       3.404477002864e+03 
       1.541760469708e-01       3.156679111692e+03 
       1.593340535561e-01       2.931979279195e+03 
       1.646635702297e-01       2.742369286005e+03 
       1.701706958456e-01       2.592262806908e+03 
       1.758616357459e-01       2.477242482524e+03 
       1.817427160982e-01       2.385185311868e+03 
       1.878204015065e-01       2.300363182593e+03 
       1.941013164283e-01       2.205760444272e+03 
       2.005922709503e-01       2.090815484523e+03 
       2.073002914972e-01       1.956463140971e+03 
       2.142326570816e-01       1.814195706102e+03 
       2.213969417533e-01       1.679295557453e+03 
       2.288010639706e-01       1.563844896193e+03 
       2.364533437147e-01       1.472688118737e+03 
       2.443625682930e-01       1.401515790395e+03 
       2.525380679504e-01       1.338414880546e+03 
       2.609898026346e-01       1.270901953825e+03 
       2.697284615565e-01       1.193380006239e+03 
       2.787655775689e-01       1.109339446506e+03 
       2.881136588829e-01       1.028767547465e+03 
       2.977863412677e-01       9.604812213423e+02 
       3.077985646929e-01       9.050237761851e+02 
       3.181667794071e-01       8.561439174620e+02 
       3.289091877812e-01       8.061886756810e+02 
       3.400460299658e-01       7.523931389128e+02 
       3.515999236474e-01       6.989239269401e+02 
       3.635962711085e-01       6.510637910076e+02 
       3.760637506334e-01       6.101208432315e+02 
       3.890349143879e-01       5.721322333869e+02 
       4.025469216825e-01       5.337826583178e+02 
       4.166424456376e-01       4.956326462727e+02 
       4.313708035863e-01       4.604693442417e+02 
       4.467893782977e-01       4.287791994708e+02 
       4.629654199664e-01       3.987740267517e+02 
       4.799783501994e-01       3.692423819547e+02 
       4.979227319373e-01       3.412404155312e+02 
       5.169121270864e-01       3.154854952849e+02 
       5.370841404489e-01       2.908355204895e+02 
       5.586070464571e-01       2.671066149100e+02 
       5.816885094930e-01       2.448100466272e+02 
       6.065870144995e-01       2.235682351275e+02 
       6.336266468475e-01       2.032109001682e+02 
       6.632156059511e-01       1.838790243713e+02 
       6.958678639263e-01       1.653551165299e+02 
       7.322247985589e-01       1.476955807805e+02 
       7.730680195114e-01       1.308338267526e+02 
       8.193049553677e-01       1.148316129695e+02 
       8.718988016039e-01       9.976291752276e+01 
       9.317218031082e-01       8.577812532165e+01 
       9.993660908989e-01       7.305527481560e+01 
       1.075037110174e+00       6.173628522734e+01 
       1.158653485707e+00       5.187937448031e+01 
       1.250099157308e+00       4.344043453400e+01 
       1.349432401273e+00       3.628957989274e+01 
       1.456947457397e+00       3.026805646893e+01 
       1.573135111331e+00       2.521473417473e+01 
       1.698621895592e+00       2.098208284270e+01 
       1.834127512934e+00       1.744257634192e+01 
       1.980444934528e+00       1.448572402007e+01 
       2.138435191726e+00       1.201896519566e+01 
       2.309029199186e+00       9.963206794967e+00 
       2.493232377687e+00       8.251865736651e+00 
       2.692130395285e+00       6.828669461606e+00 
       2.906895534573e+00       5.646287418414e+00 
       3.138793597714e+00       4.664928715665e+00 
       3.389191366484e+00       3.851159480608e+00 
       3.659564657905e+00       3.176963590997e+00 
       3.951507022538e+00       2.618899328624e+00 
       4.266739136701e+00       2.157361383257e+00 
       4.607118943941e+00       1.775941124169e+00 
       4.974652605557e+00       1.461003374289e+00 
       5.371506324689e+00       1.201149963397e+00 
       5.800019113685e+00       9.868902708089e-01 
       6.262716579983e+00       8.103541266327e-01 
       6.762325811764e+00       6.650124045562e-01 
       7.301791451110e+00       5.454298536869e-01 
       7.884293049406e+00       4.471011161316e-01 
       8.513263807261e+00       3.662996311082e-01 
       9.192410809424e+00       2.999422274845e-01 
       9.925736873929e+00       2.454825914094e-01 
       1.071756414427e+01       2.008091857245e-01 
       1.157255956364e+01       1.641852683171e-01 
       1.249576238137e+01       1.341783525744e-01 
       1.349261385375e+01       1.096031259253e-01 
       1.456898931416e+01       8.949015663964e-02 
       1.573123280165e+01       7.303359912412e-02 
       1.698619445202e+01       5.957844175535e-02 
       1.834127087176e+01       4.858108036152e-02 
       1.980444873285e+01       3.959726611742e-02 
       2.138435184532e+01       3.226109971724e-02 
       2.309029198506e+01       2.627353545288e-02 
       2.493232377636e+01       2.138873642792e-02 
       2.692130395282e+01       1.740481576715e-02 
       2.906895534573e+01       1.415745794366e-02 
       3.138793597714e+01       1.151130844867e-02 
       3.389191366484e+01       9.356023993665e-03 
       3.659564657905e+01       7.601190957268e-03 
       3.951507022538e+01       6.173138019359e-03 
       4.266739136701e+01       5.011216872615e-03 
       4.607118943941e+01       4.066221706597e-03 
       4.974652605557e+01       3.298021427777e-03 
       5.371506324689e+01       2.673738368059e-03 
       5.800019113685e+01       2.166595269753e-03 
       6.262716579983e+01       1.754763673341e-03 
       6.762325811764e+01       1.420487179212e-03 
