# Matter power spectrum P(k) at redshift z=99
# for k=1.04775e-05 to 67.6233 h/Mpc,
# number of wavenumbers equal to 246
#    1:k (h/Mpc)              2:P (Mpc/h)^3        
       1.047750691338e-05       7.261927673119e-03 
       1.131335172818e-05       7.820331745737e-03 
       1.221587619877e-05       8.421675986489e-03 
       1.319039970550e-05       9.069258192194e-03 
       1.424266598317e-05       9.766638404421e-03 
       1.537887697396e-05       1.051764069682e-02 
       1.660572938097e-05       1.132639105520e-02 
       1.793045413791e-05       1.219733231416e-02 
       1.936085902737e-05       1.313524224381e-02 
       2.090537469909e-05       1.414527121893e-02 
       2.257310435923e-05       1.523296272192e-02 
       2.437387742372e-05       1.640429444530e-02 
       2.631830745176e-05       1.766569582177e-02 
       2.841785470091e-05       1.902408601793e-02 
       3.068489367268e-05       2.048692970592e-02 
       3.313278604643e-05       2.206225513594e-02 
       3.577595943165e-05       2.375870704909e-02 
       3.862999240274e-05       2.558560727479e-02 
       4.171170631739e-05       2.755297763344e-02 
       4.503926445983e-05       2.967161927315e-02 
       4.863227909323e-05       3.195316450832e-02 
       5.251192705226e-05       3.441013519284e-02 
       5.670107455699e-05       3.705601722528e-02 
       6.122441198393e-05       3.990533413563e-02 
       6.610859938837e-05       4.297372168203e-02 
       7.138242363583e-05       4.627802141688e-02 
       7.707696806873e-05       4.983636194159e-02 
       8.322579570814e-05       5.366826847231e-02 
       8.986514707061e-05       5.779476394568e-02 
       9.703415376577e-05       6.223848243885e-02 
       1.047750691338e-04       6.702379865640e-02 
       1.131335172818e-04       7.217695153381e-02 
       1.221587619877e-04       7.772619073574e-02 
       1.319039970550e-04       8.370193432376e-02 
       1.424266598317e-04       9.013692507547e-02 
       1.537887697396e-04       9.706641242570e-02 
       1.660572938097e-04       1.045283354271e-01 
       1.793045413791e-04       1.125635349068e-01 
       1.936085902737e-04       1.212159614968e-01 
       2.090537469909e-04       1.305329132714e-01 
       2.257310435923e-04       1.405652846215e-01 
       2.437387742372e-04       1.513678302540e-01 
       2.631830745176e-04       1.629994504870e-01 
       2.841785470091e-04       1.755234921224e-01 
       3.068489367268e-04       1.890080670413e-01 
       3.313278604643e-04       2.035264002435e-01 
       3.577595943165e-04       2.191571803681e-01 
       3.862999240274e-04       2.359849437592e-01 
       4.171170631739e-04       2.541004741539e-01 
       4.503926445983e-04       2.736012080278e-01 
       4.863227909323e-04       2.945916790965e-01 
       5.251192705226e-04       3.171839525183e-01 
       5.670107455699e-04       3.414980764002e-01 
       6.122441198393e-04       3.676625413100e-01 
       6.610859938837e-04       3.958147252304e-01 
       7.138242363583e-04       4.261013284918e-01 
       7.707696806873e-04       4.586787792353e-01 
       8.322579570814e-04       4.937136001340e-01 
       8.986514707061e-04       5.313826801402e-01 
       9.703415376577e-04       5.718734972158e-01 
       1.047750691338e-03       6.153841629505e-01 
       1.131335172818e-03       6.621233239466e-01 
       1.221587619877e-03       7.123098220426e-01 
       1.319039970550e-03       7.661720584569e-01 
       1.424266598317e-03       8.239546297727e-01 
       1.537887697396e-03       8.859011173466e-01 
       1.660572938097e-03       9.522588006417e-01 
       1.793045413791e-03       1.023280099819e+00 
       1.936085902737e-03       1.099216304579e+00 
       2.090537469909e-03       1.180312990453e+00 
       2.257310435923e-03       1.266804115851e+00 
       2.437387742372e-03       1.358904853405e+00 
       2.631830745176e-03       1.456802683156e+00 
       2.841785470091e-03       1.560646890521e+00 
       3.068489367268e-03       1.670536062499e+00 
       3.313278604643e-03       1.786503852161e+00 
       3.577595943165e-03       1.908502930787e+00 
       3.862999240274e-03       2.036387730708e+00 
       4.171170631739e-03       2.169896178288e+00 
       4.503926445983e-03       2.308631878993e+00 
       4.863227909323e-03       2.452047290961e+00 
       5.251192705226e-03       2.599430628086e+00 
       5.670107455699e-03       2.749896931808e+00 
       6.122441198393e-03       2.902386513381e+00 
       6.610859938837e-03       3.055668713036e+00 
       7.138242363583e-03       3.208356461538e+00 
       7.707696806873e-03       3.358923893267e+00 
       8.322579570814e-03       3.505725595112e+00 
       8.986514707061e-03       3.647009251963e+00 
       9.703415376577e-03       3.780923304259e+00 
       1.047750691338e-02       3.905492421542e+00 
       1.131335172818e-02       4.018587641303e+00 
       1.221587619877e-02       4.117901587377e+00 
       1.319039970550e-02       4.200915356043e+00 
       1.424266598317e-02       4.264942404568e+00 
       1.537887697392e-02       4.307220218916e+00 
       1.660572938023e-02       4.325063711030e+00 
       1.793045412706e-02       4.316060447446e+00 
       1.936085890181e-02       4.278229626867e+00 
       2.090537352463e-02       4.210203171378e+00 
       2.257309535333e-02       4.111421829715e+00 
       2.437382002918e-02       3.982421125522e+00 
       2.631799944462e-02       3.825165909959e+00 
       2.841644545389e-02       3.643279453372e+00 
       3.067933355377e-02       3.442196718032e+00 
       3.311368470740e-02       3.229229420538e+00 
       3.571840443502e-02       3.013515126073e+00 
       3.847720348444e-02       2.805286325894e+00 
       4.135335538431e-02       2.614428036543e+00 
       4.429361667738e-02       2.448132276164e+00 
       4.724366439141e-02       2.309239783828e+00 
       5.016480835311e-02       2.196118211302e+00 
       5.303989620246e-02       2.104366332383e+00 
       5.586870669566e-02       2.028461430372e+00 
       5.866042680613e-02       1.963153618588e+00 
       6.142798932958e-02       1.903779525820e+00 
       6.418496440164e-02       1.846477651391e+00 
       6.694418833788e-02       1.788195814120e+00 
       6.971731106057e-02       1.726714911859e+00 
       7.251476155766e-02       1.660652403611e+00 
       7.534587671527e-02       1.589468049432e+00 
       7.821907666265e-02       1.513437960383e+00 
       8.114203772912e-02       1.433570832837e+00 
       8.412184535029e-02       1.351492201437e+00 
       8.716512279304e-02       1.269272939069e+00 
       9.027813695930e-02       1.189193915577e+00 
       9.346688431697e-02       1.113501836393e+00 
       9.673716028276e-02       1.044173638588e+00 
       1.000946150830e-01       9.827060953284e-01 
       1.035447986537e-01       9.299384389881e-01 
       1.070931966762e-01       8.859577495931e-01 
       1.107452594425e-01       8.500717162032e-01 
       1.145064249153e-01       8.208030391799e-01 
       1.183821370918e-01       7.960261167839e-01 
       1.223778605862e-01       7.731450110692e-01 
       1.264990921987e-01       7.494512220502e-01 
       1.307513701367e-01       7.225573112941e-01 
       1.351402814784e-01       6.909079353796e-01 
       1.396714684203e-01       6.541800716384e-01 
       1.443506338194e-01       6.134265223814e-01 
       1.491835465229e-01       5.708681046982e-01 
       1.541760469708e-01       5.293618537824e-01 
       1.593340535561e-01       4.917112984365e-01 
       1.646635702297e-01       4.599198028347e-01 
       1.701706958456e-01       4.347294376688e-01 
       1.758616357459e-01       4.154076876568e-01 
       1.817427160982e-01       3.999370609331e-01 
       1.878204015065e-01       3.856830923152e-01 
       1.941013164283e-01       3.698097585264e-01 
       2.005922709503e-01       3.505458212057e-01 
       2.073002914972e-01       3.280432875476e-01 
       2.142326570816e-01       3.042136588320e-01 
       2.213969417533e-01       2.816116769111e-01 
       2.288010639706e-01       2.622573241883e-01 
       2.364533437147e-01       2.469615595774e-01 
       2.443625682930e-01       2.350127203196e-01 
       2.525380679504e-01       2.244180221954e-01 
       2.609898026346e-01       2.130936657986e-01 
       2.697284615565e-01       2.001011530092e-01 
       2.787655775689e-01       1.860197771231e-01 
       2.881136588829e-01       1.725172562318e-01 
       2.977863412677e-01       1.610656624361e-01 
       3.077985646929e-01       1.517607185787e-01 
       3.181667794071e-01       1.435586061833e-01 
       3.289091877812e-01       1.351809094455e-01 
       3.400460299658e-01       1.261634661835e-01 
       3.515999236474e-01       1.172015493998e-01 
       3.635962711085e-01       1.091761464923e-01 
       3.760637506334e-01       1.023086885643e-01 
       3.890349143879e-01       9.593692519658e-02 
       4.025469216825e-01       8.950659356539e-02 
       4.166424456376e-01       8.311106994586e-02 
       4.313708035863e-01       7.721459335737e-02 
       4.467893782977e-01       7.189972662775e-02 
       4.629654199664e-01       6.686823073034e-02 
       4.799783501994e-01       6.191643670057e-02 
       4.979227319373e-01       5.722105004083e-02 
       5.169121270864e-01       5.290174646184e-02 
       5.370841404489e-01       4.876866055784e-02 
       5.586070464571e-01       4.478945634482e-02 
       5.816885094930e-01       4.105042539420e-02 
       6.065870144995e-01       3.748846976361e-02 
       6.336266468475e-01       3.407471393667e-02 
       6.632156059511e-01       3.083284146941e-02 
       6.958678639263e-01       2.772664002655e-02 
       7.322247985589e-01       2.476525860213e-02 
       7.730680195114e-01       2.193748109975e-02 
       8.193049553677e-01       1.925402412174e-02 
       8.718988016039e-01       1.672694616737e-02 
       9.317218031082e-01       1.438170680460e-02 
       9.993660908989e-01       1.224794008655e-02 
       1.075037110174e+00       1.034967531904e-02 
       1.158653485707e+00       8.696491374072e-03 
       1.250099157308e+00       7.281073257432e-03 
       1.349432401273e+00       6.081635744919e-03 
       1.456947457397e+00       5.071606379485e-03 
       1.573135111331e+00       4.223831485157e-03 
       1.698621895592e+00       3.513705224730e-03 
       1.834127512934e+00       2.919775185679e-03 
       1.980444934528e+00       2.423548574405e-03 
       2.138435191726e+00       2.009466398747e-03 
       2.309029199186e+00       1.664274642505e-03 
       2.493232377687e+00       1.376829379774e-03 
       2.692130395285e+00       1.137671490806e-03 
       2.906895534573e+00       9.388832334195e-04 
       3.138793597714e+00       7.737780368730e-04 
       3.389191366484e+00       6.367622251136e-04 
       3.659564657905e+00       5.231411143758e-04 
       3.951507022538e+00       4.289796833387e-04 
       4.266739136701e+00       3.509934323970e-04 
       4.607118943941e+00       2.864436034432e-04 
       4.974652605557e+00       2.330410833960e-04 
       5.371506324689e+00       1.888923466512e-04 
       5.800019113685e+00       1.524111059245e-04 
       6.262716579983e+00       1.222906426220e-04 
       6.762325811764e+00       9.744708878002e-05 
       7.301791451110e+00       7.698660258658e-05 
       7.884293049406e+00       6.017125628617e-05 
       8.513263807261e+00       4.639705772145e-05 
       9.192410809424e+00       3.516744874454e-05 
       9.925736873929e+00       2.607724293909e-05 
       1.071756414427e+01       1.879448727517e-05 
       1.157255956364e+01       1.304698751337e-05 
       1.249576238137e+01       8.608952415248e-06 
       1.349261385375e+01       5.289572621154e-06 
       1.456898931416e+01       2.922027002328e-06 
       1.573123280165e+01       1.355045745325e-06 
       1.698619445202e+01       4.447346285614e-07 
       1.834127087176e+01       4.938305168871e-08 
       1.980444873285e+01       2.705343845301e-08 
       2.138435184532e+01       2.372081641667e-07 
       2.309029198506e+01       5.465257832695e-07 
       2.493232377636e+01       8.385429516018e-07 
       2.692130395282e+01       1.025833326940e-06 
       2.906895534573e+01       1.060975374849e-06 
       3.138793597714e+01       9.427809973064e-07 
       3.389191366484e+01       7.131107308364e-07 
       3.659564657905e+01       4.423053684519e-07 
       3.951507022538e+01       2.050296986871e-07 
       4.266739136701e+01       5.379916053102e-08 
       4.607118943941e+01       8.125187101700e-10 
       4.974652605557e+01       1.777960068761e-08 
       5.371506324689e+01       5.542670537612e-08 
       5.800019113685e+01       7.274673298312e-08 
       6.262716579983e+01       5.800828708130e-08 
       6.762325811764e+01       2.761173597865e-08 
