# Matter power spectrum P(k) at redshift z=0
# for k=1.04775e-05 to 67.6233 h/Mpc,
# number of wavenumbers equal to 246
#    1:k (h/Mpc)              2:P (Mpc/h)^3        
       1.047750691338e-05       5.020964806749e+01 
       1.131335172818e-05       5.407048206554e+01 
       1.221587619877e-05       5.822819063922e+01 
       1.319039970550e-05       6.270562589680e+01 
       1.424266598317e-05       6.752731788102e+01 
       1.537887697396e-05       7.271977200257e+01 
       1.660572938097e-05       7.831147241542e+01 
       1.793045413791e-05       8.433311815128e+01 
       1.936085902737e-05       9.081778242446e+01 
       2.090537469909e-05       9.780108061341e+01 
       2.257310435923e-05       1.053213197032e+02 
       2.437387742372e-05       1.134197377001e+02 
       2.631830745176e-05       1.221408202816e+02 
       2.841785470091e-05       1.315324720916e+02 
       3.068489367268e-05       1.416462093730e+02 
       3.313278604643e-05       1.525374500691e+02 
       3.577595943165e-05       1.642660687078e+02 
       3.862999240274e-05       1.768963504868e+02 
       4.171170631739e-05       1.904975992460e+02 
       4.503926445983e-05       2.051444490305e+02 
       4.863227909323e-05       2.209171463752e+02 
       5.251192705226e-05       2.379022222314e+02 
       5.670107455699e-05       2.561927925534e+02 
       6.122441198393e-05       2.758890441790e+02 
       6.610859938837e-05       2.970989225466e+02 
       7.138242363583e-05       3.199385558200e+02 
       7.707696806873e-05       3.445329780878e+02 
       8.322579570814e-05       3.710167315928e+02 
       8.986514707061e-05       3.995346440954e+02 
       9.703415376577e-05       4.302425403884e+02 
       1.047750691338e-04       4.633080762974e+02 
       1.131335172818e-04       4.989116267507e+02 
       1.221587619877e-04       5.372471946561e+02 
       1.319039970550e-04       5.785234124636e+02 
       1.424266598317e-04       6.229645930980e+02 
       1.537887697396e-04       6.708118484951e+02 
       1.660572938097e-04       7.223242660220e+02 
       1.793045413791e-04       7.777801554511e+02 
       1.936085902737e-04       8.374783607333e+02 
       2.090537469909e-04       9.017396264495e+02 
       2.257310435923e-04       9.709080260152e+02 
       2.437387742372e-04       1.045352448644e+03 
       2.631830745176e-04       1.125468122836e+03 
       2.841785470091e-04       1.211678179511e+03 
       3.068489367268e-04       1.304435249091e+03 
       3.313278604643e-04       1.404223052541e+03 
       3.577595943165e-04       1.511558013390e+03 
       3.862999240274e-04       1.626990836497e+03 
       4.171170631739e-04       1.751108027370e+03 
       4.503926445983e-04       1.884533381345e+03 
       4.863227909323e-04       2.027929376470e+03 
       5.251192705226e-04       2.181998446367e+03 
       5.670107455699e-04       2.347484100857e+03 
       6.122441198393e-04       2.525171869337e+03 
       6.610859938837e-04       2.715889981401e+03 
       7.138242363583e-04       2.920509686093e+03 
       7.707696806873e-04       3.139945097711e+03 
       8.322579570814e-04       3.375152334397e+03 
       8.986514707061e-04       3.627127828231e+03 
       9.703415376577e-04       3.896905450016e+03 
       1.047750691338e-03       4.185552170959e+03 
       1.131335172818e-03       4.494162426791e+03 
       1.221587619877e-03       4.823850702661e+03 
       1.319039970550e-03       5.175742734990e+03 
       1.424266598317e-03       5.551019592538e+03 
       1.537887697396e-03       5.950788335879e+03 
       1.660572938097e-03       6.376123046807e+03 
       1.793045413791e-03       6.828073896137e+03 
       1.936085902737e-03       7.307625375387e+03 
       2.090537469909e-03       7.815671849474e+03 
       2.257310435923e-03       8.352990369396e+03 
       2.437387742372e-03       8.920211057552e+03 
       2.631830745176e-03       9.517783061890e+03 
       2.841785470091e-03       1.014593703671e+04 
       3.068489367268e-03       1.080464505730e+04 
       3.313278604643e-03       1.149357459453e+04 
       3.577595943165e-03       1.221203620826e+04 
       3.862999240274e-03       1.295892538506e+04 
       4.171170631739e-03       1.373266002157e+04 
       4.503926445983e-03       1.453111834595e+04 
       4.863227909323e-03       1.535154984227e+04 
       5.251192705226e-03       1.619063613436e+04 
       5.670107455699e-03       1.704431256597e+04 
       6.122441198393e-03       1.790755938458e+04 
       6.610859938837e-03       1.877460416450e+04 
       7.138242363583e-03       1.963872429096e+04 
       7.707696806873e-03       2.049215713775e+04 
       8.322579570814e-03       2.132607230349e+04 
       8.986514707061e-03       2.213055079232e+04 
       9.703415376577e-03       2.289445470784e+04 
       1.047750691338e-02       2.360548601781e+04 
       1.131335172818e-02       2.425022856631e+04 
       1.221587619877e-02       2.481423846917e+04 
       1.319039970550e-02       2.528218618463e+04 
       1.424266598317e-02       2.563814465665e+04 
       1.537887697392e-02       2.586605840608e+04 
       1.660572938023e-02       2.595027543936e+04 
       1.793045412706e-02       2.587636765144e+04 
       1.936085890181e-02       2.563219535259e+04 
       2.090537352463e-02       2.520934143290e+04 
       2.257309535333e-02       2.460448758057e+04 
       2.437382002918e-02       2.382089067211e+04 
       2.631799944462e-02       2.287044297571e+04 
       2.841644545389e-02       2.177448302000e+04 
       3.067933355377e-02       2.056554884954e+04 
       3.311368470740e-02       1.928720722732e+04 
       3.571840443502e-02       1.799399076621e+04 
       3.847720348444e-02       1.674680346652e+04 
       4.135335538431e-02       1.560460003916e+04 
       4.429361667738e-02       1.461036893569e+04 
       4.724366439141e-02       1.378056454086e+04 
       5.016480835311e-02       1.310507776243e+04 
       5.303989620246e-02       1.255717317786e+04 
       5.586870669566e-02       1.210424746389e+04 
       5.866042680613e-02       1.171464227464e+04 
       6.142798932958e-02       1.136047115762e+04 
       6.418496440164e-02       1.101856565742e+04 
       6.694418833788e-02       1.067068300624e+04 
       6.971731106057e-02       1.030360942420e+04 
       7.251476155766e-02       9.908999487953e+03 
       7.534587671527e-02       9.483797642201e+03 
       7.821907666265e-02       9.029486962350e+03 
       8.114203772912e-02       8.552333741810e+03 
       8.412184535029e-02       8.061966751618e+03 
       8.716512279304e-02       7.570778754962e+03 
       9.027813695930e-02       7.092503265112e+03 
       9.346688431697e-02       6.640493916727e+03 
       9.673716028276e-02       6.226707267563e+03 
       1.000946150830e-01       5.859927592443e+03 
       1.035447986537e-01       5.545245706113e+03 
       1.070931966762e-01       5.283114319454e+03 
       1.107452594425e-01       5.069424340376e+03 
       1.145064249153e-01       4.895240529728e+03 
       1.183821370918e-01       4.747848126594e+03 
       1.223778605862e-01       4.611745491404e+03 
       1.264990921987e-01       4.470633050569e+03 
       1.307513701367e-01       4.310278059480e+03 
       1.351402814784e-01       4.121391818240e+03 
       1.396714684203e-01       3.902067246117e+03 
       1.443506338194e-01       3.658633240347e+03 
       1.491835465229e-01       3.404486316982e+03 
       1.541760469708e-01       3.156675781694e+03 
       1.593340535561e-01       2.931977086977e+03 
       1.646635702297e-01       2.742371330530e+03 
       1.701706958456e-01       2.592261767926e+03 
       1.758616357459e-01       2.477238589159e+03 
       1.817427160982e-01       2.385182272200e+03 
       1.878204015065e-01       2.300364304496e+03 
       1.941013164283e-01       2.205759601446e+03 
       2.005922709503e-01       2.090815030916e+03 
       2.073002914972e-01       1.956468413753e+03 
       2.142326570816e-01       1.814194203667e+03 
       2.213969417533e-01       1.679300573539e+03 
       2.288010639706e-01       1.563846556761e+03 
       2.364533437147e-01       1.472689162334e+03 
       2.443625682930e-01       1.401512206518e+03 
       2.525380679504e-01       1.338411996796e+03 
       2.609898026346e-01       1.270905362624e+03 
       2.697284615565e-01       1.193384614544e+03 
       2.787655775689e-01       1.109338112730e+03 
       2.881136588829e-01       1.028769256702e+03 
       2.977863412677e-01       9.604818744261e+02 
       3.077985646929e-01       9.050221489311e+02 
       3.181667794071e-01       8.561456180114e+02 
       3.289091877812e-01       8.061889413668e+02 
       3.400460299658e-01       7.523905891127e+02 
       3.515999236474e-01       6.989225630894e+02 
       3.635962711085e-01       6.510642661071e+02 
       3.760637506334e-01       6.101240076330e+02 
       3.890349143879e-01       5.721323883350e+02 
       4.025469216825e-01       5.337837081280e+02 
       4.166424456376e-01       4.956328834528e+02 
       4.313708035863e-01       4.604699557774e+02 
       4.467893782977e-01       4.287795591853e+02 
       4.629654199664e-01       3.987735911036e+02 
       4.799783501994e-01       3.692427183060e+02 
       4.979227319373e-01       3.412408571761e+02 
       5.169121270864e-01       3.154847887902e+02 
       5.370841404489e-01       2.908353749696e+02 
       5.586070464571e-01       2.671072771148e+02 
       5.816885094930e-01       2.448100250256e+02 
       6.065870144995e-01       2.235684198732e+02 
       6.336266468475e-01       2.032109172804e+02 
       6.632156059511e-01       1.838794552496e+02 
       6.958678639263e-01       1.653547769395e+02 
       7.322247985589e-01       1.476956373906e+02 
       7.730680195114e-01       1.308335231418e+02 
       8.193049553677e-01       1.148315304043e+02 
       8.718988016039e-01       9.976290682912e+01 
       9.317218031082e-01       8.577836415464e+01 
       9.993660908989e-01       7.305496364275e+01 
       1.075037110174e+00       6.173626946888e+01 
       1.158653485707e+00       5.187940304288e+01 
       1.250099157308e+00       4.344041750154e+01 
       1.349432401273e+00       3.628945929178e+01 
       1.456947457397e+00       3.026815606109e+01 
       1.573135111331e+00       2.521459431872e+01 
       1.698621895592e+00       2.098216025267e+01 
       1.834127512934e+00       1.744248399002e+01 
       1.980444934528e+00       1.448574849728e+01 
       2.138435191726e+00       1.201899277805e+01 
       2.309029199186e+00       9.963205058293e+00 
       2.493232377687e+00       8.251906182867e+00 
       2.692130395285e+00       6.828667517863e+00 
       2.906895534573e+00       5.646279350395e+00 
       3.138793597714e+00       4.664929280283e+00 
       3.389191366484e+00       3.851149457968e+00 
       3.659564657905e+00       3.176969803830e+00 
       3.951507022538e+00       2.618889392153e+00 
       4.266739136701e+00       2.157359351448e+00 
       4.607118943941e+00       1.775948396299e+00 
       4.974652605557e+00       1.460999267109e+00 
       5.371506324689e+00       1.201143792057e+00 
       5.800019113685e+00       9.868853130430e-01 
       6.262716579983e+00       8.103568272881e-01 
       6.762325811764e+00       6.650172089081e-01 
       7.301791451110e+00       5.454303291275e-01 
       7.884293049406e+00       4.471002672527e-01 
       8.513263807261e+00       3.662961394584e-01 
       9.192410809424e+00       2.999423955224e-01 
       9.925736873929e+00       2.454833472504e-01 
       1.071756414427e+01       2.008078582532e-01 
       1.157255956364e+01       1.641867723895e-01 
       1.249576238137e+01       1.341777176822e-01 
       1.349261385375e+01       1.096033435784e-01 
       1.456898931416e+01       8.948908891209e-02 
       1.573123280165e+01       7.303421319863e-02 
       1.698619445202e+01       5.957821049509e-02 
       1.834127087176e+01       4.858048806401e-02 
       1.980444873285e+01       3.959728811971e-02 
       2.138435184532e+01       3.226109545867e-02 
       2.309029198506e+01       2.627371194328e-02 
       2.493232377636e+01       2.138854542047e-02 
       2.692130395282e+01       1.740468372083e-02 
       2.906895534573e+01       1.415744510294e-02 
       3.138793597714e+01       1.151126181169e-02 
       3.389191366484e+01       9.356111199671e-03 
       3.659564657905e+01       7.601211010348e-03 
       3.951507022538e+01       6.173131569071e-03 
       4.266739136701e+01       5.011165063221e-03 
       4.607118943941e+01       4.066215690366e-03 
       4.974652605557e+01       3.298031255873e-03 
       5.371506324689e+01       2.673724246698e-03 
       5.800019113685e+01       2.166602998686e-03 
       6.262716579983e+01       1.754773469589e-03 
       6.762325811764e+01       1.420484325045e-03 
