# Matter power spectrum P(k) at redshift z=99
# for k=1.04775e-05 to 67.6233 h/Mpc,
# number of wavenumbers equal to 246
#    1:k (h/Mpc)              2:P (Mpc/h)^3        
       1.047750691338e-05       7.261927673119e-03 
       1.131335172818e-05       7.820331745737e-03 
       1.221587619877e-05       8.421675986489e-03 
       1.319039970550e-05       9.069258192194e-03 
       1.424266598317e-05       9.766638404421e-03 
       1.537887697396e-05       1.051764069682e-02 
       1.660572938097e-05       1.132639105520e-02 
       1.793045413791e-05       1.219733231416e-02 
       1.936085902737e-05       1.313524224380e-02 
       2.090537469909e-05       1.414527121893e-02 
       2.257310435923e-05       1.523296272192e-02 
       2.437387742372e-05       1.640429444530e-02 
       2.631830745176e-05       1.766569582177e-02 
       2.841785470091e-05       1.902408601793e-02 
       3.068489367268e-05       2.048692970591e-02 
       3.313278604643e-05       2.206225513594e-02 
       3.577595943165e-05       2.375870704909e-02 
       3.862999240274e-05       2.558560727479e-02 
       4.171170631739e-05       2.755297763344e-02 
       4.503926445983e-05       2.967161927315e-02 
       4.863227909323e-05       3.195316450832e-02 
       5.251192705226e-05       3.441013519284e-02 
       5.670107455699e-05       3.705601722527e-02 
       6.122441198393e-05       3.990533413561e-02 
       6.610859938837e-05       4.297372168203e-02 
       7.138242363583e-05       4.627802141688e-02 
       7.707696806873e-05       4.983636194159e-02 
       8.322579570814e-05       5.366826847231e-02 
       8.986514707061e-05       5.779476394569e-02 
       9.703415376577e-05       6.223848243885e-02 
       1.047750691338e-04       6.702379865640e-02 
       1.131335172818e-04       7.217695153381e-02 
       1.221587619877e-04       7.772619073570e-02 
       1.319039970550e-04       8.370193432376e-02 
       1.424266598317e-04       9.013692507548e-02 
       1.537887697396e-04       9.706641242570e-02 
       1.660572938097e-04       1.045283354271e-01 
       1.793045413791e-04       1.125635349068e-01 
       1.936085902737e-04       1.212159614968e-01 
       2.090537469909e-04       1.305329132714e-01 
       2.257310435923e-04       1.405652846215e-01 
       2.437387742372e-04       1.513678302540e-01 
       2.631830745176e-04       1.629994504871e-01 
       2.841785470091e-04       1.755234921224e-01 
       3.068489367268e-04       1.890080670413e-01 
       3.313278604643e-04       2.035264002435e-01 
       3.577595943165e-04       2.191571803681e-01 
       3.862999240274e-04       2.359849437593e-01 
       4.171170631739e-04       2.541004741539e-01 
       4.503926445983e-04       2.736012080278e-01 
       4.863227909323e-04       2.945916790965e-01 
       5.251192705226e-04       3.171839525182e-01 
       5.670107455699e-04       3.414980764002e-01 
       6.122441198393e-04       3.676625413100e-01 
       6.610859938837e-04       3.958147252304e-01 
       7.138242363583e-04       4.261013284914e-01 
       7.707696806873e-04       4.586787792351e-01 
       8.322579570814e-04       4.937136001348e-01 
       8.986514707061e-04       5.313826801402e-01 
       9.703415376577e-04       5.718734972157e-01 
       1.047750691338e-03       6.153841629505e-01 
       1.131335172818e-03       6.621233239465e-01 
       1.221587619877e-03       7.123098220428e-01 
       1.319039970550e-03       7.661720584544e-01 
       1.424266598317e-03       8.239546297731e-01 
       1.537887697396e-03       8.859011173466e-01 
       1.660572938097e-03       9.522588006422e-01 
       1.793045413791e-03       1.023280099819e+00 
       1.936085902737e-03       1.099216304579e+00 
       2.090537469909e-03       1.180312990453e+00 
       2.257310435923e-03       1.266804115851e+00 
       2.437387742372e-03       1.358904853404e+00 
       2.631830745176e-03       1.456802683156e+00 
       2.841785470091e-03       1.560646890522e+00 
       3.068489367268e-03       1.670536062500e+00 
       3.313278604643e-03       1.786503852160e+00 
       3.577595943165e-03       1.908502930789e+00 
       3.862999240274e-03       2.036387730709e+00 
       4.171170631739e-03       2.169896178799e+00 
       4.503926445983e-03       2.308631878994e+00 
       4.863227909323e-03       2.452047290962e+00 
       5.251192705226e-03       2.599430628088e+00 
       5.670107455699e-03       2.749896931754e+00 
       6.122441198393e-03       2.902386513385e+00 
       6.610859938837e-03       3.055668704595e+00 
       7.138242363583e-03       3.208356461546e+00 
       7.707696806873e-03       3.358923892607e+00 
       8.322579570814e-03       3.505725595037e+00 
       8.986514707061e-03       3.647009728677e+00 
       9.703415376577e-03       3.780923304296e+00 
       1.047750691338e-02       3.905491050442e+00 
       1.131335172818e-02       4.018587641359e+00 
       1.221587619877e-02       4.117901583219e+00 
       1.319039970550e-02       4.200915380187e+00 
       1.424266598317e-02       4.264942506094e+00 
       1.537887697392e-02       4.307218463994e+00 
       1.660572938023e-02       4.325062744743e+00 
       1.793045412706e-02       4.316057792446e+00 
       1.936085890181e-02       4.278230212871e+00 
       2.090537352463e-02       4.210201521263e+00 
       2.257309535333e-02       4.111421871872e+00 
       2.437382002918e-02       3.982416080768e+00 
       2.631799944462e-02       3.825164921953e+00 
       2.841644545389e-02       3.643278384323e+00 
       3.067933355377e-02       3.442199361942e+00 
       3.311368470740e-02       3.229235849996e+00 
       3.571840443502e-02       3.013509280607e+00 
       3.847720348444e-02       2.805281514917e+00 
       4.135335538431e-02       2.614412129947e+00 
       4.429361667738e-02       2.448134359814e+00 
       4.724366439141e-02       2.309234812345e+00 
       5.016480835311e-02       2.196110643677e+00 
       5.303989620246e-02       2.104365108601e+00 
       5.586870669566e-02       2.028462635192e+00 
       5.866042680613e-02       1.963149866338e+00 
       6.142798932958e-02       1.903779443957e+00 
       6.418496440164e-02       1.846479641948e+00 
       6.694418833788e-02       1.788199558748e+00 
       6.971731106057e-02       1.726715305091e+00 
       7.251476155766e-02       1.660650932571e+00 
       7.534587671527e-02       1.589470173912e+00 
       7.821907666265e-02       1.513435377806e+00 
       8.114203772912e-02       1.433571593140e+00 
       8.412184535029e-02       1.351494199090e+00 
       8.716512279304e-02       1.269272733183e+00 
       9.027813695930e-02       1.189192048075e+00 
       9.346688431697e-02       1.113500578290e+00 
       9.673716028276e-02       1.044174068318e+00 
       1.000946150830e-01       9.827079582962e-01 
       1.035447986537e-01       9.299373000115e-01 
       1.070931966762e-01       8.859581162118e-01 
       1.107452594425e-01       8.500718234395e-01 
       1.145064249153e-01       8.208042603249e-01 
       1.183821370918e-01       7.960265269662e-01 
       1.223778605862e-01       7.731454258384e-01 
       1.264990921987e-01       7.494506066230e-01 
       1.307513701367e-01       7.225573064544e-01 
       1.351402814784e-01       6.909095140353e-01 
       1.396714684203e-01       6.541818418481e-01 
       1.443506338194e-01       6.134269978272e-01 
       1.491835465229e-01       5.708686340708e-01 
       1.541760469708e-01       5.293628868076e-01 
       1.593340535561e-01       4.917102692968e-01 
       1.646635702297e-01       4.599196840217e-01 
       1.701706958456e-01       4.347288623655e-01 
       1.758616357459e-01       4.154081486758e-01 
       1.817427160982e-01       3.999374731313e-01 
       1.878204015065e-01       3.856828738028e-01 
       1.941013164283e-01       3.698088145827e-01 
       2.005922709503e-01       3.505465782549e-01 
       2.073002914972e-01       3.280434613211e-01 
       2.142326570816e-01       3.042142233416e-01 
       2.213969417533e-01       2.816124888778e-01 
       2.288010639706e-01       2.622571731495e-01 
       2.364533437147e-01       2.469619819433e-01 
       2.443625682930e-01       2.350135333919e-01 
       2.525380679504e-01       2.244176835521e-01 
       2.609898026346e-01       2.130941277516e-01 
       2.697284615565e-01       2.001013029340e-01 
       2.787655775689e-01       1.860194885254e-01 
       2.881136588829e-01       1.725175896464e-01 
       2.977863412677e-01       1.610663839987e-01 
       3.077985646929e-01       1.517608327685e-01 
       3.181667794071e-01       1.435594706635e-01 
       3.289091877812e-01       1.351814938997e-01 
       3.400460299658e-01       1.261645445221e-01 
       3.515999236474e-01       1.172019757275e-01 
       3.635962711085e-01       1.091768626408e-01 
       3.760637506334e-01       1.023096922207e-01 
       3.890349143879e-01       9.593758582064e-02 
       4.025469216825e-01       8.950775755131e-02 
       4.166424456376e-01       8.311168303723e-02 
       4.313708035863e-01       7.721563379199e-02 
       4.467893782977e-01       7.190059628892e-02 
       4.629654199664e-01       6.686890749256e-02 
       4.799783501994e-01       6.191734288338e-02 
       4.979227319373e-01       5.722238188942e-02 
       5.169121270864e-01       5.290286274101e-02 
       5.370841404489e-01       4.876974490762e-02 
       5.586070464571e-01       4.479089496014e-02 
       5.816885094930e-01       4.105174350266e-02 
       6.065870144995e-01       3.749000722410e-02 
       6.336266468475e-01       3.407638014759e-02 
       6.632156059511e-01       3.083457316930e-02 
       6.958678639263e-01       2.772839183974e-02 
       7.322247985589e-01       2.476707536755e-02 
       7.730680195114e-01       2.193962234606e-02 
       8.193049553677e-01       1.925609955693e-02 
       8.718988016039e-01       1.672925610605e-02 
       9.317218031082e-01       1.438420899258e-02 
       9.993660908989e-01       1.225066630859e-02 
       1.075037110174e+00       1.035257158327e-02 
       1.158653485707e+00       8.699713140477e-03 
       1.250099157308e+00       7.284566979960e-03 
       1.349432401273e+00       6.085423500118e-03 
       1.456947457397e+00       5.075686700403e-03 
       1.573135111331e+00       4.228271759655e-03 
       1.698621895592e+00       3.518513870551e-03 
       1.834127512934e+00       2.924946792351e-03 
       1.980444934528e+00       2.429120483394e-03 
       2.138435191726e+00       2.015462980537e-03 
       2.309029199186e+00       1.670729074219e-03 
       2.493232377687e+00       1.383738185512e-03 
       2.692130395285e+00       1.145070889397e-03 
       2.906895534573e+00       9.467966993314e-04 
       3.138793597714e+00       7.822222645778e-04 
       3.389191366484e+00       6.457507440883e-04 
       3.659564657905e+00       5.326903874352e-04 
       3.951507022538e+00       4.391008168054e-04 
       4.266739136701e+00       3.617000977564e-04 
       4.607118943941e+00       2.977303628484e-04 
       4.974652605557e+00       2.449076728362e-04 
       5.371506324689e+00       2.013238746735e-04 
       5.800019113685e+00       1.653870823571e-04 
       6.262716579983e+00       1.357752450572e-04 
       6.762325811764e+00       1.113931043396e-04 
       7.301791451110e+00       9.132907906043e-05 
       7.884293049406e+00       7.482952473403e-05 
       8.513263807261e+00       6.126988048824e-05 
       9.192410809424e+00       5.013090253191e-05 
       9.925736873929e+00       4.098632499676e-05 
       1.071756414427e+01       3.348347643849e-05 
       1.157255956364e+01       2.732964159842e-05 
       1.249576238137e+01       2.228479994583e-05 
       1.349261385375e+01       1.815084463372e-05 
       1.456898931416e+01       1.476451890892e-05 
       1.573123280165e+01       1.199159148082e-05 
       1.698619445202e+01       9.721793283075e-06 
       1.834127087176e+01       7.864138798188e-06 
       1.980444873285e+01       6.344368952534e-06 
       2.138435184532e+01       5.101355114315e-06 
       2.309029198506e+01       4.085171022926e-06 
       2.493232377636e+01       3.254668640020e-06 
       2.692130395282e+01       2.576567737871e-06 
       2.906895534573e+01       2.023503036146e-06 
       3.138793597714e+01       1.573181563772e-06 
       3.389191366484e+01       1.207618561119e-06 
       3.659564657905e+01       9.120553270371e-07 
       3.951507022538e+01       6.746515714585e-07 
       4.266739136701e+01       4.857186250315e-07 
       4.607118943941e+01       3.374448976200e-07 
       4.974652605557e+01       2.233998065179e-07 
       5.371506324689e+01       1.382435548337e-07 
       5.800019113685e+01       7.740868381147e-08 
       6.262716579983e+01       3.686081799385e-08 
       6.762325811764e+01       1.286959975350e-08 
