# Matter power spectrum P(k) at redshift z=99
# for k=1.04775e-05 to 67.6233 h/Mpc,
# number of wavenumbers equal to 246
#    1:k (h/Mpc)              2:P (Mpc/h)^3        
       1.047750691338e-05       7.261927673119e-03 
       1.131335172818e-05       7.820331745737e-03 
       1.221587619877e-05       8.421675986489e-03 
       1.319039970550e-05       9.069258192194e-03 
       1.424266598317e-05       9.766638404421e-03 
       1.537887697396e-05       1.051764069682e-02 
       1.660572938097e-05       1.132639105520e-02 
       1.793045413791e-05       1.219733231416e-02 
       1.936085902737e-05       1.313524224380e-02 
       2.090537469909e-05       1.414527121893e-02 
       2.257310435923e-05       1.523296272192e-02 
       2.437387742372e-05       1.640429444530e-02 
       2.631830745176e-05       1.766569582177e-02 
       2.841785470091e-05       1.902408601793e-02 
       3.068489367268e-05       2.048692970591e-02 
       3.313278604643e-05       2.206225513594e-02 
       3.577595943165e-05       2.375870704909e-02 
       3.862999240274e-05       2.558560727479e-02 
       4.171170631739e-05       2.755297763344e-02 
       4.503926445983e-05       2.967161927315e-02 
       4.863227909323e-05       3.195316450832e-02 
       5.251192705226e-05       3.441013519284e-02 
       5.670107455699e-05       3.705601722525e-02 
       6.122441198393e-05       3.990533413561e-02 
       6.610859938837e-05       4.297372168203e-02 
       7.138242363583e-05       4.627802141688e-02 
       7.707696806873e-05       4.983636194159e-02 
       8.322579570814e-05       5.366826847231e-02 
       8.986514707061e-05       5.779476394569e-02 
       9.703415376577e-05       6.223848243885e-02 
       1.047750691338e-04       6.702379865640e-02 
       1.131335172818e-04       7.217695153381e-02 
       1.221587619877e-04       7.772619073571e-02 
       1.319039970550e-04       8.370193432376e-02 
       1.424266598317e-04       9.013692507547e-02 
       1.537887697396e-04       9.706641242570e-02 
       1.660572938097e-04       1.045283354271e-01 
       1.793045413791e-04       1.125635349068e-01 
       1.936085902737e-04       1.212159614968e-01 
       2.090537469909e-04       1.305329132714e-01 
       2.257310435923e-04       1.405652846215e-01 
       2.437387742372e-04       1.513678302540e-01 
       2.631830745176e-04       1.629994504870e-01 
       2.841785470091e-04       1.755234921224e-01 
       3.068489367268e-04       1.890080670413e-01 
       3.313278604643e-04       2.035264002435e-01 
       3.577595943165e-04       2.191571803681e-01 
       3.862999240274e-04       2.359849437593e-01 
       4.171170631739e-04       2.541004741539e-01 
       4.503926445983e-04       2.736012080277e-01 
       4.863227909323e-04       2.945916790965e-01 
       5.251192705226e-04       3.171839525182e-01 
       5.670107455699e-04       3.414980764002e-01 
       6.122441198393e-04       3.676625413100e-01 
       6.610859938837e-04       3.958147252304e-01 
       7.138242363583e-04       4.261013284918e-01 
       7.707696806873e-04       4.586787792352e-01 
       8.322579570814e-04       4.937136001353e-01 
       8.986514707061e-04       5.313826801402e-01 
       9.703415376577e-04       5.718734972158e-01 
       1.047750691338e-03       6.153841629505e-01 
       1.131335172818e-03       6.621233239466e-01 
       1.221587619877e-03       7.123098220425e-01 
       1.319039970550e-03       7.661720584729e-01 
       1.424266598317e-03       8.239546297728e-01 
       1.537887697396e-03       8.859011173466e-01 
       1.660572938097e-03       9.522588006421e-01 
       1.793045413791e-03       1.023280099819e+00 
       1.936085902737e-03       1.099216304579e+00 
       2.090537469909e-03       1.180312990453e+00 
       2.257310435923e-03       1.266804115852e+00 
       2.437387742372e-03       1.358904853406e+00 
       2.631830745176e-03       1.456802683156e+00 
       2.841785470091e-03       1.560646890522e+00 
       3.068489367268e-03       1.670536062499e+00 
       3.313278604643e-03       1.786503852161e+00 
       3.577595943165e-03       1.908502930789e+00 
       3.862999240274e-03       2.036387730709e+00 
       4.171170631739e-03       2.169896176982e+00 
       4.503926445983e-03       2.308631878994e+00 
       4.863227909323e-03       2.452047290962e+00 
       5.251192705226e-03       2.599430628087e+00 
       5.670107455699e-03       2.749896931793e+00 
       6.122441198393e-03       2.902386513385e+00 
       6.610859938837e-03       3.055668700336e+00 
       7.138242363583e-03       3.208356461543e+00 
       7.707696806873e-03       3.358923892938e+00 
       8.322579570814e-03       3.505725148613e+00 
       8.986514707061e-03       3.647009250102e+00 
       9.703415376577e-03       3.780923304310e+00 
       1.047750691338e-02       3.905491180043e+00 
       1.131335172818e-02       4.018588039818e+00 
       1.221587619877e-02       4.117901589082e+00 
       1.319039970550e-02       4.200915387084e+00 
       1.424266598317e-02       4.264942410942e+00 
       1.537887697392e-02       4.307217920752e+00 
       1.660572938023e-02       4.325060088613e+00 
       1.793045412706e-02       4.316056297052e+00 
       1.936085890181e-02       4.278227204085e+00 
       2.090537352463e-02       4.210198037837e+00 
       2.257309535333e-02       4.111418102671e+00 
       2.437382002918e-02       3.982423049312e+00 
       2.631799944462e-02       3.825166706431e+00 
       2.841644545389e-02       3.643288830431e+00 
       3.067933355377e-02       3.442195067975e+00 
       3.311368470740e-02       3.229234280140e+00 
       3.571840443502e-02       3.013515955857e+00 
       3.847720348444e-02       2.805282288515e+00 
       4.135335538431e-02       2.614411531302e+00 
       4.429361667738e-02       2.448131097603e+00 
       4.724366439141e-02       2.309240356281e+00 
       5.016480835311e-02       2.196114058807e+00 
       5.303989620246e-02       2.104366260684e+00 
       5.586870669566e-02       2.028460097402e+00 
       5.866042680613e-02       1.963153747258e+00 
       6.142798932958e-02       1.903779161279e+00 
       6.418496440164e-02       1.846478661968e+00 
       6.694418833788e-02       1.788201805797e+00 
       6.971731106057e-02       1.726715008754e+00 
       7.251476155766e-02       1.660650827881e+00 
       7.534587671527e-02       1.589473302051e+00 
       7.821907666265e-02       1.513440349358e+00 
       8.114203772912e-02       1.433568762830e+00 
       8.412184535029e-02       1.351492848436e+00 
       8.716512279304e-02       1.269275624696e+00 
       9.027813695930e-02       1.189193963990e+00 
       9.346688431697e-02       1.113503866041e+00 
       9.673716028276e-02       1.044174346218e+00 
       1.000946150830e-01       9.827087330861e-01 
       1.035447986537e-01       9.299371771811e-01 
       1.070931966762e-01       8.859583309295e-01 
       1.107452594425e-01       8.500705917455e-01 
       1.145064249153e-01       8.208040124814e-01 
       1.183821370918e-01       7.960261190047e-01 
       1.223778605862e-01       7.731476218742e-01 
       1.264990921987e-01       7.494506524160e-01 
       1.307513701367e-01       7.225574707771e-01 
       1.351402814784e-01       6.909104218552e-01 
       1.396714684203e-01       6.541813901945e-01 
       1.443506338194e-01       6.134276195766e-01 
       1.491835465229e-01       5.708683390425e-01 
       1.541760469708e-01       5.293635832094e-01 
       1.593340535561e-01       4.917111099721e-01 
       1.646635702297e-01       4.599206383127e-01 
       1.701706958456e-01       4.347289001789e-01 
       1.758616357459e-01       4.154083453058e-01 
       1.817427160982e-01       3.999369398412e-01 
       1.878204015065e-01       3.856817111981e-01 
       1.941013164283e-01       3.698094014366e-01 
       2.005922709503e-01       3.505455652335e-01 
       2.073002914972e-01       3.280429201240e-01 
       2.142326570816e-01       3.042136387054e-01 
       2.213969417533e-01       2.816128692090e-01 
       2.288010639706e-01       2.622567515453e-01 
       2.364533437147e-01       2.469620533351e-01 
       2.443625682930e-01       2.350125597514e-01 
       2.525380679504e-01       2.244182189102e-01 
       2.609898026346e-01       2.130936736904e-01 
       2.697284615565e-01       2.001017787950e-01 
       2.787655775689e-01       1.860200218983e-01 
       2.881136588829e-01       1.725176229743e-01 
       2.977863412677e-01       1.610662770240e-01 
       3.077985646929e-01       1.517609999755e-01 
       3.181667794071e-01       1.435593315205e-01 
       3.289091877812e-01       1.351816551486e-01 
       3.400460299658e-01       1.261643117478e-01 
       3.515999236474e-01       1.172017880298e-01 
       3.635962711085e-01       1.091770899403e-01 
       3.760637506334e-01       1.023093281061e-01 
       3.890349143879e-01       9.593779054264e-02 
       4.025469216825e-01       8.950748481615e-02 
       4.166424456376e-01       8.311174086356e-02 
       4.313708035863e-01       7.721542996914e-02 
       4.467893782977e-01       7.190058552943e-02 
       4.629654199664e-01       6.686896464301e-02 
       4.799783501994e-01       6.191731020202e-02 
       4.979227319373e-01       5.722220771995e-02 
       5.169121270864e-01       5.290274100818e-02 
       5.370841404489e-01       4.876958319975e-02 
       5.586070464571e-01       4.479065976060e-02 
       5.816885094930e-01       4.105173612267e-02 
       6.065870144995e-01       3.748970233835e-02 
       6.336266468475e-01       3.407614739498e-02 
       6.632156059511e-01       3.083439996987e-02 
       6.958678639263e-01       2.772814420012e-02 
       7.322247985589e-01       2.476678183837e-02 
       7.730680195114e-01       2.193937927564e-02 
       8.193049553677e-01       1.925583760647e-02 
       8.718988016039e-01       1.672898504626e-02 
       9.317218031082e-01       1.438389307959e-02 
       9.993660908989e-01       1.225026315979e-02 
       1.075037110174e+00       1.035219758804e-02 
       1.158653485707e+00       8.699287096220e-03 
       1.250099157308e+00       7.284113608049e-03 
       1.349432401273e+00       6.084952217999e-03 
       1.456947457397e+00       5.075148268189e-03 
       1.573135111331e+00       4.227695041553e-03 
       1.698621895592e+00       3.517869179510e-03 
       1.834127512934e+00       2.924257030546e-03 
       1.980444934528e+00       2.428384126292e-03 
       2.138435191726e+00       2.014659164008e-03 
       2.309029199186e+00       1.669856547686e-03 
       2.493232377687e+00       1.382800573194e-03 
       2.692130395285e+00       1.144056835250e-03 
       2.906895534573e+00       9.457103245840e-04 
       3.138793597714e+00       7.810583714618e-04 
       3.389191366484e+00       6.445043049180e-04 
       3.659564657905e+00       5.313505906871e-04 
       3.951507022538e+00       4.376717246503e-04 
       4.266739136701e+00       3.601719017723e-04 
       4.607118943941e+00       2.961029359575e-04 
       4.974652605557e+00       2.431771285008e-04 
       5.371506324689e+00       1.994830302502e-04 
       5.800019113685e+00       1.634335197720e-04 
       6.262716579983e+00       1.337076402404e-04 
       6.762325811764e+00       1.092087747659e-04 
       7.301791451110e+00       8.902701482747e-05 
       7.884293049406e+00       7.241032861033e-05 
       8.513263807261e+00       5.873337610061e-05 
       9.192410809424e+00       4.748153251227e-05 
       9.925736873929e+00       3.822923529773e-05 
       1.071756414427e+01       3.062516720878e-05 
       1.157255956364e+01       2.438091308075e-05 
       1.249576238137e+01       1.925919546427e-05 
       1.349261385375e+01       1.506574507371e-05 
       1.456898931416e+01       1.164138097737e-05 
       1.573123280165e+01       8.856301701682e-06 
       1.698619445202e+01       6.604767737199e-06 
       1.834127087176e+01       4.800571567532e-06 
       1.980444873285e+01       3.373521337535e-06 
       2.138435184532e+01       2.265798586695e-06 
       2.309029198506e+01       1.429348424946e-06 
       2.493232377636e+01       8.229133416569e-07 
       2.692130395282e+01       4.100629174414e-07 
       2.906895534573e+01       1.569802964087e-07 
       3.138793597714e+01       3.111823473113e-08 
       3.389191366484e+01       2.816424460334e-10 
       3.659564657905e+01       3.262192413307e-08 
       3.951507022538e+01       9.749934082395e-08 
       4.266739136701e+01       1.672671196521e-07 
       4.607118943941e+01       2.197811988776e-07 
       4.974652605557e+01       2.409662223547e-07 
       5.371506324689e+01       2.267085564989e-07 
       5.800019113685e+01       1.829593288083e-07 
       6.262716579983e+01       1.235393527651e-07 
       6.762325811764e+01       6.543830687923e-08 
