# Matter power spectrum P(k) at redshift z=0
# for k=1.04775e-05 to 67.6233 h/Mpc,
# number of wavenumbers equal to 246
#    1:k (h/Mpc)              2:P (Mpc/h)^3        
       1.047750691338e-05       5.020964806749e+01 
       1.131335172818e-05       5.407048206554e+01 
       1.221587619877e-05       5.822819063675e+01 
       1.319039970550e-05       6.270562589677e+01 
       1.424266598317e-05       6.752731788102e+01 
       1.537887697396e-05       7.271977200258e+01 
       1.660572938097e-05       7.831147241541e+01 
       1.793045413791e-05       8.433311815128e+01 
       1.936085902737e-05       9.081778242446e+01 
       2.090537469909e-05       9.780108061339e+01 
       2.257310435923e-05       1.053213197032e+02 
       2.437387742372e-05       1.134197377001e+02 
       2.631830745176e-05       1.221408202815e+02 
       2.841785470091e-05       1.315324720916e+02 
       3.068489367268e-05       1.416462093729e+02 
       3.313278604643e-05       1.525374500691e+02 
       3.577595943165e-05       1.642660687078e+02 
       3.862999240274e-05       1.768963504868e+02 
       4.171170631739e-05       1.904975992460e+02 
       4.503926445983e-05       2.051444490305e+02 
       4.863227909323e-05       2.209171463752e+02 
       5.251192705226e-05       2.379022222314e+02 
       5.670107455699e-05       2.561927925632e+02 
       6.122441198393e-05       2.758890441790e+02 
       6.610859938837e-05       2.970989225466e+02 
       7.138242363583e-05       3.199385558200e+02 
       7.707696806873e-05       3.445329780878e+02 
       8.322579570814e-05       3.710167315928e+02 
       8.986514707061e-05       3.995346440954e+02 
       9.703415376577e-05       4.302425403884e+02 
       1.047750691338e-04       4.633080762974e+02 
       1.131335172818e-04       4.989116267507e+02 
       1.221587619877e-04       5.372471946561e+02 
       1.319039970550e-04       5.785234124630e+02 
       1.424266598317e-04       6.229645930980e+02 
       1.537887697396e-04       6.708118484951e+02 
       1.660572938097e-04       7.223242660220e+02 
       1.793045413791e-04       7.777801553656e+02 
       1.936085902737e-04       8.374783607333e+02 
       2.090537469909e-04       9.017396264495e+02 
       2.257310435923e-04       9.709080260152e+02 
       2.437387742372e-04       1.045352448644e+03 
       2.631830745176e-04       1.125468122836e+03 
       2.841785470091e-04       1.211678179511e+03 
       3.068489367268e-04       1.304435249091e+03 
       3.313278604643e-04       1.404223052541e+03 
       3.577595943165e-04       1.511558013390e+03 
       3.862999240274e-04       1.626990836462e+03 
       4.171170631739e-04       1.751108027371e+03 
       4.503926445983e-04       1.884533381345e+03 
       4.863227909323e-04       2.027929376470e+03 
       5.251192705226e-04       2.181998446367e+03 
       5.670107455699e-04       2.347484100857e+03 
       6.122441198393e-04       2.525171869334e+03 
       6.610859938837e-04       2.715889981402e+03 
       7.138242363583e-04       2.920509686088e+03 
       7.707696806873e-04       3.139945097711e+03 
       8.322579570814e-04       3.375152334397e+03 
       8.986514707061e-04       3.627127828231e+03 
       9.703415376577e-04       3.896905450016e+03 
       1.047750691338e-03       4.185552170958e+03 
       1.131335172818e-03       4.494162426791e+03 
       1.221587619877e-03       4.823850702664e+03 
       1.319039970550e-03       5.175742739896e+03 
       1.424266598317e-03       5.551019592513e+03 
       1.537887697396e-03       5.950788335883e+03 
       1.660572938097e-03       6.376123046810e+03 
       1.793045413791e-03       6.828073896128e+03 
       1.936085902737e-03       7.307625375387e+03 
       2.090537469909e-03       7.815671860187e+03 
       2.257310435923e-03       8.352990369401e+03 
       2.437387742372e-03       8.920211057536e+03 
       2.631830745176e-03       9.517783061890e+03 
       2.841785470091e-03       1.014593703671e+04 
       3.068489367268e-03       1.080464505740e+04 
       3.313278604643e-03       1.149357459544e+04 
       3.577595943165e-03       1.221203620826e+04 
       3.862999240274e-03       1.295892538505e+04 
       4.171170631739e-03       1.373266000607e+04 
       4.503926445983e-03       1.453111834595e+04 
       4.863227909323e-03       1.535154984226e+04 
       5.251192705226e-03       1.619063613428e+04 
       5.670107455699e-03       1.704431256619e+04 
       6.122441198393e-03       1.790755938462e+04 
       6.610859938837e-03       1.877460418924e+04 
       7.138242363583e-03       1.963872429111e+04 
       7.707696806873e-03       2.049215713178e+04 
       8.322579570814e-03       2.132607230680e+04 
       8.986514707061e-03       2.213055033098e+04 
       9.703415376577e-03       2.289445470850e+04 
       1.047750691338e-02       2.360547852374e+04 
       1.131335172818e-02       2.425022728197e+04 
       1.221587619877e-02       2.481423923559e+04 
       1.319039970550e-02       2.528218782217e+04 
       1.424266598317e-02       2.563816847603e+04 
       1.537887697392e-02       2.586607730660e+04 
       1.660572938023e-02       2.595026247879e+04 
       1.793045412706e-02       2.587631960958e+04 
       1.936085890181e-02       2.563218714367e+04 
       2.090537352463e-02       2.520935471378e+04 
       2.257309535333e-02       2.460446217404e+04 
       2.437382002918e-02       2.382080816281e+04 
       2.631799944462e-02       2.287044971671e+04 
       2.841644545389e-02       2.177453405457e+04 
       3.067933355377e-02       2.056552890544e+04 
       3.311368470740e-02       1.928732066766e+04 
       3.571840443502e-02       1.799396656004e+04 
       3.847720348444e-02       1.674685434763e+04 
       4.135335538431e-02       1.560448772865e+04 
       4.429361667738e-02       1.461036986778e+04 
       4.724366439141e-02       1.378053081056e+04 
       5.016480835311e-02       1.310508404680e+04 
       5.303989620246e-02       1.255716662125e+04 
       5.586870669566e-02       1.210423366349e+04 
       5.866042680613e-02       1.171465328856e+04 
       6.142798932958e-02       1.136043822210e+04 
       6.418496440164e-02       1.101858477091e+04 
       6.694418833788e-02       1.067066816763e+04 
       6.971731106057e-02       1.030355157077e+04 
       7.251476155766e-02       9.909013361447e+03 
       7.534587671527e-02       9.483779202472e+03 
       7.821907666265e-02       9.029509422313e+03 
       8.114203772912e-02       8.552329154802e+03 
       8.412184535029e-02       8.061932742058e+03 
       8.716512279304e-02       7.570783217337e+03 
       9.027813695930e-02       7.092512803226e+03 
       9.346688431697e-02       6.640524903741e+03 
       9.673716028276e-02       6.226700513443e+03 
       1.000946150830e-01       5.859944451732e+03 
       1.035447986537e-01       5.545242014304e+03 
       1.070931966762e-01       5.283134379181e+03 
       1.107452594425e-01       5.069416694546e+03 
       1.145064249153e-01       4.895242896434e+03 
       1.183821370918e-01       4.747882855282e+03 
       1.223778605862e-01       4.611731187502e+03 
       1.264990921987e-01       4.470615864053e+03 
       1.307513701367e-01       4.310278414386e+03 
       1.351402814784e-01       4.121375694255e+03 
       1.396714684203e-01       3.902058949586e+03 
       1.443506338194e-01       3.658634402323e+03 
       1.491835465229e-01       3.404479027468e+03 
       1.541760469708e-01       3.156672198493e+03 
       1.593340535561e-01       2.931982418344e+03 
       1.646635702297e-01       2.742376717900e+03 
       1.701706958456e-01       2.592257129760e+03 
       1.758616357459e-01       2.477243500824e+03 
       1.817427160982e-01       2.385188696166e+03 
       1.878204015065e-01       2.300362053884e+03 
       1.941013164283e-01       2.205762250766e+03 
       2.005922709503e-01       2.090814334435e+03 
       2.073002914972e-01       1.956468850573e+03 
       2.142326570816e-01       1.814191861298e+03 
       2.213969417533e-01       1.679294718852e+03 
       2.288010639706e-01       1.563844436526e+03 
       2.364533437147e-01       1.472688830709e+03 
       2.443625682930e-01       1.401511440776e+03 
       2.525380679504e-01       1.338414927936e+03 
       2.609898026346e-01       1.270901395228e+03 
       2.697284615565e-01       1.193383095630e+03 
       2.787655775689e-01       1.109342166557e+03 
       2.881136588829e-01       1.028772236666e+03 
       2.977863412677e-01       9.604813526185e+02 
       3.077985646929e-01       9.050214055441e+02 
       3.181667794071e-01       8.561436277343e+02 
       3.289091877812e-01       8.061878442643e+02 
       3.400460299658e-01       7.523928280137e+02 
       3.515999236474e-01       6.989239948487e+02 
       3.635962711085e-01       6.510641704716e+02 
       3.760637506334e-01       6.101223870398e+02 
       3.890349143879e-01       5.721319610118e+02 
       4.025469216825e-01       5.337846717592e+02 
       4.166424456376e-01       4.956312466607e+02 
       4.313708035863e-01       4.604690367070e+02 
       4.467893782977e-01       4.287790550037e+02 
       4.629654199664e-01       3.987728999091e+02 
       4.799783501994e-01       3.692420673146e+02 
       4.979227319373e-01       3.412402153858e+02 
       5.169121270864e-01       3.154821869663e+02 
       5.370841404489e-01       2.908353480234e+02 
       5.586070464571e-01       2.671059636736e+02 
       5.816885094930e-01       2.448100884566e+02 
       6.065870144995e-01       2.235672622994e+02 
       6.336266468475e-01       2.032111342005e+02 
       6.632156059511e-01       1.838797090488e+02 
       6.958678639263e-01       1.653548449406e+02 
       7.322247985589e-01       1.476956791139e+02 
       7.730680195114e-01       1.308338220982e+02 
       8.193049553677e-01       1.148306505857e+02 
       8.718988016039e-01       9.976293934861e+01 
       9.317218031082e-01       8.577783428907e+01 
       9.993660908989e-01       7.305509691126e+01 
       1.075037110174e+00       6.173571067892e+01 
       1.158653485707e+00       5.187903233658e+01 
       1.250099157308e+00       4.344010340781e+01 
       1.349432401273e+00       3.628932114508e+01 
       1.456947457397e+00       3.026801177813e+01 
       1.573135111331e+00       2.521449389503e+01 
       1.698621895592e+00       2.098203476240e+01 
       1.834127512934e+00       1.744235849219e+01 
       1.980444934528e+00       1.448558221490e+01 
       2.138435191726e+00       1.201890751037e+01 
       2.309029199186e+00       9.963143718988e+00 
       2.493232377687e+00       8.251810114455e+00 
       2.692130395285e+00       6.828581709849e+00 
       2.906895534573e+00       5.646286060730e+00 
       3.138793597714e+00       4.664899022932e+00 
       3.389191366484e+00       3.851107429385e+00 
       3.659564657905e+00       3.176926792133e+00 
       3.951507022538e+00       2.618872539470e+00 
       4.266739136701e+00       2.157326837965e+00 
       4.607118943941e+00       1.775916869997e+00 
       4.974652605557e+00       1.460966127256e+00 
       5.371506324689e+00       1.201109580290e+00 
       5.800019113685e+00       9.868559468930e-01 
       6.262716579983e+00       8.103185708611e-01 
       6.762325811764e+00       6.649799721166e-01 
       7.301791451110e+00       5.453919744935e-01 
       7.884293049406e+00       4.470591381657e-01 
       8.513263807261e+00       3.662553561416e-01 
       9.192410809424e+00       2.998979406943e-01 
       9.925736873929e+00       2.454342773054e-01 
       1.071756414427e+01       2.007563347964e-01 
       1.157255956364e+01       1.641291099357e-01 
       1.249576238137e+01       1.341199765200e-01 
       1.349261385375e+01       1.095405036478e-01 
       1.456898931416e+01       8.942173605663e-02 
       1.573123280165e+01       7.296247982991e-02 
       1.698619445202e+01       5.950259163251e-02 
       1.834127087176e+01       4.850039059887e-02 
       1.980444873285e+01       3.951155077884e-02 
       2.138435184532e+01       3.217034935413e-02 
       2.309029198506e+01       2.617715884256e-02 
       2.493232377636e+01       2.128682240190e-02 
       2.692130395282e+01       1.729732390951e-02 
       2.906895534573e+01       1.404393820561e-02 
       3.138793597714e+01       1.139186754574e-02 
       3.389191366484e+01       9.230318575680e-03 
       3.659564657905e+01       7.469377292449e-03 
       3.951507022538e+01       6.034831760866e-03 
       4.266739136701e+01       4.866673522274e-03 
       4.607118943941e+01       3.915574536218e-03 
       4.974652605557e+01       3.141373384137e-03 
       5.371506324689e+01       2.511381387263e-03 
       5.800019113685e+01       1.998965084037e-03 
       6.262716579983e+01       1.582389497497e-03 
       6.762325811764e+01       1.244061369361e-03 
