# Matter power spectrum P(k) at redshift z=99
# for k=1.04775e-05 to 134.926 h/Mpc,
# number of wavenumbers equal to 255
#    1:k (h/Mpc)              2:P (Mpc/h)^3        
       1.047750691338e-05       7.261927095250e-03 
       1.131335172818e-05       7.820332150717e-03 
       1.221587619877e-05       8.421675382289e-03 
       1.319039970550e-05       9.069257737959e-03 
       1.424266598317e-05       9.766636451078e-03 
       1.537887697396e-05       1.051763973636e-02 
       1.660572938097e-05       1.132639250746e-02 
       1.793045413791e-05       1.219733201503e-02 
       1.936085902737e-05       1.313524187197e-02 
       2.090537469909e-05       1.414527084971e-02 
       2.257310435923e-05       1.523296544486e-02 
       2.437387742372e-05       1.640429654634e-02 
       2.631830745176e-05       1.766569603280e-02 
       2.841785470091e-05       1.902408711156e-02 
       3.068489367268e-05       2.048692967437e-02 
       3.313278604643e-05       2.206225467541e-02 
       3.577595943165e-05       2.375870883845e-02 
       3.862999240274e-05       2.558560669814e-02 
       4.171170631739e-05       2.755297672499e-02 
       4.503926445983e-05       2.967161933404e-02 
       4.863227909323e-05       3.195316455647e-02 
       5.251192705226e-05       3.441013466125e-02 
       5.670107455699e-05       3.705601741692e-02 
       6.122441198393e-05       3.990533412824e-02 
       6.610859938837e-05       4.297372242519e-02 
       7.138242363583e-05       4.627802054837e-02 
       7.707696806873e-05       4.983636159872e-02 
       8.322579570814e-05       5.366826786917e-02 
       8.986514707061e-05       5.779476319716e-02 
       9.703415376577e-05       6.223848221818e-02 
       1.047750691338e-04       6.702379825002e-02 
       1.131335172818e-04       7.217695031059e-02 
       1.221587619877e-04       7.772619030340e-02 
       1.319039970550e-04       8.370193380018e-02 
       1.424266598317e-04       9.013692506643e-02 
       1.537887697396e-04       9.706641130374e-02 
       1.660572938097e-04       1.045283343108e-01 
       1.793045413791e-04       1.125635329183e-01 
       1.936085902737e-04       1.212159592307e-01 
       2.090537469909e-04       1.305329107433e-01 
       2.257310435923e-04       1.405652819358e-01 
       2.437387742372e-04       1.513678275074e-01 
       2.631830745176e-04       1.629994475131e-01 
       2.841785470091e-04       1.755234890476e-01 
       3.068489367268e-04       1.890080645298e-01 
       3.313278604643e-04       2.035263977430e-01 
       3.577595943165e-04       2.191571778044e-01 
       3.862999240274e-04       2.359849423259e-01 
       4.171170631739e-04       2.541004713002e-01 
       4.503926445983e-04       2.736012061159e-01 
       4.863227909323e-04       2.945916774643e-01 
       5.251192705226e-04       3.171839507864e-01 
       5.670107455699e-04       3.414980769109e-01 
       6.122441198393e-04       3.676625416302e-01 
       6.610859938837e-04       3.958147272866e-01 
       7.138242363583e-04       4.261013332067e-01 
       7.707696806873e-04       4.586787880852e-01 
       8.322579570814e-04       4.937136112824e-01 
       8.986514707061e-04       5.313826962080e-01 
       9.703415376577e-04       5.718735176808e-01 
       1.047750691338e-03       6.153841926254e-01 
       1.131335172818e-03       6.621233623127e-01 
       1.221587619877e-03       7.123098743658e-01 
       1.319039970550e-03       7.661721263791e-01 
       1.424266598317e-03       8.239547181305e-01 
       1.537887697396e-03       8.859012282817e-01 
       1.660572938097e-03       9.522589495748e-01 
       1.793045413791e-03       1.023280284736e+00 
       1.936085902737e-03       1.099216542126e+00 
       2.090537469909e-03       1.180313285058e+00 
       2.257310435923e-03       1.266804486831e+00 
       2.437387742372e-03       1.358905328487e+00 
       2.631830745176e-03       1.456803285975e+00 
       2.841785470091e-03       1.560647663063e+00 
       3.068489367268e-03       1.670537010604e+00 
       3.313278604643e-03       1.786505039666e+00 
       3.577595943165e-03       1.908504410146e+00 
       3.862999240274e-03       2.036389468784e+00 
       4.171170631739e-03       2.169898252825e+00 
       4.503926445983e-03       2.308634491987e+00 
       4.863227909323e-03       2.452050674785e+00 
       5.251192705226e-03       2.599434681130e+00 
       5.670107455699e-03       2.749901126447e+00 
       6.122441198393e-03       2.902390058293e+00 
       6.610859938837e-03       3.055671269773e+00 
       7.138242363583e-03       3.208360122772e+00 
       7.707696806873e-03       3.358926651270e+00 
       8.322579570814e-03       3.505726889770e+00 
       8.986514707061e-03       3.647012437772e+00 
       9.703415376577e-03       3.780926179316e+00 
       1.047750691338e-02       3.905492880757e+00 
       1.131335172818e-02       4.018589826265e+00 
       1.221587619877e-02       4.117902889241e+00 
       1.319039970550e-02       4.200917701164e+00 
       1.424266598317e-02       4.264943740221e+00 
       1.537887697392e-02       4.307219671617e+00 
       1.660572938023e-02       4.325062460663e+00 
       1.793045412706e-02       4.316060396006e+00 
       1.936085890181e-02       4.278228937116e+00 
       2.090537352463e-02       4.210204479210e+00 
       2.257309535333e-02       4.111418755258e+00 
       2.437382002918e-02       3.982420943994e+00 
       2.631799944462e-02       3.825168692953e+00 
       2.841644545389e-02       3.643282253649e+00 
       3.067933355377e-02       3.442198712790e+00 
       3.311368470740e-02       3.229241606500e+00 
       3.571840443502e-02       3.013516343346e+00 
       3.847720348444e-02       2.805283955592e+00 
       4.135335538431e-02       2.614410683586e+00 
       4.429361667738e-02       2.448132207122e+00 
       4.724366439141e-02       2.309240678884e+00 
       5.016480835311e-02       2.196115234977e+00 
       5.303989620246e-02       2.104369910334e+00 
       5.586870669566e-02       2.028462657231e+00 
       5.866042680613e-02       1.963155389856e+00 
       6.142798932958e-02       1.903779803173e+00 
       6.418496440164e-02       1.846479319448e+00 
       6.694418833788e-02       1.788197602451e+00 
       6.971731106057e-02       1.726715818895e+00 
       7.251476155766e-02       1.660654541875e+00 
       7.534587671527e-02       1.589470017323e+00 
       7.821907666265e-02       1.513436751466e+00 
       8.114203772912e-02       1.433568952731e+00 
       8.412184535029e-02       1.351492462554e+00 
       8.716512279304e-02       1.269273950485e+00 
       9.027813695930e-02       1.189193399039e+00 
       9.346688431697e-02       1.113501349793e+00 
       9.673716028276e-02       1.044174701278e+00 
       1.000946150830e-01       9.827062414212e-01 
       1.035447986537e-01       9.299361702949e-01 
       1.070931966762e-01       8.859587636696e-01 
       1.107452594425e-01       8.500713454213e-01 
       1.145064249153e-01       8.208035893827e-01 
       1.183821370918e-01       7.960245032164e-01 
       1.223778605862e-01       7.731459140184e-01 
       1.264990921987e-01       7.494523239529e-01 
       1.307513701367e-01       7.225578173397e-01 
       1.351402814784e-01       6.909098735907e-01 
       1.396714684203e-01       6.541826926269e-01 
       1.443506338194e-01       6.134281662131e-01 
       1.491835465229e-01       5.708688504658e-01 
       1.541760469708e-01       5.293641555139e-01 
       1.593340535561e-01       4.917107020166e-01 
       1.646635702297e-01       4.599198029621e-01 
       1.701706958456e-01       4.347277430719e-01 
       1.758616357459e-01       4.154076344663e-01 
       1.817427160982e-01       3.999360391587e-01 
       1.878204015065e-01       3.856856071678e-01 
       1.941013164283e-01       3.698139076668e-01 
       2.005922709503e-01       3.505513096878e-01 
       2.073002914972e-01       3.280462491221e-01 
       2.142326570816e-01       3.042131811335e-01 
       2.213969417533e-01       2.816113450812e-01 
       2.288010639706e-01       2.622565630102e-01 
       2.364533437147e-01       2.469615346960e-01 
       2.443625682930e-01       2.350126557487e-01 
       2.525380679504e-01       2.244200746144e-01 
       2.609898026346e-01       2.130957291782e-01 
       2.697284615565e-01       2.001022955201e-01 
       2.787655775689e-01       1.860195260215e-01 
       2.881136588829e-01       1.725167654320e-01 
       2.977863412677e-01       1.610656277638e-01 
       3.077985646929e-01       1.517603685472e-01 
       3.181667794071e-01       1.435590113126e-01 
       3.289091877812e-01       1.351814080901e-01 
       3.400460299658e-01       1.261638745983e-01 
       3.515999236474e-01       1.172014906449e-01 
       3.635962711085e-01       1.091764480332e-01 
       3.760637506334e-01       1.023088269081e-01 
       3.890349143879e-01       9.593721950120e-02 
       4.025469216825e-01       8.950724755238e-02 
       4.166424456376e-01       8.311134851774e-02 
       4.313708035863e-01       7.721507243435e-02 
       4.467893782977e-01       7.190012093432e-02 
       4.629654199664e-01       6.686858829707e-02 
       4.799783501994e-01       6.191707527824e-02 
       4.979227319373e-01       5.722175750987e-02 
       5.169121270864e-01       5.290241884344e-02 
       5.370841404489e-01       4.876932204933e-02 
       5.586070464571e-01       4.479026755864e-02 
       5.816885094930e-01       4.105144581005e-02 
       6.065870144995e-01       3.748946893995e-02 
       6.336266468475e-01       3.407576158596e-02 
       6.632156059511e-01       3.083408649086e-02 
       6.958678639263e-01       2.772792358420e-02 
       7.322247985589e-01       2.476670386544e-02 
       7.730680195114e-01       2.193917023782e-02 
       8.193049553677e-01       1.925571708507e-02 
       8.718988016039e-01       1.672888523165e-02 
       9.317218031082e-01       1.438375234771e-02 
       9.993660908989e-01       1.225023781735e-02 
       1.075037110174e+00       1.035217217489e-02 
       1.158653485707e+00       8.699249384057e-03 
       1.250099157308e+00       7.284158106786e-03 
       1.349432401273e+00       6.085031082293e-03 
       1.456947457397e+00       5.075307187201e-03 
       1.573135111331e+00       4.227881086203e-03 
       1.698621895592e+00       3.518121052807e-03 
       1.834127512934e+00       2.924558964514e-03 
       1.980444934528e+00       2.428743779660e-03 
       2.138435191726e+00       2.015093285786e-03 
       2.309029199186e+00       1.670362500958e-03 
       2.493232377687e+00       1.383383872340e-03 
       2.692130395285e+00       1.144726909740e-03 
       2.906895534573e+00       9.464561946444e-04 
       3.138793597714e+00       7.818935514670e-04 
       3.389191366484e+00       6.454308792778e-04 
       3.659564657905e+00       5.323829951495e-04 
       3.951507022538e+00       4.388032348796e-04 
       4.266739136701e+00       3.614168021470e-04 
       4.607118943941e+00       2.974596969519e-04 
       4.974652605557e+00       2.446512055267e-04 
       5.371506324689e+00       2.010813184632e-04 
       5.800019113685e+00       1.651566374722e-04 
       6.262716579983e+00       1.355602974848e-04 
       6.762325811764e+00       1.111934128524e-04 
       7.301791451110e+00       9.114593802227e-05 
       7.884293049406e+00       7.466344431752e-05 
       8.513263807261e+00       6.112019527252e-05 
       9.192410809424e+00       4.999935048455e-05 
       9.925736873929e+00       4.087364215157e-05 
       1.071756414427e+01       3.338908948340e-05 
       1.157255956364e+01       2.725467511995e-05 
       1.249576238137e+01       2.222930365704e-05 
       1.349261385375e+01       1.811539631113e-05 
       1.456898931416e+01       1.474952951508e-05 
       1.573123280165e+01       1.199722961949e-05 
       1.698619445202e+01       9.747885650160e-06 
       1.834127087176e+01       7.910886015551e-06 
       1.980444873285e+01       6.411529402444e-06 
       2.138435184532e+01       5.188569918626e-06 
       2.309029198506e+01       4.191665181575e-06 
       2.493232377636e+01       3.379686725822e-06 
       2.692130395282e+01       2.718892511718e-06 
       2.906895534573e+01       2.181619676859e-06 
       3.138793597714e+01       1.745243543503e-06 
       3.389191366484e+01       1.391186640417e-06 
       3.659564657905e+01       1.104331953960e-06 
       3.951507022538e+01       8.723898771324e-07 
       4.266739136701e+01       6.851424588514e-07 
       4.607118943941e+01       5.343664102406e-07 
       4.974652605557e+01       4.133486064145e-07 
       5.371506324689e+01       3.165904613305e-07 
       5.800019113685e+01       2.396054257329e-07 
       6.262716579983e+01       1.787386569786e-07 
       6.762325811764e+01       1.310048579150e-07 
       7.301791451110e+01       9.396124066208e-08 
       7.884293049406e+01       6.560195992704e-08 
       8.513263807261e+01       4.427778052955e-08 
       9.192410809424e+01       2.861562410039e-08 
       9.925736873929e+01       1.746934058271e-08 
       1.071756414427e+02       9.869740079609e-09 
       1.157255956364e+02       4.990186492200e-09 
       1.249576238137e+02       2.120735610408e-09 
       1.349261385375e+02       6.556963406408e-10 
