# Matter power spectrum P(k) at redshift z=99
# for k=1.04775e-05 to 134.926 h/Mpc,
# number of wavenumbers equal to 255
#    1:k (h/Mpc)              2:P (Mpc/h)^3        
       1.047750691338e-05       7.261927095222e-03 
       1.131335172818e-05       7.820332150687e-03 
       1.221587619877e-05       8.421675382257e-03 
       1.319039970550e-05       9.069257737924e-03 
       1.424266598317e-05       9.766636451041e-03 
       1.537887697396e-05       1.051763973632e-02 
       1.660572938097e-05       1.132639250742e-02 
       1.793045413791e-05       1.219733201498e-02 
       1.936085902737e-05       1.313524187192e-02 
       2.090537469909e-05       1.414527084966e-02 
       2.257310435923e-05       1.523296544480e-02 
       2.437387742372e-05       1.640429654628e-02 
       2.631830745176e-05       1.766569603273e-02 
       2.841785470091e-05       1.902408711148e-02 
       3.068489367268e-05       2.048692967429e-02 
       3.313278604643e-05       2.206225467533e-02 
       3.577595943165e-05       2.375870883836e-02 
       3.862999240274e-05       2.558560669804e-02 
       4.171170631739e-05       2.755297672489e-02 
       4.503926445983e-05       2.967161933393e-02 
       4.863227909323e-05       3.195316455634e-02 
       5.251192705226e-05       3.441013466111e-02 
       5.670107455699e-05       3.705601741677e-02 
       6.122441198393e-05       3.990533412809e-02 
       6.610859938837e-05       4.297372242502e-02 
       7.138242363583e-05       4.627802054819e-02 
       7.707696806873e-05       4.983636159853e-02 
       8.322579570814e-05       5.366826786897e-02 
       8.986514707061e-05       5.779476319694e-02 
       9.703415376577e-05       6.223848221794e-02 
       1.047750691338e-04       6.702379824976e-02 
       1.131335172818e-04       7.217695031031e-02 
       1.221587619877e-04       7.772619030310e-02 
       1.319039970550e-04       8.370193379985e-02 
       1.424266598317e-04       9.013692506609e-02 
       1.537887697396e-04       9.706641130337e-02 
       1.660572938097e-04       1.045283343104e-01 
       1.793045413791e-04       1.125635329179e-01 
       1.936085902737e-04       1.212159592302e-01 
       2.090537469909e-04       1.305329107428e-01 
       2.257310435923e-04       1.405652819353e-01 
       2.437387742372e-04       1.513678275068e-01 
       2.631830745176e-04       1.629994475125e-01 
       2.841785470091e-04       1.755234890470e-01 
       3.068489367268e-04       1.890080645291e-01 
       3.313278604643e-04       2.035263977423e-01 
       3.577595943165e-04       2.191571778036e-01 
       3.862999240274e-04       2.359849423251e-01 
       4.171170631739e-04       2.541004712993e-01 
       4.503926445983e-04       2.736012061149e-01 
       4.863227909323e-04       2.945916774633e-01 
       5.251192705226e-04       3.171839507853e-01 
       5.670107455699e-04       3.414980769098e-01 
       6.122441198393e-04       3.676625416290e-01 
       6.610859938837e-04       3.958147272854e-01 
       7.138242363583e-04       4.261013332054e-01 
       7.707696806873e-04       4.586787880839e-01 
       8.322579570814e-04       4.937136112810e-01 
       8.986514707061e-04       5.313826962066e-01 
       9.703415376577e-04       5.718735176795e-01 
       1.047750691338e-03       6.153841926242e-01 
       1.131335172818e-03       6.621233623115e-01 
       1.221587619877e-03       7.123098743648e-01 
       1.319039970550e-03       7.661721263783e-01 
       1.424266598317e-03       8.239547181301e-01 
       1.537887697396e-03       8.859012282819e-01 
       1.660572938097e-03       9.522589495758e-01 
       1.793045413791e-03       1.023280284738e+00 
       1.936085902737e-03       1.099216542129e+00 
       2.090537469909e-03       1.180313285063e+00 
       2.257310435923e-03       1.266804486839e+00 
       2.437387742372e-03       1.358905328498e+00 
       2.631830745176e-03       1.456803285990e+00 
       2.841785470091e-03       1.560647663084e+00 
       3.068489367268e-03       1.670537010631e+00 
       3.313278604643e-03       1.786505039702e+00 
       3.577595943165e-03       1.908504410192e+00 
       3.862999240274e-03       2.036389468845e+00 
       4.171170631739e-03       2.169898252903e+00 
       4.503926445983e-03       2.308634492087e+00 
       4.863227909323e-03       2.452050674912e+00 
       5.251192705226e-03       2.599434681292e+00 
       5.670107455699e-03       2.749901126651e+00 
       6.122441198393e-03       2.902390058549e+00 
       6.610859938837e-03       3.055671270096e+00 
       7.138242363583e-03       3.208360123176e+00 
       7.707696806873e-03       3.358926651775e+00 
       8.322579570814e-03       3.505726890398e+00 
       8.986514707061e-03       3.647012438551e+00 
       9.703415376577e-03       3.780926180281e+00 
       1.047750691338e-02       3.905492881942e+00 
       1.131335172818e-02       4.018589827726e+00 
       1.221587619877e-02       4.117902891027e+00 
       1.319039970550e-02       4.200917703345e+00 
       1.424266598317e-02       4.264943742867e+00 
       1.537887697392e-02       4.307219674827e+00 
       1.660572938023e-02       4.325062464533e+00 
       1.793045412706e-02       4.316060400649e+00 
       1.936085890181e-02       4.278228942656e+00 
       2.090537352463e-02       4.210204485795e+00 
       2.257309535333e-02       4.111418763039e+00 
       2.437382002918e-02       3.982420953126e+00 
       2.631799944462e-02       3.825168703614e+00 
       2.841644545389e-02       3.643282265920e+00 
       3.067933355377e-02       3.442198727038e+00 
       3.311368470740e-02       3.229241622866e+00 
       3.571840443502e-02       3.013516361922e+00 
       3.847720348444e-02       2.805283976618e+00 
       4.135335538431e-02       2.614410707180e+00 
       4.429361667738e-02       2.448132233527e+00 
       4.724366439141e-02       2.309240708186e+00 
       5.016480835311e-02       2.196115267298e+00 
       5.303989620246e-02       2.104369945780e+00 
       5.586870669566e-02       2.028462695894e+00 
       5.866042680613e-02       1.963155431813e+00 
       6.142798932958e-02       1.903779848491e+00 
       6.418496440164e-02       1.846479368162e+00 
       6.694418833788e-02       1.788197654571e+00 
       6.971731106057e-02       1.726715874384e+00 
       7.251476155766e-02       1.660654600664e+00 
       7.534587671527e-02       1.589470079304e+00 
       7.821907666265e-02       1.513436816499e+00 
       8.114203772912e-02       1.433569020662e+00 
       8.412184535029e-02       1.351492533233e+00 
       8.716512279304e-02       1.269274023737e+00 
       9.027813695930e-02       1.189193474804e+00 
       9.346688431697e-02       1.113501428009e+00 
       9.673716028276e-02       1.044174782021e+00 
       1.000946150830e-01       9.827063248377e-01 
       1.035447986537e-01       9.299340134932e-01 
       1.070931966762e-01       8.859588532694e-01 
       1.107452594425e-01       8.500714385623e-01 
       1.145064249153e-01       8.208036869266e-01 
       1.183821370918e-01       7.960246049410e-01 
       1.223778605862e-01       7.731460204006e-01 
       1.264990921987e-01       7.494524317736e-01 
       1.307513701367e-01       7.225579330132e-01 
       1.351402814784e-01       6.909090734483e-01 
       1.396714684203e-01       6.541816560203e-01 
       1.443506338194e-01       6.134282929649e-01 
       1.491835465229e-01       5.708689800139e-01 
       1.541760469708e-01       5.293642873861e-01 
       1.593340535561e-01       4.917108364895e-01 
       1.646635702297e-01       4.599199404171e-01 
       1.701706958456e-01       4.347278843087e-01 
       1.758616357459e-01       4.154077803757e-01 
       1.817427160982e-01       3.999361903563e-01 
       1.878204015065e-01       3.856857640004e-01 
       1.941013164283e-01       3.698138117854e-01 
       2.005922709503e-01       3.505508163173e-01 
       2.073002914972e-01       3.280464191693e-01 
       2.142326570816e-01       3.042133563879e-01 
       2.213969417533e-01       2.816115196645e-01 
       2.288010639706e-01       2.622567412342e-01 
       2.364533437147e-01       2.469617169303e-01 
       2.443625682930e-01       2.350128430277e-01 
       2.525380679504e-01       2.244202673645e-01 
       2.609898026346e-01       2.130959899819e-01 
       2.697284615565e-01       2.001024952125e-01 
       2.787655775689e-01       1.860197306557e-01 
       2.881136588829e-01       1.725174299450e-01 
       2.977863412677e-01       1.610658386697e-01 
       3.077985646929e-01       1.517604107327e-01 
       3.181667794071e-01       1.435592310418e-01 
       3.289091877812e-01       1.351816328696e-01 
       3.400460299658e-01       1.261641469796e-01 
       3.515999236474e-01       1.172017215008e-01 
       3.635962711085e-01       1.091767014118e-01 
       3.760637506334e-01       1.023090649946e-01 
       3.890349143879e-01       9.593745280036e-02 
       4.025469216825e-01       8.950749392002e-02 
       4.166424456376e-01       8.311154140722e-02 
       4.313708035863e-01       7.721532150986e-02 
       4.467893782977e-01       7.190040481585e-02 
       4.629654199664e-01       6.686884257367e-02 
       4.799783501994e-01       6.191733943333e-02 
       4.979227319373e-01       5.722202889856e-02 
       5.169121270864e-01       5.290269089977e-02 
       5.370841404489e-01       4.876957443308e-02 
       5.586070464571e-01       4.479054542714e-02 
       5.816885094930e-01       4.105172359552e-02 
       6.065870144995e-01       3.748974768774e-02 
       6.336266468475e-01       3.407604840657e-02 
       6.632156059511e-01       3.083437865408e-02 
       6.958678639263e-01       2.772821601885e-02 
       7.322247985589e-01       2.476700236019e-02 
       7.730680195114e-01       2.193947251080e-02 
       8.193049553677e-01       1.925602044016e-02 
       8.718988016039e-01       1.672919279194e-02 
       9.317218031082e-01       1.438406284668e-02 
       9.993660908989e-01       1.225055211987e-02 
       1.075037110174e+00       1.035248765994e-02 
       1.158653485707e+00       8.699567064065e-03 
       1.250099157308e+00       7.284477998182e-03 
       1.349432401273e+00       6.085351977331e-03 
       1.456947457397e+00       5.075628762333e-03 
       1.573135111331e+00       4.228202414762e-03 
       1.698621895592e+00       3.518442612732e-03 
       1.834127512934e+00       2.924884534178e-03 
       1.980444934528e+00       2.429053995797e-03 
       2.138435191726e+00       2.015414808537e-03 
       2.309029199186e+00       1.670678250155e-03 
       2.493232377687e+00       1.383699364674e-03 
       2.692130395285e+00       1.145039607756e-03 
       2.906895534573e+00       9.467670740726e-04 
       3.138793597714e+00       7.821973723650e-04 
       3.389191366484e+00       6.457369912897e-04 
       3.659564657905e+00       5.326809348340e-04 
       3.951507022538e+00       4.390998179877e-04 
       4.266739136701e+00       3.617025201198e-04 
       4.607118943941e+00       2.977417177997e-04 
       4.974652605557e+00       2.449295677521e-04 
       5.371506324689e+00       2.013522528220e-04 
       5.800019113685e+00       1.654236722360e-04 
       6.262716579983e+00       1.358220201695e-04 
       6.762325811764e+00       1.114497790253e-04 
       7.301791451110e+00       9.139746301408e-05 
       7.884293049406e+00       7.490758605884e-05 
       8.513263807261e+00       6.135839413095e-05 
       9.192410809424e+00       5.023121226932e-05 
       9.925736873929e+00       4.109914317410e-05 
       1.071756414427e+01       3.360734661977e-05 
       1.157255956364e+01       2.746570406186e-05 
       1.249576238137e+01       2.243366808376e-05 
       1.349261385375e+01       1.831245022053e-05 
       1.456898931416e+01       1.493916245060e-05 
       1.573123280165e+01       1.217930903326e-05 
       1.698619445202e+01       9.922443930903e-06 
       1.834127087176e+01       8.077599777663e-06 
       1.980444873285e+01       6.570310636681e-06 
       2.138435184532e+01       5.339167977313e-06 
       2.309029198506e+01       4.334105134372e-06 
       2.493232377636e+01       3.513768988996e-06 
       2.692130395282e+01       2.844423859524e-06 
       2.906895534573e+01       2.298474194347e-06 
       3.138793597714e+01       1.853232598572e-06 
       3.389191366484e+01       1.490241823194e-06 
       3.659564657905e+01       1.194358287279e-06 
       3.951507022538e+01       9.532037551451e-07 
       4.266739136701e+01       7.567334926075e-07 
       4.607118943941e+01       5.967991990930e-07 
       4.974652605557e+01       4.666811931875e-07 
       5.371506324689e+01       3.609771791966e-07 
       5.800019113685e+01       2.753833276876e-07 
       6.262716579983e+01       2.063169995249e-07 
       6.762325811764e+01       1.509777145382e-07 
       7.301791451110e+01       1.070833800156e-07 
       7.884293049406e+01       7.283178839311e-08 
       8.513263807261e+01       4.674491708263e-08 
       9.192410809424e+01       2.758177862597e-08 
       9.925736873929e+01       1.429983125286e-08 
       1.071756414427e+02       5.932825438775e-09 
       1.157255956364e+02       1.485686982787e-09 
       1.249576238137e+02       2.613563523076e-11 
       1.349261385375e+02       5.285657352303e-10 
