# Matter power spectrum P(k) at redshift z=0
# for k=1.04775e-05 to 67.6233 h/Mpc,
# number of wavenumbers equal to 246
#    1:k (h/Mpc)              2:P (Mpc/h)^3        
       1.047750691338e-05       5.020964806755e+01 
       1.131335172818e-05       5.407048206554e+01 
       1.221587619877e-05       5.822819063819e+01 
       1.319039970550e-05       6.270562589679e+01 
       1.424266598317e-05       6.752731788102e+01 
       1.537887697396e-05       7.271977200258e+01 
       1.660572938097e-05       7.831147241541e+01 
       1.793045413791e-05       8.433311815128e+01 
       1.936085902737e-05       9.081778242446e+01 
       2.090537469909e-05       9.780108061340e+01 
       2.257310435923e-05       1.053213197032e+02 
       2.437387742372e-05       1.134197377001e+02 
       2.631830745176e-05       1.221408202816e+02 
       2.841785470091e-05       1.315324720916e+02 
       3.068489367268e-05       1.416462093730e+02 
       3.313278604643e-05       1.525374500691e+02 
       3.577595943165e-05       1.642660687078e+02 
       3.862999240274e-05       1.768963504868e+02 
       4.171170631739e-05       1.904975992460e+02 
       4.503926445983e-05       2.051444490305e+02 
       4.863227909323e-05       2.209171463752e+02 
       5.251192705226e-05       2.379022222314e+02 
       5.670107455699e-05       2.561927925637e+02 
       6.122441198393e-05       2.758890441791e+02 
       6.610859938837e-05       2.970989225466e+02 
       7.138242363583e-05       3.199385558200e+02 
       7.707696806873e-05       3.445329780878e+02 
       8.322579570814e-05       3.710167315928e+02 
       8.986514707061e-05       3.995346440954e+02 
       9.703415376577e-05       4.302425403884e+02 
       1.047750691338e-04       4.633080762974e+02 
       1.131335172818e-04       4.989116267507e+02 
       1.221587619877e-04       5.372471946561e+02 
       1.319039970550e-04       5.785234124637e+02 
       1.424266598317e-04       6.229645930980e+02 
       1.537887697396e-04       6.708118484951e+02 
       1.660572938097e-04       7.223242660220e+02 
       1.793045413791e-04       7.777801552649e+02 
       1.936085902737e-04       8.374783607333e+02 
       2.090537469909e-04       9.017396264495e+02 
       2.257310435923e-04       9.709080260152e+02 
       2.437387742372e-04       1.045352448644e+03 
       2.631830745176e-04       1.125468122836e+03 
       2.841785470091e-04       1.211678179511e+03 
       3.068489367268e-04       1.304435249091e+03 
       3.313278604643e-04       1.404223052541e+03 
       3.577595943165e-04       1.511558013390e+03 
       3.862999240274e-04       1.626990836391e+03 
       4.171170631739e-04       1.751108027371e+03 
       4.503926445983e-04       1.884533381345e+03 
       4.863227909323e-04       2.027929376470e+03 
       5.251192705226e-04       2.181998446367e+03 
       5.670107455699e-04       2.347484100857e+03 
       6.122441198393e-04       2.525171869336e+03 
       6.610859938837e-04       2.715889981400e+03 
       7.138242363583e-04       2.920509686090e+03 
       7.707696806873e-04       3.139945097710e+03 
       8.322579570814e-04       3.375152334398e+03 
       8.986514707061e-04       3.627127828230e+03 
       9.703415376577e-04       3.896905450016e+03 
       1.047750691338e-03       4.185552170947e+03 
       1.131335172818e-03       4.494162426790e+03 
       1.221587619877e-03       4.823850702669e+03 
       1.319039970550e-03       5.175742735028e+03 
       1.424266598317e-03       5.551019592517e+03 
       1.537887697396e-03       5.950788335885e+03 
       1.660572938097e-03       6.376123046798e+03 
       1.793045413791e-03       6.828073896120e+03 
       1.936085902737e-03       7.307625375384e+03 
       2.090537469909e-03       7.815671908651e+03 
       2.257310435923e-03       8.352990369397e+03 
       2.437387742372e-03       8.920211057526e+03 
       2.631830745176e-03       9.517783061884e+03 
       2.841785470091e-03       1.014593703670e+04 
       3.068489367268e-03       1.080464505732e+04 
       3.313278604643e-03       1.149357459420e+04 
       3.577595943165e-03       1.221203620825e+04 
       3.862999240274e-03       1.295892538503e+04 
       4.171170631739e-03       1.373266001078e+04 
       4.503926445983e-03       1.453111834592e+04 
       4.863227909323e-03       1.535154984119e+04 
       5.251192705226e-03       1.619063612794e+04 
       5.670107455699e-03       1.704431256578e+04 
       6.122441198393e-03       1.790755938829e+04 
       6.610859938837e-03       1.877460415120e+04 
       7.138242363583e-03       1.963872430325e+04 
       7.707696806873e-03       2.049215713531e+04 
       8.322579570814e-03       2.132607235720e+04 
       8.986514707061e-03       2.213055142752e+04 
       9.703415376577e-03       2.289445475727e+04 
       1.047750691338e-02       2.360548704456e+04 
       1.131335172818e-02       2.425022878876e+04 
       1.221587619877e-02       2.481423923735e+04 
       1.319039970550e-02       2.528218663619e+04 
       1.424266598317e-02       2.563814176711e+04 
       1.537887697392e-02       2.586608092238e+04 
       1.660572938023e-02       2.595028169374e+04 
       1.793045412706e-02       2.587635458670e+04 
       1.936085890181e-02       2.563214836256e+04 
       2.090537352463e-02       2.520938099407e+04 
       2.257309535333e-02       2.460447422085e+04 
       2.437382002918e-02       2.382089788654e+04 
       2.631799944462e-02       2.287044555959e+04 
       2.841644545389e-02       2.177450895496e+04 
       3.067933355377e-02       2.056556311274e+04 
       3.311368470740e-02       1.928727197483e+04 
       3.571840443502e-02       1.799402890607e+04 
       3.847720348444e-02       1.674679298048e+04 
       4.135335538431e-02       1.560463398474e+04 
       4.429361667738e-02       1.461042624848e+04 
       4.724366439141e-02       1.378056218909e+04 
       5.016480835311e-02       1.310505125957e+04 
       5.303989620246e-02       1.255715704407e+04 
       5.586870669566e-02       1.210425292233e+04 
       5.866042680613e-02       1.171464276909e+04 
       6.142798932958e-02       1.136054261159e+04 
       6.418496440164e-02       1.101863703201e+04 
       6.694418833788e-02       1.067074163823e+04 
       6.971731106057e-02       1.030359071379e+04 
       7.251476155766e-02       9.909061576387e+03 
       7.534587671527e-02       9.483807255754e+03 
       7.821907666265e-02       9.029549674731e+03 
       8.114203772912e-02       8.552362962833e+03 
       8.412184535029e-02       8.062000219565e+03 
       8.716512279304e-02       7.570800218068e+03 
       9.027813695930e-02       7.092522567321e+03 
       9.346688431697e-02       6.640551460469e+03 
       9.673716028276e-02       6.226734881345e+03 
       1.000946150830e-01       5.859972629609e+03 
       1.035447986537e-01       5.545282769453e+03 
       1.070931966762e-01       5.283181960031e+03 
       1.107452594425e-01       5.069446422661e+03 
       1.145064249153e-01       4.895258067032e+03 
       1.183821370918e-01       4.747873726699e+03 
       1.223778605862e-01       4.611732075107e+03 
       1.264990921987e-01       4.470628745959e+03 
       1.307513701367e-01       4.310271616063e+03 
       1.351402814784e-01       4.121381220521e+03 
       1.396714684203e-01       3.902075122015e+03 
       1.443506338194e-01       3.658647118797e+03 
       1.491835465229e-01       3.404479365293e+03 
       1.541760469708e-01       3.156664975433e+03 
       1.593340535561e-01       2.931943392974e+03 
       1.646635702297e-01       2.742367430802e+03 
       1.701706958456e-01       2.592245439664e+03 
       1.758616357459e-01       2.477225521728e+03 
       1.817427160982e-01       2.385187409936e+03 
       1.878204015065e-01       2.300327865698e+03 
       1.941013164283e-01       2.205730302007e+03 
       2.005922709503e-01       2.090795527172e+03 
       2.073002914972e-01       1.956476108770e+03 
       2.142326570816e-01       1.814194734706e+03 
       2.213969417533e-01       1.679277212864e+03 
       2.288010639706e-01       1.563839022960e+03 
       2.364533437147e-01       1.472675675967e+03 
       2.443625682930e-01       1.401511200894e+03 
       2.525380679504e-01       1.338421358492e+03 
       2.609898026346e-01       1.270912627957e+03 
       2.697284615565e-01       1.193380577402e+03 
       2.787655775689e-01       1.109325415007e+03 
       2.881136588829e-01       1.028761268679e+03 
       2.977863412677e-01       9.604773434171e+02 
       3.077985646929e-01       9.050095435337e+02 
       3.181667794071e-01       8.561390936774e+02 
       3.289091877812e-01       8.061802372140e+02 
       3.400460299658e-01       7.523899748412e+02 
       3.515999236474e-01       6.989166319184e+02 
       3.635962711085e-01       6.510530054678e+02 
       3.760637506334e-01       6.101198295028e+02 
       3.890349143879e-01       5.721281007096e+02 
       4.025469216825e-01       5.337779194175e+02 
       4.166424456376e-01       4.956246448267e+02 
       4.313708035863e-01       4.604658755559e+02 
       4.467893782977e-01       4.287713066515e+02 
       4.629654199664e-01       3.987700686688e+02 
       4.799783501994e-01       3.692355155492e+02 
       4.979227319373e-01       3.412370756316e+02 
       5.169121270864e-01       3.154796115595e+02 
       5.370841404489e-01       2.908313479873e+02 
       5.586070464571e-01       2.671024891000e+02 
       5.816885094930e-01       2.448059244993e+02 
       6.065870144995e-01       2.235668430819e+02 
       6.336266468475e-01       2.032097699143e+02 
       6.632156059511e-01       1.838778275660e+02 
       6.958678639263e-01       1.653531775895e+02 
       7.322247985589e-01       1.476944591623e+02 
       7.730680195114e-01       1.308333347735e+02 
       8.193049553677e-01       1.148314079667e+02 
       8.718988016039e-01       9.976262365133e+01 
       9.317218031082e-01       8.577737821112e+01 
       9.993660908989e-01       7.305458366064e+01 
       1.075037110174e+00       6.173567238348e+01 
       1.158653485707e+00       5.187868378928e+01 
       1.250099157308e+00       4.343994276750e+01 
       1.349432401273e+00       3.628876816511e+01 
       1.456947457397e+00       3.026767875540e+01 
       1.573135111331e+00       2.521431808672e+01 
       1.698621895592e+00       2.098192919609e+01 
       1.834127512934e+00       1.744220982911e+01 
       1.980444934528e+00       1.448549959499e+01 
       2.138435191726e+00       1.201875952808e+01 
       2.309029199186e+00       9.963127067597e+00 
       2.493232377687e+00       8.251699904005e+00 
       2.692130395285e+00       6.828450222794e+00 
       2.906895534573e+00       5.646107054085e+00 
       3.138793597714e+00       4.664733393844e+00 
       3.389191366484e+00       3.851030882657e+00 
       3.659564657905e+00       3.176840174189e+00 
       3.951507022538e+00       2.618772587685e+00 
       4.266739136701e+00       2.157234169614e+00 
       4.607118943941e+00       1.775807678448e+00 
       4.974652605557e+00       1.460887529995e+00 
       5.371506324689e+00       1.201019489327e+00 
       5.800019113685e+00       9.867581355453e-01 
       6.262716579983e+00       8.102328426696e-01 
       6.762325811764e+00       6.648835694917e-01 
       7.301791451110e+00       5.452953799375e-01 
       7.884293049406e+00       4.469701445761e-01 
       8.513263807261e+00       3.661595597108e-01 
       9.192410809424e+00       2.997993757599e-01 
       9.925736873929e+00       2.453313993613e-01 
       1.071756414427e+01       2.006518578961e-01 
       1.157255956364e+01       1.640204866848e-01 
       1.249576238137e+01       1.340051379343e-01 
       1.349261385375e+01       1.094216932258e-01 
       1.456898931416e+01       8.929770940519e-02 
       1.573123280165e+01       7.283192124194e-02 
       1.698619445202e+01       5.936481687532e-02 
       1.834127087176e+01       4.835513473633e-02 
       1.980444873285e+01       3.935725217164e-02 
       2.138435184532e+01       3.200667189364e-02 
       2.309029198506e+01       2.600333347990e-02 
       2.493232377636e+01       2.110162270209e-02 
       2.692130395282e+01       1.710044735881e-02 
       2.906895534573e+01       1.383420410359e-02 
       3.138793597714e+01       1.116871172873e-02 
       3.389191366484e+01       8.993263671339e-03 
       3.659564657905e+01       7.217801873166e-03 
       3.951507022538e+01       5.768654934171e-03 
       4.266739136701e+01       4.586037071726e-03 
       4.607118943941e+01       3.621042473288e-03 
       4.974652605557e+01       2.833909836794e-03 
       5.371506324689e+01       2.192722941232e-03 
       5.800019113685e+01       1.671608264736e-03 
       6.262716579983e+01       1.249695815804e-03 
       6.762325811764e+01       9.104200717495e-04 
