# Matter power spectrum P(k) at redshift z=0
# for k=1.04775e-05 to 67.6233 h/Mpc,
# number of wavenumbers equal to 246
#    1:k (h/Mpc)              2:P (Mpc/h)^3        
       1.047750691338e-05       5.020964806755e+01 
       1.131335172818e-05       5.407048206554e+01 
       1.221587619877e-05       5.822819063823e+01 
       1.319039970550e-05       6.270562589686e+01 
       1.424266598317e-05       6.752731788102e+01 
       1.537887697396e-05       7.271977200258e+01 
       1.660572938097e-05       7.831147241542e+01 
       1.793045413791e-05       8.433311815128e+01 
       1.936085902737e-05       9.081778242446e+01 
       2.090537469909e-05       9.780108061340e+01 
       2.257310435923e-05       1.053213197032e+02 
       2.437387742372e-05       1.134197377001e+02 
       2.631830745176e-05       1.221408202816e+02 
       2.841785470091e-05       1.315324720916e+02 
       3.068489367268e-05       1.416462093730e+02 
       3.313278604643e-05       1.525374500691e+02 
       3.577595943165e-05       1.642660687078e+02 
       3.862999240274e-05       1.768963504868e+02 
       4.171170631739e-05       1.904975992460e+02 
       4.503926445983e-05       2.051444490305e+02 
       4.863227909323e-05       2.209171463752e+02 
       5.251192705226e-05       2.379022222314e+02 
       5.670107455699e-05       2.561927925809e+02 
       6.122441198393e-05       2.758890441791e+02 
       6.610859938837e-05       2.970989225464e+02 
       7.138242363583e-05       3.199385558200e+02 
       7.707696806873e-05       3.445329780878e+02 
       8.322579570814e-05       3.710167315928e+02 
       8.986514707061e-05       3.995346440954e+02 
       9.703415376577e-05       4.302425403884e+02 
       1.047750691338e-04       4.633080762974e+02 
       1.131335172818e-04       4.989116267507e+02 
       1.221587619877e-04       5.372471946561e+02 
       1.319039970550e-04       5.785234124631e+02 
       1.424266598317e-04       6.229645930980e+02 
       1.537887697396e-04       6.708118484951e+02 
       1.660572938097e-04       7.223242660220e+02 
       1.793045413791e-04       7.777801554002e+02 
       1.936085902737e-04       8.374783607333e+02 
       2.090537469909e-04       9.017396264495e+02 
       2.257310435923e-04       9.709080260152e+02 
       2.437387742372e-04       1.045352448644e+03 
       2.631830745176e-04       1.125468122836e+03 
       2.841785470091e-04       1.211678179511e+03 
       3.068489367268e-04       1.304435249091e+03 
       3.313278604643e-04       1.404223052541e+03 
       3.577595943165e-04       1.511558013390e+03 
       3.862999240274e-04       1.626990836450e+03 
       4.171170631739e-04       1.751108027370e+03 
       4.503926445983e-04       1.884533381345e+03 
       4.863227909323e-04       2.027929376471e+03 
       5.251192705226e-04       2.181998446367e+03 
       5.670107455699e-04       2.347484100857e+03 
       6.122441198393e-04       2.525171869337e+03 
       6.610859938837e-04       2.715889981400e+03 
       7.138242363583e-04       2.920509686089e+03 
       7.707696806873e-04       3.139945097711e+03 
       8.322579570814e-04       3.375152334397e+03 
       8.986514707061e-04       3.627127828231e+03 
       9.703415376577e-04       3.896905450016e+03 
       1.047750691338e-03       4.185552170957e+03 
       1.131335172818e-03       4.494162426791e+03 
       1.221587619877e-03       4.823850702669e+03 
       1.319039970550e-03       5.175742739777e+03 
       1.424266598317e-03       5.551019592519e+03 
       1.537887697396e-03       5.950788335872e+03 
       1.660572938097e-03       6.376123046802e+03 
       1.793045413791e-03       6.828073896118e+03 
       1.936085902737e-03       7.307625375387e+03 
       2.090537469909e-03       7.815671860175e+03 
       2.257310435923e-03       8.352990369399e+03 
       2.437387742372e-03       8.920211057537e+03 
       2.631830745176e-03       9.517783061890e+03 
       2.841785470091e-03       1.014593703671e+04 
       3.068489367268e-03       1.080464505732e+04 
       3.313278604643e-03       1.149357459475e+04 
       3.577595943165e-03       1.221203620826e+04 
       3.862999240274e-03       1.295892538505e+04 
       4.171170631739e-03       1.373266002310e+04 
       4.503926445983e-03       1.453111834595e+04 
       4.863227909323e-03       1.535154984227e+04 
       5.251192705226e-03       1.619063613436e+04 
       5.670107455699e-03       1.704431256556e+04 
       6.122441198393e-03       1.790755938458e+04 
       6.610859938837e-03       1.877460419036e+04 
       7.138242363583e-03       1.963872429096e+04 
       7.707696806873e-03       2.049215712348e+04 
       8.322579570814e-03       2.132607230480e+04 
       8.986514707061e-03       2.213055154189e+04 
       9.703415376577e-03       2.289445470775e+04 
       1.047750691338e-02       2.360547762113e+04 
       1.131335172818e-02       2.425022856700e+04 
       1.221587619877e-02       2.481423919831e+04 
       1.319039970550e-02       2.528218797688e+04 
       1.424266598317e-02       2.563814649631e+04 
       1.537887697392e-02       2.586606508091e+04 
       1.660572938023e-02       2.595027502338e+04 
       1.793045412706e-02       2.587635223211e+04 
       1.936085890181e-02       2.563218607818e+04 
       2.090537352463e-02       2.520932189833e+04 
       2.257309535333e-02       2.460445228654e+04 
       2.437382002918e-02       2.382087837524e+04 
       2.631799944462e-02       2.287041456373e+04 
       2.841644545389e-02       2.177447574477e+04 
       3.067933355377e-02       2.056553384877e+04 
       3.311368470740e-02       1.928733745828e+04 
       3.571840443502e-02       1.799400951211e+04 
       3.847720348444e-02       1.674686407897e+04 
       4.135335538431e-02       1.560462257896e+04 
       4.429361667738e-02       1.461039886683e+04 
       4.724366439141e-02       1.378054829033e+04 
       5.016480835311e-02       1.310508147150e+04 
       5.303989620246e-02       1.255716426640e+04 
       5.586870669566e-02       1.210426686603e+04 
       5.866042680613e-02       1.171463494118e+04 
       6.142798932958e-02       1.136048423101e+04 
       6.418496440164e-02       1.101858163090e+04 
       6.694418833788e-02       1.067068359697e+04 
       6.971731106057e-02       1.030358952865e+04 
       7.251476155766e-02       9.909008355875e+03 
       7.534587671527e-02       9.483784451266e+03 
       7.821907666265e-02       9.029494762296e+03 
       8.114203772912e-02       8.552333445607e+03 
       8.412184535029e-02       8.061949652958e+03 
       8.716512279304e-02       7.570758363624e+03 
       9.027813695930e-02       7.092531372032e+03 
       9.346688431697e-02       6.640522152696e+03 
       9.673716028276e-02       6.226710065280e+03 
       1.000946150830e-01       5.859940430238e+03 
       1.035447986537e-01       5.545216785022e+03 
       1.070931966762e-01       5.283144644870e+03 
       1.107452594425e-01       5.069422348193e+03 
       1.145064249153e-01       4.895257593303e+03 
       1.183821370918e-01       4.747838114150e+03 
       1.223778605862e-01       4.611753032090e+03 
       1.264990921987e-01       4.470625218277e+03 
       1.307513701367e-01       4.310269446941e+03 
       1.351402814784e-01       4.121399182311e+03 
       1.396714684203e-01       3.902070912226e+03 
       1.443506338194e-01       3.658640989788e+03 
       1.491835465229e-01       3.404488181278e+03 
       1.541760469708e-01       3.156672028942e+03 
       1.593340535561e-01       2.931979479375e+03 
       1.646635702297e-01       2.742371315093e+03 
       1.701706958456e-01       2.592262165694e+03 
       1.758616357459e-01       2.477244886701e+03 
       1.817427160982e-01       2.385180943308e+03 
       1.878204015065e-01       2.300363697701e+03 
       1.941013164283e-01       2.205765130715e+03 
       2.005922709503e-01       2.090814993758e+03 
       2.073002914972e-01       1.956471412011e+03 
       2.142326570816e-01       1.814194641794e+03 
       2.213969417533e-01       1.679300138828e+03 
       2.288010639706e-01       1.563848630669e+03 
       2.364533437147e-01       1.472683233042e+03 
       2.443625682930e-01       1.401513105224e+03 
       2.525380679504e-01       1.338413923519e+03 
       2.609898026346e-01       1.270901978930e+03 
       2.697284615565e-01       1.193381390001e+03 
       2.787655775689e-01       1.109337706539e+03 
       2.881136588829e-01       1.028771070884e+03 
       2.977863412677e-01       9.604831943666e+02 
       3.077985646929e-01       9.050247589737e+02 
       3.181667794071e-01       8.561469670711e+02 
       3.289091877812e-01       8.061893454044e+02 
       3.400460299658e-01       7.523919448988e+02 
       3.515999236474e-01       6.989241224813e+02 
       3.635962711085e-01       6.510631371162e+02 
       3.760637506334e-01       6.101239891385e+02 
       3.890349143879e-01       5.721329167418e+02 
       4.025469216825e-01       5.337828306555e+02 
       4.166424456376e-01       4.956309518816e+02 
       4.313708035863e-01       4.604686370118e+02 
       4.467893782977e-01       4.287784289708e+02 
       4.629654199664e-01       3.987725477242e+02 
       4.799783501994e-01       3.692419374922e+02 
       4.979227319373e-01       3.412406235367e+02 
       5.169121270864e-01       3.154840437318e+02 
       5.370841404489e-01       2.908349976295e+02 
       5.586070464571e-01       2.671067010158e+02 
       5.816885094930e-01       2.448094733646e+02 
       6.065870144995e-01       2.235675550111e+02 
       6.336266468475e-01       2.032111992066e+02 
       6.632156059511e-01       1.838787996898e+02 
       6.958678639263e-01       1.653554454512e+02 
       7.322247985589e-01       1.476960209376e+02 
       7.730680195114e-01       1.308339171676e+02 
       8.193049553677e-01       1.148314795524e+02 
       8.718988016039e-01       9.976255849896e+01 
       9.317218031082e-01       8.577864682668e+01 
       9.993660908989e-01       7.305533453933e+01 
       1.075037110174e+00       6.173635374526e+01 
       1.158653485707e+00       5.187914860934e+01 
       1.250099157308e+00       4.344025426912e+01 
       1.349432401273e+00       3.628953681209e+01 
       1.456947457397e+00       3.026815389176e+01 
       1.573135111331e+00       2.521459475763e+01 
       1.698621895592e+00       2.098213654448e+01 
       1.834127512934e+00       1.744243105516e+01 
       1.980444934528e+00       1.448574970575e+01 
       2.138435191726e+00       1.201896447696e+01 
       2.309029199186e+00       9.963242367947e+00 
       2.493232377687e+00       8.251816852217e+00 
       2.692130395285e+00       6.828628944631e+00 
       2.906895534573e+00       5.646240365807e+00 
       3.138793597714e+00       4.664899487034e+00 
       3.389191366484e+00       3.851128994644e+00 
       3.659564657905e+00       3.176946127382e+00 
       3.951507022538e+00       2.618878700015e+00 
       4.266739136701e+00       2.157356391203e+00 
       4.607118943941e+00       1.775950135155e+00 
       4.974652605557e+00       1.461005835775e+00 
       5.371506324689e+00       1.201133801964e+00 
       5.800019113685e+00       9.868788734168e-01 
       6.262716579983e+00       8.103557356364e-01 
       6.762325811764e+00       6.650113428271e-01 
       7.301791451110e+00       5.454333918644e-01 
       7.884293049406e+00       4.470967324167e-01 
       8.513263807261e+00       3.662971765439e-01 
       9.192410809424e+00       2.999407262285e-01 
       9.925736873929e+00       2.454810733276e-01 
       1.071756414427e+01       2.008077270956e-01 
       1.157255956364e+01       1.641850471407e-01 
       1.249576238137e+01       1.341779734558e-01 
       1.349261385375e+01       1.096030904249e-01 
       1.456898931416e+01       8.948965326527e-02 
       1.573123280165e+01       7.303446021859e-02 
       1.698619445202e+01       5.957806248696e-02 
       1.834127087176e+01       4.858121620475e-02 
       1.980444873285e+01       3.959697823433e-02 
       2.138435184532e+01       3.226100358129e-02 
       2.309029198506e+01       2.627358456512e-02 
       2.493232377636e+01       2.138863908479e-02 
       2.692130395282e+01       1.740472012972e-02 
       2.906895534573e+01       1.415742865740e-02 
       3.138793597714e+01       1.151135830139e-02 
       3.389191366484e+01       9.356043755266e-03 
       3.659564657905e+01       7.601336599988e-03 
       3.951507022538e+01       6.173080866538e-03 
       4.266739136701e+01       5.011183047365e-03 
       4.607118943941e+01       4.066174007744e-03 
       4.974652605557e+01       3.298021369800e-03 
       5.371506324689e+01       2.673749984358e-03 
       5.800019113685e+01       2.166559112057e-03 
       6.262716579983e+01       1.754767248303e-03 
       6.762325811764e+01       1.420463303268e-03 
