# Matter power spectrum P(k) at redshift z=99
# for k=1.04775e-05 to 67.6233 h/Mpc,
# number of wavenumbers equal to 246
#    1:k (h/Mpc)              2:P (Mpc/h)^3        
       1.047750691338e-05       7.261927673119e-03 
       1.131335172818e-05       7.820331745737e-03 
       1.221587619877e-05       8.421675986488e-03 
       1.319039970550e-05       9.069258192194e-03 
       1.424266598317e-05       9.766638404421e-03 
       1.537887697396e-05       1.051764069682e-02 
       1.660572938097e-05       1.132639105520e-02 
       1.793045413791e-05       1.219733231416e-02 
       1.936085902737e-05       1.313524224380e-02 
       2.090537469909e-05       1.414527121893e-02 
       2.257310435923e-05       1.523296272192e-02 
       2.437387742372e-05       1.640429444530e-02 
       2.631830745176e-05       1.766569582177e-02 
       2.841785470091e-05       1.902408601793e-02 
       3.068489367268e-05       2.048692970591e-02 
       3.313278604643e-05       2.206225513594e-02 
       3.577595943165e-05       2.375870704909e-02 
       3.862999240274e-05       2.558560727479e-02 
       4.171170631739e-05       2.755297763344e-02 
       4.503926445983e-05       2.967161927314e-02 
       4.863227909323e-05       3.195316450832e-02 
       5.251192705226e-05       3.441013519284e-02 
       5.670107455699e-05       3.705601722527e-02 
       6.122441198393e-05       3.990533413563e-02 
       6.610859938837e-05       4.297372168203e-02 
       7.138242363583e-05       4.627802141688e-02 
       7.707696806873e-05       4.983636194159e-02 
       8.322579570814e-05       5.366826847231e-02 
       8.986514707061e-05       5.779476394569e-02 
       9.703415376577e-05       6.223848243885e-02 
       1.047750691338e-04       6.702379865640e-02 
       1.131335172818e-04       7.217695153381e-02 
       1.221587619877e-04       7.772619073571e-02 
       1.319039970550e-04       8.370193432376e-02 
       1.424266598317e-04       9.013692507547e-02 
       1.537887697396e-04       9.706641242570e-02 
       1.660572938097e-04       1.045283354271e-01 
       1.793045413791e-04       1.125635349068e-01 
       1.936085902737e-04       1.212159614968e-01 
       2.090537469909e-04       1.305329132714e-01 
       2.257310435923e-04       1.405652846215e-01 
       2.437387742372e-04       1.513678302540e-01 
       2.631830745176e-04       1.629994504871e-01 
       2.841785470091e-04       1.755234921224e-01 
       3.068489367268e-04       1.890080670413e-01 
       3.313278604643e-04       2.035264002435e-01 
       3.577595943165e-04       2.191571803681e-01 
       3.862999240274e-04       2.359849437592e-01 
       4.171170631739e-04       2.541004741539e-01 
       4.503926445983e-04       2.736012080278e-01 
       4.863227909323e-04       2.945916790965e-01 
       5.251192705226e-04       3.171839525183e-01 
       5.670107455699e-04       3.414980764002e-01 
       6.122441198393e-04       3.676625413100e-01 
       6.610859938837e-04       3.958147252304e-01 
       7.138242363583e-04       4.261013284917e-01 
       7.707696806873e-04       4.586787792354e-01 
       8.322579570814e-04       4.937136001343e-01 
       8.986514707061e-04       5.313826801402e-01 
       9.703415376577e-04       5.718734972157e-01 
       1.047750691338e-03       6.153841629505e-01 
       1.131335172818e-03       6.621233239466e-01 
       1.221587619877e-03       7.123098220428e-01 
       1.319039970550e-03       7.661720584731e-01 
       1.424266598317e-03       8.239546297732e-01 
       1.537887697396e-03       8.859011173466e-01 
       1.660572938097e-03       9.522588006419e-01 
       1.793045413791e-03       1.023280099819e+00 
       1.936085902737e-03       1.099216304579e+00 
       2.090537469909e-03       1.180312990453e+00 
       2.257310435923e-03       1.266804115852e+00 
       2.437387742372e-03       1.358904853405e+00 
       2.631830745176e-03       1.456802683156e+00 
       2.841785470091e-03       1.560646890522e+00 
       3.068489367268e-03       1.670536062501e+00 
       3.313278604643e-03       1.786503852160e+00 
       3.577595943165e-03       1.908502930788e+00 
       3.862999240274e-03       2.036387730709e+00 
       4.171170631739e-03       2.169896178782e+00 
       4.503926445983e-03       2.308631878994e+00 
       4.863227909323e-03       2.452047290962e+00 
       5.251192705226e-03       2.599430628088e+00 
       5.670107455699e-03       2.749896931769e+00 
       6.122441198393e-03       2.902386513386e+00 
       6.610859938837e-03       3.055668712709e+00 
       7.138242363583e-03       3.208356461547e+00 
       7.707696806873e-03       3.358923893025e+00 
       8.322579570814e-03       3.505725595192e+00 
       8.986514707061e-03       3.647009250663e+00 
       9.703415376577e-03       3.780923304325e+00 
       1.047750691338e-02       3.905490800464e+00 
       1.131335172818e-02       4.018587641328e+00 
       1.221587619877e-02       4.117901586299e+00 
       1.319039970550e-02       4.200915379590e+00 
       1.424266598317e-02       4.264942509308e+00 
       1.537887697392e-02       4.307220079757e+00 
       1.660572938023e-02       4.325063063811e+00 
       1.793045412706e-02       4.316059440784e+00 
       1.936085890181e-02       4.278229299079e+00 
       2.090537352463e-02       4.210203723915e+00 
       2.257309535333e-02       4.111419631775e+00 
       2.437382002918e-02       3.982417621305e+00 
       2.631799944462e-02       3.825164894043e+00 
       2.841644545389e-02       3.643276835554e+00 
       3.067933355377e-02       3.442195183271e+00 
       3.311368470740e-02       3.229254163463e+00 
       3.571840443502e-02       3.013515489852e+00 
       3.847720348444e-02       2.805288766960e+00 
       4.135335538431e-02       2.614415450546e+00 
       4.429361667738e-02       2.448133649929e+00 
       4.724366439141e-02       2.309234775989e+00 
       5.016480835311e-02       2.196114051034e+00 
       5.303989620246e-02       2.104367459834e+00 
       5.586870669566e-02       2.028461157664e+00 
       5.866042680613e-02       1.963153188231e+00 
       6.142798932958e-02       1.903778450449e+00 
       6.418496440164e-02       1.846478165132e+00 
       6.694418833788e-02       1.788200491873e+00 
       6.971731106057e-02       1.726717210805e+00 
       7.251476155766e-02       1.660653462775e+00 
       7.534587671527e-02       1.589472684221e+00 
       7.821907666265e-02       1.513439872672e+00 
       8.114203772912e-02       1.433567080208e+00 
       8.412184535029e-02       1.351490746419e+00 
       8.716512279304e-02       1.269274422513e+00 
       9.027813695930e-02       1.189192535054e+00 
       9.346688431697e-02       1.113503672033e+00 
       9.673716028276e-02       1.044171730015e+00 
       1.000946150830e-01       9.827050589751e-01 
       1.035447986537e-01       9.299384559805e-01 
       1.070931966762e-01       8.859589135283e-01 
       1.107452594425e-01       8.500711124402e-01 
       1.145064249153e-01       8.208031075163e-01 
       1.183821370918e-01       7.960239214738e-01 
       1.223778605862e-01       7.731448430406e-01 
       1.264990921987e-01       7.494512214485e-01 
       1.307513701367e-01       7.225571263503e-01 
       1.351402814784e-01       6.909089829459e-01 
       1.396714684203e-01       6.541815490004e-01 
       1.443506338194e-01       6.134275021465e-01 
       1.491835465229e-01       5.708680103983e-01 
       1.541760469708e-01       5.293637907649e-01 
       1.593340535561e-01       4.917109662820e-01 
       1.646635702297e-01       4.599201961650e-01 
       1.701706958456e-01       4.347293235600e-01 
       1.758616357459e-01       4.154077919444e-01 
       1.817427160982e-01       3.999365388564e-01 
       1.878204015065e-01       3.856828660160e-01 
       1.941013164283e-01       3.698089024209e-01 
       2.005922709503e-01       3.505466138229e-01 
       2.073002914972e-01       3.280438428875e-01 
       2.142326570816e-01       3.042137559900e-01 
       2.213969417533e-01       2.816124861104e-01 
       2.288010639706e-01       2.622571426250e-01 
       2.364533437147e-01       2.469624297115e-01 
       2.443625682930e-01       2.350128360859e-01 
       2.525380679504e-01       2.244179017623e-01 
       2.609898026346e-01       2.130943329902e-01 
       2.697284615565e-01       2.001014273011e-01 
       2.787655775689e-01       1.860195910572e-01 
       2.881136588829e-01       1.725173074335e-01 
       2.977863412677e-01       1.610663422928e-01 
       3.077985646929e-01       1.517609629354e-01 
       3.181667794071e-01       1.435593087420e-01 
       3.289091877812e-01       1.351816526686e-01 
       3.400460299658e-01       1.261645619401e-01 
       3.515999236474e-01       1.172022097995e-01 
       3.635962711085e-01       1.091771720468e-01 
       3.760637506334e-01       1.023094674104e-01 
       3.890349143879e-01       9.593757128757e-02 
       4.025469216825e-01       8.950764337895e-02 
       4.166424456376e-01       8.311180832074e-02 
       4.313708035863e-01       7.721542855909e-02 
       4.467893782977e-01       7.190060596996e-02 
       4.629654199664e-01       6.686925333113e-02 
       4.799783501994e-01       6.191751437132e-02 
       4.979227319373e-01       5.722248246395e-02 
       5.169121270864e-01       5.290304474208e-02 
       5.370841404489e-01       4.876996694217e-02 
       5.586070464571e-01       4.479087519902e-02 
       5.816885094930e-01       4.105192097513e-02 
       6.065870144995e-01       3.748990402768e-02 
       6.336266468475e-01       3.407643245451e-02 
       6.632156059511e-01       3.083461699877e-02 
       6.958678639263e-01       2.772837290721e-02 
       7.322247985589e-01       2.476715127318e-02 
       7.730680195114e-01       2.193966112342e-02 
       8.193049553677e-01       1.925612468944e-02 
       8.718988016039e-01       1.672928073417e-02 
       9.317218031082e-01       1.438422523022e-02 
       9.993660908989e-01       1.225067822476e-02 
       1.075037110174e+00       1.035259914308e-02 
       1.158653485707e+00       8.699740854525e-03 
       1.250099157308e+00       7.284568997721e-03 
       1.349432401273e+00       6.085454938385e-03 
       1.456947457397e+00       5.075724573193e-03 
       1.573135111331e+00       4.228307632098e-03 
       1.698621895592e+00       3.518536155126e-03 
       1.834127512934e+00       2.924982983633e-03 
       1.980444934528e+00       2.429164120040e-03 
       2.138435191726e+00       2.015508694784e-03 
       2.309029199186e+00       1.670765682644e-03 
       2.493232377687e+00       1.383790723672e-03 
       2.692130395285e+00       1.145127908376e-03 
       2.906895534573e+00       9.468561395893e-04 
       3.138793597714e+00       7.822894592129e-04 
       3.389191366484e+00       6.458223325000e-04 
       3.659564657905e+00       5.327689903094e-04 
       3.951507022538e+00       4.391852159975e-04 
       4.266739136701e+00       3.617886961844e-04 
       4.607118943941e+00       2.978277304494e-04 
       4.974652605557e+00       2.450129779844e-04 
       5.371506324689e+00       2.014371699149e-04 
       5.800019113685e+00       1.655066082841e-04 
       6.262716579983e+00       1.359039291160e-04 
       6.762325811764e+00       1.115301391499e-04 
       7.301791451110e+00       9.147558861398e-05 
       7.884293049406e+00       7.498665637769e-05 
       8.513263807261e+00       6.143623358368e-05 
       9.192410809424e+00       5.030828162912e-05 
       9.925736873929e+00       4.117497350366e-05 
       1.071756414427e+01       3.368316835611e-05 
       1.157255956364e+01       2.754144707755e-05 
       1.249576238137e+01       2.250892158649e-05 
       1.349261385375e+01       1.838748657435e-05 
       1.456898931416e+01       1.501413981890e-05 
       1.573123280165e+01       1.225429650400e-05 
       1.698619445202e+01       9.997500121280e-06 
       1.834127087176e+01       8.152961888557e-06 
       1.980444873285e+01       6.646107150377e-06 
       2.138435184532e+01       5.415616199270e-06 
       2.309029198506e+01       4.411229214822e-06 
       2.493232377636e+01       3.591764277983e-06 
       2.692130395282e+01       2.923421937316e-06 
       2.906895534573e+01       2.378609678737e-06 
       3.138793597714e+01       1.934623300820e-06 
       3.389191366484e+01       1.572954426270e-06 
       3.659564657905e+01       1.278452077775e-06 
       3.951507022538e+01       1.038750068525e-06 
       4.266739136701e+01       8.436836263623e-07 
       4.607118943941e+01       6.850273772020e-07 
       4.974652605557e+01       5.560110850787e-07 
       5.371506324689e+01       4.511381880065e-07 
       5.800019113685e+01       3.659176820021e-07 
       6.262716579983e+01       2.966889804071e-07 
       6.762325811764e+01       2.404684105153e-07 
