# Matter power spectrum P(k) at redshift z=0
# for k=1.04775e-05 to 67.6233 h/Mpc,
# number of wavenumbers equal to 246
#    1:k (h/Mpc)              2:P (Mpc/h)^3        
       1.047750691338e-05       5.020964806755e+01 
       1.131335172818e-05       5.407048206553e+01 
       1.221587619877e-05       5.822819063736e+01 
       1.319039970550e-05       6.270562589682e+01 
       1.424266598317e-05       6.752731788102e+01 
       1.537887697396e-05       7.271977200257e+01 
       1.660572938097e-05       7.831147241542e+01 
       1.793045413791e-05       8.433311815128e+01 
       1.936085902737e-05       9.081778242446e+01 
       2.090537469909e-05       9.780108061341e+01 
       2.257310435923e-05       1.053213197032e+02 
       2.437387742372e-05       1.134197377001e+02 
       2.631830745176e-05       1.221408202816e+02 
       2.841785470091e-05       1.315324720916e+02 
       3.068489367268e-05       1.416462093729e+02 
       3.313278604643e-05       1.525374500691e+02 
       3.577595943165e-05       1.642660687078e+02 
       3.862999240274e-05       1.768963504868e+02 
       4.171170631739e-05       1.904975992460e+02 
       4.503926445983e-05       2.051444490305e+02 
       4.863227909323e-05       2.209171463752e+02 
       5.251192705226e-05       2.379022222314e+02 
       5.670107455699e-05       2.561927925423e+02 
       6.122441198393e-05       2.758890441791e+02 
       6.610859938837e-05       2.970989225465e+02 
       7.138242363583e-05       3.199385558200e+02 
       7.707696806873e-05       3.445329780878e+02 
       8.322579570814e-05       3.710167315928e+02 
       8.986514707061e-05       3.995346440954e+02 
       9.703415376577e-05       4.302425403883e+02 
       1.047750691338e-04       4.633080762974e+02 
       1.131335172818e-04       4.989116267507e+02 
       1.221587619877e-04       5.372471946561e+02 
       1.319039970550e-04       5.785234124627e+02 
       1.424266598317e-04       6.229645930980e+02 
       1.537887697396e-04       6.708118484951e+02 
       1.660572938097e-04       7.223242660220e+02 
       1.793045413791e-04       7.777801553402e+02 
       1.936085902737e-04       8.374783607333e+02 
       2.090537469909e-04       9.017396264495e+02 
       2.257310435923e-04       9.709080260152e+02 
       2.437387742372e-04       1.045352448644e+03 
       2.631830745176e-04       1.125468122836e+03 
       2.841785470091e-04       1.211678179511e+03 
       3.068489367268e-04       1.304435249091e+03 
       3.313278604643e-04       1.404223052541e+03 
       3.577595943165e-04       1.511558013390e+03 
       3.862999240274e-04       1.626990836495e+03 
       4.171170631739e-04       1.751108027372e+03 
       4.503926445983e-04       1.884533381345e+03 
       4.863227909323e-04       2.027929376469e+03 
       5.251192705226e-04       2.181998446367e+03 
       5.670107455699e-04       2.347484100857e+03 
       6.122441198393e-04       2.525171869336e+03 
       6.610859938837e-04       2.715889981401e+03 
       7.138242363583e-04       2.920509686088e+03 
       7.707696806873e-04       3.139945097711e+03 
       8.322579570814e-04       3.375152334397e+03 
       8.986514707061e-04       3.627127828231e+03 
       9.703415376577e-04       3.896905450016e+03 
       1.047750691338e-03       4.185552170959e+03 
       1.131335172818e-03       4.494162426790e+03 
       1.221587619877e-03       4.823850702669e+03 
       1.319039970550e-03       5.175742736905e+03 
       1.424266598317e-03       5.551019592516e+03 
       1.537887697396e-03       5.950788335880e+03 
       1.660572938097e-03       6.376123046810e+03 
       1.793045413791e-03       6.828073896122e+03 
       1.936085902737e-03       7.307625375381e+03 
       2.090537469909e-03       7.815671858787e+03 
       2.257310435923e-03       8.352990369373e+03 
       2.437387742372e-03       8.920211057511e+03 
       2.631830745176e-03       9.517783061863e+03 
       2.841785470091e-03       1.014593703667e+04 
       3.068489367268e-03       1.080464505727e+04 
       3.313278604643e-03       1.149357459447e+04 
       3.577595943165e-03       1.221203620813e+04 
       3.862999240274e-03       1.295892538485e+04 
       4.171170631739e-03       1.373266002163e+04 
       4.503926445983e-03       1.453111834551e+04 
       4.863227909323e-03       1.535154984101e+04 
       5.251192705226e-03       1.619063612971e+04 
       5.670107455699e-03       1.704431256406e+04 
       6.122441198393e-03       1.790755938460e+04 
       6.610859938837e-03       1.877460421985e+04 
       7.138242363583e-03       1.963872429364e+04 
       7.707696806873e-03       2.049215711761e+04 
       8.322579570814e-03       2.132607232627e+04 
       8.986514707061e-03       2.213055180788e+04 
       9.703415376577e-03       2.289445471700e+04 
       1.047750691338e-02       2.360548532258e+04 
       1.131335172818e-02       2.425022847173e+04 
       1.221587619877e-02       2.481423917924e+04 
       1.319039970550e-02       2.528218614803e+04 
       1.424266598317e-02       2.563814649979e+04 
       1.537887697392e-02       2.586607278910e+04 
       1.660572938023e-02       2.595025836912e+04 
       1.793045412706e-02       2.587633510903e+04 
       1.936085890181e-02       2.563219992012e+04 
       2.090537352463e-02       2.520934510361e+04 
       2.257309535333e-02       2.460450202931e+04 
       2.437382002918e-02       2.382088567235e+04 
       2.631799944462e-02       2.287047154826e+04 
       2.841644545389e-02       2.177447246086e+04 
       3.067933355377e-02       2.056552572942e+04 
       3.311368470740e-02       1.928728144271e+04 
       3.571840443502e-02       1.799398896776e+04 
       3.847720348444e-02       1.674680648908e+04 
       4.135335538431e-02       1.560454971116e+04 
       4.429361667738e-02       1.461035527910e+04 
       4.724366439141e-02       1.378052918612e+04 
       5.016480835311e-02       1.310508496507e+04 
       5.303989620246e-02       1.255709513741e+04 
       5.586870669566e-02       1.210425629876e+04 
       5.866042680613e-02       1.171463828239e+04 
       6.142798932958e-02       1.136047110380e+04 
       6.418496440164e-02       1.101853952558e+04 
       6.694418833788e-02       1.067066052607e+04 
       6.971731106057e-02       1.030355195481e+04 
       7.251476155766e-02       9.908978103511e+03 
       7.534587671527e-02       9.483722758437e+03 
       7.821907666265e-02       9.029442595369e+03 
       8.114203772912e-02       8.552280190954e+03 
       8.412184535029e-02       8.061852853081e+03 
       8.716512279304e-02       7.570735840815e+03 
       9.027813695930e-02       7.092423311729e+03 
       9.346688431697e-02       6.640448269073e+03 
       9.673716028276e-02       6.226628490125e+03 
       1.000946150830e-01       5.859872233528e+03 
       1.035447986537e-01       5.545161341930e+03 
       1.070931966762e-01       5.283052564165e+03 
       1.107452594425e-01       5.069336541253e+03 
       1.145064249153e-01       4.895152318894e+03 
       1.183821370918e-01       4.747768360268e+03 
       1.223778605862e-01       4.611632222020e+03 
       1.264990921987e-01       4.470505195654e+03 
       1.307513701367e-01       4.310151332552e+03 
       1.351402814784e-01       4.121264247032e+03 
       1.396714684203e-01       3.901920467211e+03 
       1.443506338194e-01       3.658488296896e+03 
       1.491835465229e-01       3.404328552429e+03 
       1.541760469708e-01       3.156506536866e+03 
       1.593340535561e-01       2.931800392537e+03 
       1.646635702297e-01       2.742192689290e+03 
       1.701706958456e-01       2.592058531719e+03 
       1.758616357459e-01       2.477033401937e+03 
       1.817427160982e-01       2.384959864670e+03 
       1.878204015065e-01       2.300126062666e+03 
       1.941013164283e-01       2.205503197504e+03 
       2.005922709503e-01       2.090545228073e+03 
       2.073002914972e-01       1.956183784383e+03 
       2.142326570816e-01       1.813896100534e+03 
       2.213969417533e-01       1.678986138521e+03 
       2.288010639706e-01       1.563526846572e+03 
       2.364533437147e-01       1.472348422220e+03 
       2.443625682930e-01       1.401152991541e+03 
       2.525380679504e-01       1.338034664771e+03 
       2.609898026346e-01       1.270505147080e+03 
       2.697284615565e-01       1.192960979971e+03 
       2.787655775689e-01       1.108898506941e+03 
       2.881136588829e-01       1.028312666491e+03 
       2.977863412677e-01       9.600030058120e+02 
       3.077985646929e-01       9.045161266319e+02 
       3.181667794071e-01       8.556118350729e+02 
       3.289091877812e-01       8.056281634806e+02 
       3.400460299658e-01       7.518050884981e+02 
       3.515999236474e-01       6.983115645883e+02 
       3.635962711085e-01       6.504238814690e+02 
       3.760637506334e-01       6.094516103174e+02 
       3.890349143879e-01       5.714283957770e+02 
       4.025469216825e-01       5.330466717384e+02 
       4.166424456376e-01       4.948628596841e+02 
       4.313708035863e-01       4.596669250566e+02 
       4.467893782977e-01       4.279383469541e+02 
       4.629654199664e-01       3.978934920933e+02 
       4.799783501994e-01       3.683208864088e+02 
       4.979227319373e-01       3.402780199868e+02 
       5.169121270864e-01       3.144773956542e+02 
       5.370841404489e-01       2.897795783178e+02 
       5.586070464571e-01       2.660003450913e+02 
       5.816885094930e-01       2.436496413513e+02 
       6.065870144995e-01       2.223493661332e+02 
       6.336266468475e-01       2.019302647976e+02 
       6.632156059511e-01       1.825323895103e+02 
       6.958678639263e-01       1.639350156849e+02 
       7.322247985589e-01       1.461957829795e+02 
       7.730680195114e-01       1.292455757141e+02 
       8.193049553677e-01       1.131452691079e+02 
       8.718988016039e-01       9.796885610109e+01 
       9.317218031082e-01       8.386484135774e+01 
       9.993660908989e-01       7.101276070161e+01 
       1.075037110174e+00       5.955619637497e+01 
       1.158653485707e+00       4.955593802250e+01 
       1.250099157308e+00       4.097108528558e+01 
       1.349432401273e+00       3.367427812597e+01 
       1.456947457397e+00       2.751060136518e+01 
       1.573135111331e+00       2.232105785128e+01 
       1.698621895592e+00       1.796264876635e+01 
       1.834127512934e+00       1.431143074291e+01 
       1.980444934528e+00       1.126169503232e+01 
       2.138435191726e+00       8.725888300898e+00 
       2.309029199186e+00       6.630436017367e+00 
       2.493232377687e+00       4.914436684317e+00 
       2.692130395285e+00       3.526923694228e+00 
       2.906895534573e+00       2.425540295995e+00 
       3.138793597714e+00       1.573801314497e+00 
       3.389191366484e+00       9.398510675268e-01 
       3.659564657905e+00       4.942551798794e-01 
       3.951507022538e+00       2.085866562727e-01 
       4.266739136701e+00       5.413618118553e-02 
       4.607118943941e+00       1.131449898831e-03 
       4.974652605557e+00       1.882920708604e-02 
       5.371506324689e+00       7.648864550020e-02 
       5.800019113685e+00       1.453611078164e-01 
       6.262716579983e+00       2.014441412661e-01 
       6.762325811764e+00       2.284703164160e-01 
       7.301791451110e+00       2.202416187695e-01 
       7.884293049406e+00       1.812014005041e-01 
       8.513263807261e+00       1.244480188471e-01 
       9.192410809424e+00       6.710636973327e-02 
       9.925736873929e+00       2.415320249243e-02 
       1.071756414427e+01       2.943540690430e-03 
       1.157255956364e+01       1.030177265711e-03 
       1.249576238137e+01       8.709226175927e-03 
       1.349261385375e+01       1.518515630989e-02 
       1.456898931416e+01       1.473098549010e-02 
       1.573123280165e+01       8.770682005714e-03 
       1.698619445202e+01       2.632238528520e-03 
       1.834127087176e+01       6.631831491256e-05 
       1.980444873285e+01       5.478619152449e-04 
       2.138435184532e+01       1.314858630775e-03 
       2.309029198506e+01       9.581728960478e-04 
       2.493232377636e+01       2.215786450925e-04 
       2.692130395282e+01       2.412138957027e-06 
       2.906895534573e+01       1.060570035441e-04 
       3.138793597714e+01       8.951931931940e-05 
       3.389191366484e+01       1.041065820027e-05 
       3.659564657905e+01       4.656098257755e-06 
       3.951507022538e+01       1.050104915711e-05 
       4.266739136701e+01       1.361359261504e-06 
       4.607118943941e+01       5.819426294328e-07 
       4.974652605557e+01       7.105831511443e-07 
       5.371506324689e+01       1.677846417594e-11 
       5.800019113685e+01       1.126398121118e-07 
       6.262716579983e+01       5.300523687439e-09 
       6.762325811764e+01       7.866108617678e-09 
