# Matter power spectrum P(k) at redshift z=99
# for k=1.04775e-05 to 67.6233 h/Mpc,
# number of wavenumbers equal to 246
#    1:k (h/Mpc)              2:P (Mpc/h)^3        
       1.047750691338e-05       7.261927673119e-03 
       1.131335172818e-05       7.820331745737e-03 
       1.221587619877e-05       8.421675986488e-03 
       1.319039970550e-05       9.069258192194e-03 
       1.424266598317e-05       9.766638404421e-03 
       1.537887697396e-05       1.051764069682e-02 
       1.660572938097e-05       1.132639105520e-02 
       1.793045413791e-05       1.219733231416e-02 
       1.936085902737e-05       1.313524224380e-02 
       2.090537469909e-05       1.414527121893e-02 
       2.257310435923e-05       1.523296272192e-02 
       2.437387742372e-05       1.640429444530e-02 
       2.631830745176e-05       1.766569582177e-02 
       2.841785470091e-05       1.902408601793e-02 
       3.068489367268e-05       2.048692970591e-02 
       3.313278604643e-05       2.206225513594e-02 
       3.577595943165e-05       2.375870704909e-02 
       3.862999240274e-05       2.558560727479e-02 
       4.171170631739e-05       2.755297763344e-02 
       4.503926445983e-05       2.967161927314e-02 
       4.863227909323e-05       3.195316450832e-02 
       5.251192705226e-05       3.441013519284e-02 
       5.670107455699e-05       3.705601722526e-02 
       6.122441198393e-05       3.990533413563e-02 
       6.610859938837e-05       4.297372168203e-02 
       7.138242363583e-05       4.627802141688e-02 
       7.707696806873e-05       4.983636194159e-02 
       8.322579570814e-05       5.366826847231e-02 
       8.986514707061e-05       5.779476394569e-02 
       9.703415376577e-05       6.223848243885e-02 
       1.047750691338e-04       6.702379865640e-02 
       1.131335172818e-04       7.217695153381e-02 
       1.221587619877e-04       7.772619073570e-02 
       1.319039970550e-04       8.370193432376e-02 
       1.424266598317e-04       9.013692507546e-02 
       1.537887697396e-04       9.706641242570e-02 
       1.660572938097e-04       1.045283354271e-01 
       1.793045413791e-04       1.125635349068e-01 
       1.936085902737e-04       1.212159614968e-01 
       2.090537469909e-04       1.305329132714e-01 
       2.257310435923e-04       1.405652846215e-01 
       2.437387742372e-04       1.513678302540e-01 
       2.631830745176e-04       1.629994504871e-01 
       2.841785470091e-04       1.755234921224e-01 
       3.068489367268e-04       1.890080670413e-01 
       3.313278604643e-04       2.035264002435e-01 
       3.577595943165e-04       2.191571803681e-01 
       3.862999240274e-04       2.359849437593e-01 
       4.171170631739e-04       2.541004741539e-01 
       4.503926445983e-04       2.736012080278e-01 
       4.863227909323e-04       2.945916790965e-01 
       5.251192705226e-04       3.171839525182e-01 
       5.670107455699e-04       3.414980764002e-01 
       6.122441198393e-04       3.676625413100e-01 
       6.610859938837e-04       3.958147252303e-01 
       7.138242363583e-04       4.261013284916e-01 
       7.707696806873e-04       4.586787792354e-01 
       8.322579570814e-04       4.937136001343e-01 
       8.986514707061e-04       5.313826801402e-01 
       9.703415376577e-04       5.718734972157e-01 
       1.047750691338e-03       6.153841629505e-01 
       1.131335172818e-03       6.621233239466e-01 
       1.221587619877e-03       7.123098220430e-01 
       1.319039970550e-03       7.661720584408e-01 
       1.424266598317e-03       8.239546297732e-01 
       1.537887697396e-03       8.859011173466e-01 
       1.660572938097e-03       9.522588006423e-01 
       1.793045413791e-03       1.023280099819e+00 
       1.936085902737e-03       1.099216304579e+00 
       2.090537469909e-03       1.180312990453e+00 
       2.257310435923e-03       1.266804115852e+00 
       2.437387742372e-03       1.358904853406e+00 
       2.631830745176e-03       1.456802683156e+00 
       2.841785470091e-03       1.560646890522e+00 
       3.068489367268e-03       1.670536062500e+00 
       3.313278604643e-03       1.786503852164e+00 
       3.577595943165e-03       1.908502930789e+00 
       3.862999240274e-03       2.036387730709e+00 
       4.171170631739e-03       2.169896177705e+00 
       4.503926445983e-03       2.308631878994e+00 
       4.863227909323e-03       2.452047290962e+00 
       5.251192705226e-03       2.599430628088e+00 
       5.670107455699e-03       2.749896931862e+00 
       6.122441198393e-03       2.902386513386e+00 
       6.610859938837e-03       3.055668704051e+00 
       7.138242363583e-03       3.208356461544e+00 
       7.707696806873e-03       3.358923892415e+00 
       8.322579570814e-03       3.505725595403e+00 
       8.986514707061e-03       3.647009659182e+00 
       9.703415376577e-03       3.780923304303e+00 
       1.047750691338e-02       3.905490107736e+00 
       1.131335172818e-02       4.018587633444e+00 
       1.221587619877e-02       4.117901587921e+00 
       1.319039970550e-02       4.200915356049e+00 
       1.424266598317e-02       4.264946479269e+00 
       1.537887697392e-02       4.307219924109e+00 
       1.660572938023e-02       4.325060968283e+00 
       1.793045412706e-02       4.316054565512e+00 
       1.936085890181e-02       4.278226673439e+00 
       2.090537352463e-02       4.210203195263e+00 
       2.257309535333e-02       4.111419765757e+00 
       2.437382002918e-02       3.982407407855e+00 
       2.631799944462e-02       3.825168613255e+00 
       2.841644545389e-02       3.643286492421e+00 
       3.067933355377e-02       3.442191773119e+00 
       3.311368470740e-02       3.229241534489e+00 
       3.571840443502e-02       3.013506546240e+00 
       3.847720348444e-02       2.805285651480e+00 
       4.135335538431e-02       2.614391057469e+00 
       4.429361667738e-02       2.448130750616e+00 
       4.724366439141e-02       2.309235746789e+00 
       5.016480835311e-02       2.196114406763e+00 
       5.303989620246e-02       2.104367052555e+00 
       5.586870669566e-02       2.028460163842e+00 
       5.866042680613e-02       1.963153992019e+00 
       6.142798932958e-02       1.903775535816e+00 
       6.418496440164e-02       1.846481530545e+00 
       6.694418833788e-02       1.788193931401e+00 
       6.971731106057e-02       1.726713212955e+00 
       7.251476155766e-02       1.660654669701e+00 
       7.534587671527e-02       1.589470665672e+00 
       7.821907666265e-02       1.513440309508e+00 
       8.114203772912e-02       1.433569564052e+00 
       8.412184535029e-02       1.351490948290e+00 
       8.716512279304e-02       1.269275900326e+00 
       9.027813695930e-02       1.189194203168e+00 
       9.346688431697e-02       1.113502353862e+00 
       9.673716028276e-02       1.044174454286e+00 
       1.000946150830e-01       9.827067827734e-01 
       1.035447986537e-01       9.299391291189e-01 
       1.070931966762e-01       8.859584910830e-01 
       1.107452594425e-01       8.500707207642e-01 
       1.145064249153e-01       8.208028093867e-01 
       1.183821370918e-01       7.960264694336e-01 
       1.223778605862e-01       7.731446464221e-01 
       1.264990921987e-01       7.494516386626e-01 
       1.307513701367e-01       7.225582969400e-01 
       1.351402814784e-01       6.909084780055e-01 
       1.396714684203e-01       6.541821156816e-01 
       1.443506338194e-01       6.134259250283e-01 
       1.491835465229e-01       5.708674777922e-01 
       1.541760469708e-01       5.293635237040e-01 
       1.593340535561e-01       4.917113462565e-01 
       1.646635702297e-01       4.599201102577e-01 
       1.701706958456e-01       4.347281820328e-01 
       1.758616357459e-01       4.154076699592e-01 
       1.817427160982e-01       3.999380881187e-01 
       1.878204015065e-01       3.856830261562e-01 
       1.941013164283e-01       3.698102106841e-01 
       2.005922709503e-01       3.505457848517e-01 
       2.073002914972e-01       3.280435887804e-01 
       2.142326570816e-01       3.042137355614e-01 
       2.213969417533e-01       2.816119277835e-01 
       2.288010639706e-01       2.622566029029e-01 
       2.364533437147e-01       2.469623403017e-01 
       2.443625682930e-01       2.350125691427e-01 
       2.525380679504e-01       2.244179260063e-01 
       2.609898026346e-01       2.130937129053e-01 
       2.697284615565e-01       2.001015029982e-01 
       2.787655775689e-01       1.860203102836e-01 
       2.881136588829e-01       1.725176363807e-01 
       2.977863412677e-01       1.610661768271e-01 
       3.077985646929e-01       1.517609195760e-01 
       3.181667794071e-01       1.435592255269e-01 
       3.289091877812e-01       1.351817139754e-01 
       3.400460299658e-01       1.261644859188e-01 
       3.515999236474e-01       1.172020872792e-01 
       3.635962711085e-01       1.091770208338e-01 
       3.760637506334e-01       1.023095145769e-01 
       3.890349143879e-01       9.593767635252e-02 
       4.025469216825e-01       8.950805201042e-02 
       4.166424456376e-01       8.311182695177e-02 
       4.313708035863e-01       7.721557872399e-02 
       4.467893782977e-01       7.190088324826e-02 
       4.629654199664e-01       6.686906473188e-02 
       4.799783501994e-01       6.191760366920e-02 
       4.979227319373e-01       5.722229338150e-02 
       5.169121270864e-01       5.290280897160e-02 
       5.370841404489e-01       4.876972453553e-02 
       5.586070464571e-01       4.479081748539e-02 
       5.816885094930e-01       4.105200068392e-02 
       6.065870144995e-01       3.748984621087e-02 
       6.336266468475e-01       3.407638901653e-02 
       6.632156059511e-01       3.083478274058e-02 
       6.958678639263e-01       2.772836796283e-02 
       7.322247985589e-01       2.476715111493e-02 
       7.730680195114e-01       2.193960947789e-02 
       8.193049553677e-01       1.925606820938e-02 
       8.718988016039e-01       1.672935066617e-02 
       9.317218031082e-01       1.438416485244e-02 
       9.993660908989e-01       1.225069671007e-02 
       1.075037110174e+00       1.035259023550e-02 
       1.158653485707e+00       8.699727706472e-03 
       1.250099157308e+00       7.284572329176e-03 
       1.349432401273e+00       6.085448450800e-03 
       1.456947457397e+00       5.075728515879e-03 
       1.573135111331e+00       4.228300719495e-03 
       1.698621895592e+00       3.518551176811e-03 
       1.834127512934e+00       2.924974245198e-03 
       1.980444934528e+00       2.429150064677e-03 
       2.138435191726e+00       2.015503865166e-03 
       2.309029199186e+00       1.670770488937e-03 
       2.493232377687e+00       1.383791540954e-03 
       2.692130395285e+00       1.145125810429e-03 
       2.906895534573e+00       9.468587493450e-04 
       3.138793597714e+00       7.822897589721e-04 
       3.389191366484e+00       6.458213778385e-04 
       3.659564657905e+00       5.327668914485e-04 
       3.951507022538e+00       4.391836994723e-04 
       4.266739136701e+00       3.617848903277e-04 
       4.607118943941e+00       2.978244317739e-04 
       4.974652605557e+00       2.450085996220e-04 
       5.371506324689e+00       2.014318434518e-04 
       5.800019113685e+00       1.655019906866e-04 
       6.262716579983e+00       1.358973907529e-04 
       6.762325811764e+00       1.115244628882e-04 
       7.301791451110e+00       9.146972780711e-05 
       7.884293049406e+00       7.497941703205e-05 
       8.513263807261e+00       6.142887853433e-05 
       9.192410809424e+00       5.030079464281e-05 
       9.925736873929e+00       4.116701788989e-05 
       1.071756414427e+01       3.367440351069e-05 
       1.157255956364e+01       2.753191925965e-05 
       1.249576238137e+01       2.249908397357e-05 
       1.349261385375e+01       1.837693321392e-05 
       1.456898931416e+01       1.500280609995e-05 
       1.573123280165e+01       1.224233406989e-05 
       1.698619445202e+01       9.984844050277e-06 
       1.834127087176e+01       8.139502274159e-06 
       1.980444873285e+01       6.631812721345e-06 
       2.138435184532e+01       5.400436344930e-06 
       2.309029198506e+01       4.395123955108e-06 
       2.493232377636e+01       3.574772833848e-06 
       2.692130395282e+01       2.905487294138e-06 
       2.906895534573e+01       2.359654567734e-06 
       3.138793597714e+01       1.914671436877e-06 
       3.389191366484e+01       1.551964101683e-06 
       3.659564657905e+01       1.256422412894e-06 
       3.951507022538e+01       1.015636967995e-06 
       4.266739136701e+01       8.195240287620e-07 
       4.607118943941e+01       6.598187883068e-07 
       4.974652605557e+01       5.297819050084e-07 
       5.371506324689e+01       4.239365923670e-07 
       5.800019113685e+01       3.378041869252e-07 
       6.262716579983e+01       2.677486237299e-07 
       6.762325811764e+01       2.108126782068e-07 
