# Matter power spectrum P(k) at redshift z=99
# for k=1.04775e-05 to 67.6233 h/Mpc,
# number of wavenumbers equal to 246
#    1:k (h/Mpc)              2:P (Mpc/h)^3        
       1.047750691338e-05       7.261927673119e-03 
       1.131335172818e-05       7.820331745737e-03 
       1.221587619877e-05       8.421675986488e-03 
       1.319039970550e-05       9.069258192194e-03 
       1.424266598317e-05       9.766638404421e-03 
       1.537887697396e-05       1.051764069682e-02 
       1.660572938097e-05       1.132639105520e-02 
       1.793045413791e-05       1.219733231416e-02 
       1.936085902737e-05       1.313524224380e-02 
       2.090537469909e-05       1.414527121893e-02 
       2.257310435923e-05       1.523296272192e-02 
       2.437387742372e-05       1.640429444530e-02 
       2.631830745176e-05       1.766569582178e-02 
       2.841785470091e-05       1.902408601793e-02 
       3.068489367268e-05       2.048692970591e-02 
       3.313278604643e-05       2.206225513594e-02 
       3.577595943165e-05       2.375870704909e-02 
       3.862999240274e-05       2.558560727479e-02 
       4.171170631739e-05       2.755297763344e-02 
       4.503926445983e-05       2.967161927316e-02 
       4.863227909323e-05       3.195316450832e-02 
       5.251192705226e-05       3.441013519284e-02 
       5.670107455699e-05       3.705601722522e-02 
       6.122441198393e-05       3.990533413563e-02 
       6.610859938837e-05       4.297372168203e-02 
       7.138242363583e-05       4.627802141688e-02 
       7.707696806873e-05       4.983636194159e-02 
       8.322579570814e-05       5.366826847231e-02 
       8.986514707061e-05       5.779476394568e-02 
       9.703415376577e-05       6.223848243885e-02 
       1.047750691338e-04       6.702379865640e-02 
       1.131335172818e-04       7.217695153381e-02 
       1.221587619877e-04       7.772619073571e-02 
       1.319039970550e-04       8.370193432376e-02 
       1.424266598317e-04       9.013692507548e-02 
       1.537887697396e-04       9.706641242570e-02 
       1.660572938097e-04       1.045283354271e-01 
       1.793045413791e-04       1.125635349068e-01 
       1.936085902737e-04       1.212159614968e-01 
       2.090537469909e-04       1.305329132714e-01 
       2.257310435923e-04       1.405652846215e-01 
       2.437387742372e-04       1.513678302540e-01 
       2.631830745176e-04       1.629994504871e-01 
       2.841785470091e-04       1.755234921224e-01 
       3.068489367268e-04       1.890080670413e-01 
       3.313278604643e-04       2.035264002435e-01 
       3.577595943165e-04       2.191571803681e-01 
       3.862999240274e-04       2.359849437593e-01 
       4.171170631739e-04       2.541004741539e-01 
       4.503926445983e-04       2.736012080277e-01 
       4.863227909323e-04       2.945916790965e-01 
       5.251192705226e-04       3.171839525182e-01 
       5.670107455699e-04       3.414980764002e-01 
       6.122441198393e-04       3.676625413100e-01 
       6.610859938837e-04       3.958147252304e-01 
       7.138242363583e-04       4.261013284908e-01 
       7.707696806873e-04       4.586787792351e-01 
       8.322579570814e-04       4.937136001376e-01 
       8.986514707061e-04       5.313826801401e-01 
       9.703415376577e-04       5.718734972157e-01 
       1.047750691338e-03       6.153841629505e-01 
       1.131335172818e-03       6.621233239466e-01 
       1.221587619877e-03       7.123098220427e-01 
       1.319039970550e-03       7.661720584619e-01 
       1.424266598317e-03       8.239546297730e-01 
       1.537887697396e-03       8.859011173466e-01 
       1.660572938097e-03       9.522588006418e-01 
       1.793045413791e-03       1.023280099819e+00 
       1.936085902737e-03       1.099216304579e+00 
       2.090537469909e-03       1.180312990452e+00 
       2.257310435923e-03       1.266804115852e+00 
       2.437387742372e-03       1.358904853404e+00 
       2.631830745176e-03       1.456802683156e+00 
       2.841785470091e-03       1.560646890522e+00 
       3.068489367268e-03       1.670536062500e+00 
       3.313278604643e-03       1.786503852159e+00 
       3.577595943165e-03       1.908502930790e+00 
       3.862999240274e-03       2.036387730709e+00 
       4.171170631739e-03       2.169896178196e+00 
       4.503926445983e-03       2.308631878994e+00 
       4.863227909323e-03       2.452047290962e+00 
       5.251192705226e-03       2.599430628088e+00 
       5.670107455699e-03       2.749896931808e+00 
       6.122441198393e-03       2.902386513385e+00 
       6.610859938837e-03       3.055668686006e+00 
       7.138242363583e-03       3.208356461547e+00 
       7.707696806873e-03       3.358923892740e+00 
       8.322579570814e-03       3.505725595412e+00 
       8.986514707061e-03       3.647009248642e+00 
       9.703415376577e-03       3.780923304332e+00 
       1.047750691338e-02       3.905491508742e+00 
       1.131335172818e-02       4.018588023704e+00 
       1.221587619877e-02       4.117901584551e+00 
       1.319039970550e-02       4.200915488890e+00 
       1.424266598317e-02       4.264942047379e+00 
       1.537887697392e-02       4.307221368157e+00 
       1.660572938023e-02       4.325067005069e+00 
       1.793045412706e-02       4.316062540107e+00 
       1.936085890181e-02       4.278226796031e+00 
       2.090537352463e-02       4.210202200950e+00 
       2.257309535333e-02       4.111417457416e+00 
       2.437382002918e-02       3.982414963633e+00 
       2.631799944462e-02       3.825167560475e+00 
       2.841644545389e-02       3.643282642236e+00 
       3.067933355377e-02       3.442199169884e+00 
       3.311368470740e-02       3.229233340743e+00 
       3.571840443502e-02       3.013509710796e+00 
       3.847720348444e-02       2.805280196479e+00 
       4.135335538431e-02       2.614412054471e+00 
       4.429361667738e-02       2.448135675509e+00 
       4.724366439141e-02       2.309232089151e+00 
       5.016480835311e-02       2.196112865762e+00 
       5.303989620246e-02       2.104370833441e+00 
       5.586870669566e-02       2.028459881235e+00 
       5.866042680613e-02       1.963153554208e+00 
       6.142798932958e-02       1.903780048362e+00 
       6.418496440164e-02       1.846479276119e+00 
       6.694418833788e-02       1.788196969790e+00 
       6.971731106057e-02       1.726717468545e+00 
       7.251476155766e-02       1.660652152785e+00 
       7.534587671527e-02       1.589470230997e+00 
       7.821907666265e-02       1.513438381379e+00 
       8.114203772912e-02       1.433569750357e+00 
       8.412184535029e-02       1.351494662632e+00 
       8.716512279304e-02       1.269274655342e+00 
       9.027813695930e-02       1.189190580079e+00 
       9.346688431697e-02       1.113498748447e+00 
       9.673716028276e-02       1.044177350431e+00 
       1.000946150830e-01       9.827067880195e-01 
       1.035447986537e-01       9.299377467662e-01 
       1.070931966762e-01       8.859595236516e-01 
       1.107452594425e-01       8.500706483179e-01 
       1.145064249153e-01       8.208034404558e-01 
       1.183821370918e-01       7.960244878150e-01 
       1.223778605862e-01       7.731453102254e-01 
       1.264990921987e-01       7.494501130518e-01 
       1.307513701367e-01       7.225580204283e-01 
       1.351402814784e-01       6.909082874808e-01 
       1.396714684203e-01       6.541820786611e-01 
       1.443506338194e-01       6.134273162455e-01 
       1.491835465229e-01       5.708683420537e-01 
       1.541760469708e-01       5.293640845143e-01 
       1.593340535561e-01       4.917111845590e-01 
       1.646635702297e-01       4.599206722513e-01 
       1.701706958456e-01       4.347283547954e-01 
       1.758616357459e-01       4.154084263141e-01 
       1.817427160982e-01       3.999372559256e-01 
       1.878204015065e-01       3.856827875155e-01 
       1.941013164283e-01       3.698097261070e-01 
       2.005922709503e-01       3.505468327572e-01 
       2.073002914972e-01       3.280430416324e-01 
       2.142326570816e-01       3.042138215264e-01 
       2.213969417533e-01       2.816122397530e-01 
       2.288010639706e-01       2.622577273487e-01 
       2.364533437147e-01       2.469618721103e-01 
       2.443625682930e-01       2.350135102175e-01 
       2.525380679504e-01       2.244175299293e-01 
       2.609898026346e-01       2.130948171909e-01 
       2.697284615565e-01       2.001017161465e-01 
       2.787655775689e-01       1.860199894588e-01 
       2.881136588829e-01       1.725169538632e-01 
       2.977863412677e-01       1.610658630787e-01 
       3.077985646929e-01       1.517610953356e-01 
       3.181667794071e-01       1.435593803516e-01 
       3.289091877812e-01       1.351810880899e-01 
       3.400460299658e-01       1.261643395714e-01 
       3.515999236474e-01       1.172022705021e-01 
       3.635962711085e-01       1.091767894088e-01 
       3.760637506334e-01       1.023094514480e-01 
       3.890349143879e-01       9.593759020869e-02 
       4.025469216825e-01       8.950785486125e-02 
       4.166424456376e-01       8.311174482468e-02 
       4.313708035863e-01       7.721576481703e-02 
       4.467893782977e-01       7.190056137701e-02 
       4.629654199664e-01       6.686897220525e-02 
       4.799783501994e-01       6.191773446641e-02 
       4.979227319373e-01       5.722246595958e-02 
       5.169121270864e-01       5.290286259299e-02 
       5.370841404489e-01       4.876965547222e-02 
       5.586070464571e-01       4.479083342908e-02 
       5.816885094930e-01       4.105181112011e-02 
       6.065870144995e-01       3.749001256610e-02 
       6.336266468475e-01       3.407636326580e-02 
       6.632156059511e-01       3.083462945370e-02 
       6.958678639263e-01       2.772836838384e-02 
       7.322247985589e-01       2.476709805279e-02 
       7.730680195114e-01       2.193958917933e-02 
       8.193049553677e-01       1.925612686057e-02 
       8.718988016039e-01       1.672927103000e-02 
       9.317218031082e-01       1.438422390326e-02 
       9.993660908989e-01       1.225067483387e-02 
       1.075037110174e+00       1.035259607503e-02 
       1.158653485707e+00       8.699734892182e-03 
       1.250099157308e+00       7.284600261363e-03 
       1.349432401273e+00       6.085467584812e-03 
       1.456947457397e+00       5.075720521525e-03 
       1.573135111331e+00       4.228314008127e-03 
       1.698621895592e+00       3.518542912314e-03 
       1.834127512934e+00       2.924965725091e-03 
       1.980444934528e+00       2.429151841410e-03 
       2.138435191726e+00       2.015498687356e-03 
       2.309029199186e+00       1.670764306007e-03 
       2.493232377687e+00       1.383791817516e-03 
       2.692130395285e+00       1.145125503934e-03 
       2.906895534573e+00       9.468480596421e-04 
       3.138793597714e+00       7.822795654903e-04 
       3.389191366484e+00       6.458087115275e-04 
       3.659564657905e+00       5.327557942582e-04 
       3.951507022538e+00       4.391718785699e-04 
       4.266739136701e+00       3.617760302637e-04 
       4.607118943941e+00       2.978138300350e-04 
       4.974652605557e+00       2.449966714827e-04 
       5.371506324689e+00       2.014193277746e-04 
       5.800019113685e+00       1.654873694358e-04 
       6.262716579983e+00       1.358827959530e-04 
       6.762325811764e+00       1.115072111378e-04 
       7.301791451110e+00       9.145155673331e-05 
       7.884293049406e+00       7.496031972201e-05 
       8.513263807261e+00       6.140880686487e-05 
       9.192410809424e+00       5.027857603363e-05 
       9.925736873929e+00       4.114336542371e-05 
       1.071756414427e+01       3.364935042967e-05 
       1.157255956364e+01       2.750540952424e-05 
       1.249576238137e+01       2.247041725060e-05 
       1.349261385375e+01       1.834664287330e-05 
       1.456898931416e+01       1.497081437265e-05 
       1.573123280165e+01       1.220837569390e-05 
       1.698619445202e+01       9.948883838736e-06 
       1.834127087176e+01       8.101504681593e-06 
       1.980444873285e+01       6.591742566185e-06 
       2.138435184532e+01       5.358181484192e-06 
       2.309029198506e+01       4.350736325636e-06 
       2.493232377636e+01       3.528149444585e-06 
       2.692130395282e+01       2.856689004395e-06 
       2.906895534573e+01       2.308717112262e-06 
       3.138793597714e+01       1.861626762885e-06 
       3.389191366484e+01       1.496937929000e-06 
       3.659564657905e+01       1.199500840529e-06 
       3.951507022538e+01       9.570504703334e-07 
       4.266739136701e+01       7.594942205026e-07 
       4.607118943941e+01       5.986641070210e-07 
       4.974652605557e+01       4.678822864303e-07 
       5.371506324689e+01       3.617702927875e-07 
       5.800019113685e+01       2.759332656603e-07 
       6.262716579983e+01       2.068265546598e-07 
       6.762325811764e+01       1.515873516524e-07 
