# Matter power spectrum P(k) at redshift z=99
# for k=1.04775e-05 to 67.6233 h/Mpc,
# number of wavenumbers equal to 246
#    1:k (h/Mpc)              2:P (Mpc/h)^3        
       1.047750691338e-05       7.261927673119e-03 
       1.131335172818e-05       7.820331745737e-03 
       1.221587619877e-05       8.421675986488e-03 
       1.319039970550e-05       9.069258192194e-03 
       1.424266598317e-05       9.766638404421e-03 
       1.537887697396e-05       1.051764069682e-02 
       1.660572938097e-05       1.132639105520e-02 
       1.793045413791e-05       1.219733231416e-02 
       1.936085902737e-05       1.313524224380e-02 
       2.090537469909e-05       1.414527121893e-02 
       2.257310435923e-05       1.523296272192e-02 
       2.437387742372e-05       1.640429444530e-02 
       2.631830745176e-05       1.766569582177e-02 
       2.841785470091e-05       1.902408601793e-02 
       3.068489367268e-05       2.048692970591e-02 
       3.313278604643e-05       2.206225513594e-02 
       3.577595943165e-05       2.375870704909e-02 
       3.862999240274e-05       2.558560727479e-02 
       4.171170631739e-05       2.755297763344e-02 
       4.503926445983e-05       2.967161927315e-02 
       4.863227909323e-05       3.195316450832e-02 
       5.251192705226e-05       3.441013519284e-02 
       5.670107455699e-05       3.705601722527e-02 
       6.122441198393e-05       3.990533413562e-02 
       6.610859938837e-05       4.297372168203e-02 
       7.138242363583e-05       4.627802141688e-02 
       7.707696806873e-05       4.983636194159e-02 
       8.322579570814e-05       5.366826847231e-02 
       8.986514707061e-05       5.779476394568e-02 
       9.703415376577e-05       6.223848243885e-02 
       1.047750691338e-04       6.702379865640e-02 
       1.131335172818e-04       7.217695153381e-02 
       1.221587619877e-04       7.772619073572e-02 
       1.319039970550e-04       8.370193432376e-02 
       1.424266598317e-04       9.013692507545e-02 
       1.537887697396e-04       9.706641242570e-02 
       1.660572938097e-04       1.045283354271e-01 
       1.793045413791e-04       1.125635349068e-01 
       1.936085902737e-04       1.212159614968e-01 
       2.090537469909e-04       1.305329132714e-01 
       2.257310435923e-04       1.405652846215e-01 
       2.437387742372e-04       1.513678302540e-01 
       2.631830745176e-04       1.629994504871e-01 
       2.841785470091e-04       1.755234921224e-01 
       3.068489367268e-04       1.890080670413e-01 
       3.313278604643e-04       2.035264002435e-01 
       3.577595943165e-04       2.191571803681e-01 
       3.862999240274e-04       2.359849437593e-01 
       4.171170631739e-04       2.541004741539e-01 
       4.503926445983e-04       2.736012080277e-01 
       4.863227909323e-04       2.945916790965e-01 
       5.251192705226e-04       3.171839525183e-01 
       5.670107455699e-04       3.414980764002e-01 
       6.122441198393e-04       3.676625413100e-01 
       6.610859938837e-04       3.958147252304e-01 
       7.138242363583e-04       4.261013284917e-01 
       7.707696806873e-04       4.586787792355e-01 
       8.322579570814e-04       4.937136001343e-01 
       8.986514707061e-04       5.313826801401e-01 
       9.703415376577e-04       5.718734972157e-01 
       1.047750691338e-03       6.153841629505e-01 
       1.131335172818e-03       6.621233239466e-01 
       1.221587619877e-03       7.123098220427e-01 
       1.319039970550e-03       7.661720584545e-01 
       1.424266598317e-03       8.239546297731e-01 
       1.537887697396e-03       8.859011173467e-01 
       1.660572938097e-03       9.522588006422e-01 
       1.793045413791e-03       1.023280099819e+00 
       1.936085902737e-03       1.099216304579e+00 
       2.090537469909e-03       1.180312990454e+00 
       2.257310435923e-03       1.266804115853e+00 
       2.437387742372e-03       1.358904853403e+00 
       2.631830745176e-03       1.456802683156e+00 
       2.841785470091e-03       1.560646890522e+00 
       3.068489367268e-03       1.670536062500e+00 
       3.313278604643e-03       1.786503852161e+00 
       3.577595943165e-03       1.908502930789e+00 
       3.862999240274e-03       2.036387730709e+00 
       4.171170631739e-03       2.169896178852e+00 
       4.503926445983e-03       2.308631878994e+00 
       4.863227909323e-03       2.452047290962e+00 
       5.251192705226e-03       2.599430628088e+00 
       5.670107455699e-03       2.749896931862e+00 
       6.122441198393e-03       2.902386513384e+00 
       6.610859938837e-03       3.055668672694e+00 
       7.138242363583e-03       3.208356461544e+00 
       7.707696806873e-03       3.358923892506e+00 
       8.322579570814e-03       3.505725271473e+00 
       8.986514707061e-03       3.647009250806e+00 
       9.703415376577e-03       3.780923304311e+00 
       1.047750691338e-02       3.905490596540e+00 
       1.131335172818e-02       4.018587641325e+00 
       1.221587619877e-02       4.117901590056e+00 
       1.319039970550e-02       4.200915352625e+00 
       1.424266598317e-02       4.264942351116e+00 
       1.537887697392e-02       4.307218211413e+00 
       1.660572938023e-02       4.325059315405e+00 
       1.793045412706e-02       4.316057836604e+00 
       1.936085890181e-02       4.278226604491e+00 
       2.090537352463e-02       4.210201063017e+00 
       2.257309535333e-02       4.111418052578e+00 
       2.437382002918e-02       3.982415681318e+00 
       2.631799944462e-02       3.825168499526e+00 
       2.841644545389e-02       3.643285423000e+00 
       3.067933355377e-02       3.442193833542e+00 
       3.311368470740e-02       3.229240110352e+00 
       3.571840443502e-02       3.013518371604e+00 
       3.847720348444e-02       2.805284059311e+00 
       4.135335538431e-02       2.614417011711e+00 
       4.429361667738e-02       2.448128434244e+00 
       4.724366439141e-02       2.309237156543e+00 
       5.016480835311e-02       2.196112560820e+00 
       5.303989620246e-02       2.104366375699e+00 
       5.586870669566e-02       2.028459929553e+00 
       5.866042680613e-02       1.963152321371e+00 
       6.142798932958e-02       1.903781647633e+00 
       6.418496440164e-02       1.846474376728e+00 
       6.694418833788e-02       1.788196530142e+00 
       6.971731106057e-02       1.726713606715e+00 
       7.251476155766e-02       1.660652595740e+00 
       7.534587671527e-02       1.589472598147e+00 
       7.821907666265e-02       1.513441871265e+00 
       8.114203772912e-02       1.433570340038e+00 
       8.412184535029e-02       1.351491098107e+00 
       8.716512279304e-02       1.269274726387e+00 
       9.027813695930e-02       1.189191609195e+00 
       9.346688431697e-02       1.113501233608e+00 
       9.673716028276e-02       1.044177451415e+00 
       1.000946150830e-01       9.827069495101e-01 
       1.035447986537e-01       9.299440718865e-01 
       1.070931966762e-01       8.859603769413e-01 
       1.107452594425e-01       8.500713655123e-01 
       1.145064249153e-01       8.208043714383e-01 
       1.183821370918e-01       7.960247276125e-01 
       1.223778605862e-01       7.731465551706e-01 
       1.264990921987e-01       7.494494770735e-01 
       1.307513701367e-01       7.225581717434e-01 
       1.351402814784e-01       6.909083299253e-01 
       1.396714684203e-01       6.541793959727e-01 
       1.443506338194e-01       6.134265517893e-01 
       1.491835465229e-01       5.708682378569e-01 
       1.541760469708e-01       5.293641688394e-01 
       1.593340535561e-01       4.917111148928e-01 
       1.646635702297e-01       4.599202675558e-01 
       1.701706958456e-01       4.347293648088e-01 
       1.758616357459e-01       4.154082062872e-01 
       1.817427160982e-01       3.999366019730e-01 
       1.878204015065e-01       3.856828044844e-01 
       1.941013164283e-01       3.698095492660e-01 
       2.005922709503e-01       3.505457618476e-01 
       2.073002914972e-01       3.280439217949e-01 
       2.142326570816e-01       3.042142036004e-01 
       2.213969417533e-01       2.816118752649e-01 
       2.288010639706e-01       2.622571171219e-01 
       2.364533437147e-01       2.469620438183e-01 
       2.443625682930e-01       2.350132243004e-01 
       2.525380679504e-01       2.244179016638e-01 
       2.609898026346e-01       2.130937497670e-01 
       2.697284615565e-01       2.001016344651e-01 
       2.787655775689e-01       1.860199341711e-01 
       2.881136588829e-01       1.725173669063e-01 
       2.977863412677e-01       1.610665881199e-01 
       3.077985646929e-01       1.517614109619e-01 
       3.181667794071e-01       1.435595630468e-01 
       3.289091877812e-01       1.351814721533e-01 
       3.400460299658e-01       1.261642968990e-01 
       3.515999236474e-01       1.172022988456e-01 
       3.635962711085e-01       1.091772179978e-01 
       3.760637506334e-01       1.023095434804e-01 
       3.890349143879e-01       9.593766372691e-02 
       4.025469216825e-01       8.950774453731e-02 
       4.166424456376e-01       8.311182847882e-02 
       4.313708035863e-01       7.721552066907e-02 
       4.467893782977e-01       7.190065588926e-02 
       4.629654199664e-01       6.686901819021e-02 
       4.799783501994e-01       6.191749086171e-02 
       4.979227319373e-01       5.722218810217e-02 
       5.169121270864e-01       5.290293432063e-02 
       5.370841404489e-01       4.876982598369e-02 
       5.586070464571e-01       4.479077150789e-02 
       5.816885094930e-01       4.105190981281e-02 
       6.065870144995e-01       3.748996336446e-02 
       6.336266468475e-01       3.407631851547e-02 
       6.632156059511e-01       3.083460886417e-02 
       6.958678639263e-01       2.772827451505e-02 
       7.322247985589e-01       2.476714646979e-02 
       7.730680195114e-01       2.193964083266e-02 
       8.193049553677e-01       1.925614383405e-02 
       8.718988016039e-01       1.672933975265e-02 
       9.317218031082e-01       1.438424296351e-02 
       9.993660908989e-01       1.225069159724e-02 
       1.075037110174e+00       1.035261210062e-02 
       1.158653485707e+00       8.699743243074e-03 
       1.250099157308e+00       7.284599173332e-03 
       1.349432401273e+00       6.085471414340e-03 
       1.456947457397e+00       5.075731448101e-03 
       1.573135111331e+00       4.228305411603e-03 
       1.698621895592e+00       3.518559586792e-03 
       1.834127512934e+00       2.924982741543e-03 
       1.980444934528e+00       2.429155312726e-03 
       2.138435191726e+00       2.015508861852e-03 
       2.309029199186e+00       1.670773907654e-03 
       2.493232377687e+00       1.383797463365e-03 
       2.692130395285e+00       1.145131565579e-03 
       2.906895534573e+00       9.468585228061e-04 
       3.138793597714e+00       7.822897287142e-04 
       3.389191366484e+00       6.458249136337e-04 
       3.659564657905e+00       5.327732684421e-04 
       3.951507022538e+00       4.391850141184e-04 
       4.266739136701e+00       3.617897439812e-04 
       4.607118943941e+00       2.978287718507e-04 
       4.974652605557e+00       2.450139407159e-04 
       5.371506324689e+00       2.014358970569e-04 
       5.800019113685e+00       1.655079219698e-04 
       6.262716579983e+00       1.359040331998e-04 
       6.762325811764e+00       1.115307760942e-04 
       7.301791451110e+00       9.147578903858e-05 
       7.884293049406e+00       7.498657615776e-05 
       8.513263807261e+00       6.143598355088e-05 
       9.192410809424e+00       5.030825967254e-05 
       9.925736873929e+00       4.117505226962e-05 
       1.071756414427e+01       3.368321790288e-05 
       1.157255956364e+01       2.754135413787e-05 
       1.249576238137e+01       2.250900893687e-05 
       1.349261385375e+01       1.838754381728e-05 
       1.456898931416e+01       1.501413531498e-05 
       1.573123280165e+01       1.225437670680e-05 
       1.698619445202e+01       9.997605948818e-06 
       1.834127087176e+01       8.153168122309e-06 
       1.980444873285e+01       6.646210594191e-06 
       2.138435184532e+01       5.415720142928e-06 
       2.309029198506e+01       4.411307657857e-06 
       2.493232377636e+01       3.591866027718e-06 
       2.692130395282e+01       2.923582658585e-06 
       2.906895534573e+01       2.378742041284e-06 
       3.138793597714e+01       1.934763042429e-06 
       3.389191366484e+01       1.573098065949e-06 
       3.659564657905e+01       1.278614685990e-06 
       3.951507022538e+01       1.038918880063e-06 
       4.266739136701e+01       8.438651457606e-07 
       4.607118943941e+01       6.852132111088e-07 
       4.974652605557e+01       5.562066384177e-07 
       5.371506324689e+01       4.513384954475e-07 
       5.800019113685e+01       3.661304299278e-07 
       6.262716579983e+01       2.969135162045e-07 
       6.762325811764e+01       2.407028130250e-07 
