# Matter power spectrum P(k) at redshift z=99
# for k=1.04775e-05 to 67.6233 h/Mpc,
# number of wavenumbers equal to 246
#    1:k (h/Mpc)              2:P (Mpc/h)^3        
       1.047750691338e-05       7.261927673119e-03 
       1.131335172818e-05       7.820331745737e-03 
       1.221587619877e-05       8.421675986489e-03 
       1.319039970550e-05       9.069258192194e-03 
       1.424266598317e-05       9.766638404421e-03 
       1.537887697396e-05       1.051764069681e-02 
       1.660572938097e-05       1.132639105520e-02 
       1.793045413791e-05       1.219733231416e-02 
       1.936085902737e-05       1.313524224380e-02 
       2.090537469909e-05       1.414527121893e-02 
       2.257310435923e-05       1.523296272192e-02 
       2.437387742372e-05       1.640429444530e-02 
       2.631830745176e-05       1.766569582177e-02 
       2.841785470091e-05       1.902408601793e-02 
       3.068489367268e-05       2.048692970591e-02 
       3.313278604643e-05       2.206225513594e-02 
       3.577595943165e-05       2.375870704909e-02 
       3.862999240274e-05       2.558560727479e-02 
       4.171170631739e-05       2.755297763344e-02 
       4.503926445983e-05       2.967161927314e-02 
       4.863227909323e-05       3.195316450832e-02 
       5.251192705226e-05       3.441013519284e-02 
       5.670107455699e-05       3.705601722528e-02 
       6.122441198393e-05       3.990533413562e-02 
       6.610859938837e-05       4.297372168203e-02 
       7.138242363583e-05       4.627802141688e-02 
       7.707696806873e-05       4.983636194159e-02 
       8.322579570814e-05       5.366826847231e-02 
       8.986514707061e-05       5.779476394568e-02 
       9.703415376577e-05       6.223848243885e-02 
       1.047750691338e-04       6.702379865640e-02 
       1.131335172818e-04       7.217695153381e-02 
       1.221587619877e-04       7.772619073572e-02 
       1.319039970550e-04       8.370193432376e-02 
       1.424266598317e-04       9.013692507546e-02 
       1.537887697396e-04       9.706641242570e-02 
       1.660572938097e-04       1.045283354271e-01 
       1.793045413791e-04       1.125635349068e-01 
       1.936085902737e-04       1.212159614968e-01 
       2.090537469909e-04       1.305329132714e-01 
       2.257310435923e-04       1.405652846215e-01 
       2.437387742372e-04       1.513678302540e-01 
       2.631830745176e-04       1.629994504870e-01 
       2.841785470091e-04       1.755234921224e-01 
       3.068489367268e-04       1.890080670413e-01 
       3.313278604643e-04       2.035264002435e-01 
       3.577595943165e-04       2.191571803681e-01 
       3.862999240274e-04       2.359849437594e-01 
       4.171170631739e-04       2.541004741539e-01 
       4.503926445983e-04       2.736012080277e-01 
       4.863227909323e-04       2.945916790965e-01 
       5.251192705226e-04       3.171839525183e-01 
       5.670107455699e-04       3.414980764002e-01 
       6.122441198393e-04       3.676625413100e-01 
       6.610859938837e-04       3.958147252304e-01 
       7.138242363583e-04       4.261013284922e-01 
       7.707696806873e-04       4.586787792350e-01 
       8.322579570814e-04       4.937136001360e-01 
       8.986514707061e-04       5.313826801401e-01 
       9.703415376577e-04       5.718734972157e-01 
       1.047750691338e-03       6.153841629505e-01 
       1.131335172818e-03       6.621233239466e-01 
       1.221587619877e-03       7.123098220421e-01 
       1.319039970550e-03       7.661720584493e-01 
       1.424266598317e-03       8.239546297731e-01 
       1.537887697396e-03       8.859011173466e-01 
       1.660572938097e-03       9.522588006421e-01 
       1.793045413791e-03       1.023280099819e+00 
       1.936085902737e-03       1.099216304579e+00 
       2.090537469909e-03       1.180312990453e+00 
       2.257310435923e-03       1.266804115851e+00 
       2.437387742372e-03       1.358904853404e+00 
       2.631830745176e-03       1.456802683156e+00 
       2.841785470091e-03       1.560646890522e+00 
       3.068489367268e-03       1.670536062500e+00 
       3.313278604643e-03       1.786503852164e+00 
       3.577595943165e-03       1.908502930788e+00 
       3.862999240274e-03       2.036387730709e+00 
       4.171170631739e-03       2.169896178740e+00 
       4.503926445983e-03       2.308631878994e+00 
       4.863227909323e-03       2.452047290962e+00 
       5.251192705226e-03       2.599430628088e+00 
       5.670107455699e-03       2.749896931821e+00 
       6.122441198393e-03       2.902386513385e+00 
       6.610859938837e-03       3.055668638706e+00 
       7.138242363583e-03       3.208356461542e+00 
       7.707696806873e-03       3.358923892898e+00 
       8.322579570814e-03       3.505725595291e+00 
       8.986514707061e-03       3.647008940031e+00 
       9.703415376577e-03       3.780923304295e+00 
       1.047750691338e-02       3.905490592251e+00 
       1.131335172818e-02       4.018588040402e+00 
       1.221587619877e-02       4.117901582150e+00 
       1.319039970550e-02       4.200915344948e+00 
       1.424266598317e-02       4.264942384695e+00 
       1.537887697392e-02       4.307218803659e+00 
       1.660572938023e-02       4.325061937445e+00 
       1.793045412706e-02       4.316058630672e+00 
       1.936085890181e-02       4.278226639801e+00 
       2.090537352463e-02       4.210199201138e+00 
       2.257309535333e-02       4.111418983787e+00 
       2.437382002918e-02       3.982417355468e+00 
       2.631799944462e-02       3.825164728538e+00 
       2.841644545389e-02       3.643283198460e+00 
       3.067933355377e-02       3.442202227925e+00 
       3.311368470740e-02       3.229240651423e+00 
       3.571840443502e-02       3.013516281491e+00 
       3.847720348444e-02       2.805289676119e+00 
       4.135335538431e-02       2.614416827359e+00 
       4.429361667738e-02       2.448134953635e+00 
       4.724366439141e-02       2.309237366316e+00 
       5.016480835311e-02       2.196118368318e+00 
       5.303989620246e-02       2.104365121402e+00 
       5.586870669566e-02       2.028462922259e+00 
       5.866042680613e-02       1.963152694444e+00 
       6.142798932958e-02       1.903780812588e+00 
       6.418496440164e-02       1.846482069792e+00 
       6.694418833788e-02       1.788198165468e+00 
       6.971731106057e-02       1.726712853611e+00 
       7.251476155766e-02       1.660654493559e+00 
       7.534587671527e-02       1.589470415807e+00 
       7.821907666265e-02       1.513439342932e+00 
       8.114203772912e-02       1.433569479312e+00 
       8.412184535029e-02       1.351493954787e+00 
       8.716512279304e-02       1.269274339914e+00 
       9.027813695930e-02       1.189196039746e+00 
       9.346688431697e-02       1.113502575943e+00 
       9.673716028276e-02       1.044173928741e+00 
       1.000946150830e-01       9.827069150200e-01 
       1.035447986537e-01       9.299360010053e-01 
       1.070931966762e-01       8.859592346745e-01 
       1.107452594425e-01       8.500698348626e-01 
       1.145064249153e-01       8.208035977814e-01 
       1.183821370918e-01       7.960255975976e-01 
       1.223778605862e-01       7.731450104032e-01 
       1.264990921987e-01       7.494505518700e-01 
       1.307513701367e-01       7.225580867073e-01 
       1.351402814784e-01       6.909093839380e-01 
       1.396714684203e-01       6.541817645614e-01 
       1.443506338194e-01       6.134271796805e-01 
       1.491835465229e-01       5.708674888787e-01 
       1.541760469708e-01       5.293631744542e-01 
       1.593340535561e-01       4.917110066092e-01 
       1.646635702297e-01       4.599201464766e-01 
       1.701706958456e-01       4.347286583535e-01 
       1.758616357459e-01       4.154085926478e-01 
       1.817427160982e-01       3.999376262007e-01 
       1.878204015065e-01       3.856824004094e-01 
       1.941013164283e-01       3.698101087696e-01 
       2.005922709503e-01       3.505464441807e-01 
       2.073002914972e-01       3.280443571507e-01 
       2.142326570816e-01       3.042135117498e-01 
       2.213969417533e-01       2.816119238824e-01 
       2.288010639706e-01       2.622565779004e-01 
       2.364533437147e-01       2.469624198769e-01 
       2.443625682930e-01       2.350131406434e-01 
       2.525380679504e-01       2.244178327736e-01 
       2.609898026346e-01       2.130939937095e-01 
       2.697284615565e-01       2.001012167122e-01 
       2.787655775689e-01       1.860198614069e-01 
       2.881136588829e-01       1.725175494836e-01 
       2.977863412677e-01       1.610659258556e-01 
       3.077985646929e-01       1.517615237856e-01 
       3.181667794071e-01       1.435591819010e-01 
       3.289091877812e-01       1.351814655786e-01 
       3.400460299658e-01       1.261642965654e-01 
       3.515999236474e-01       1.172021231740e-01 
       3.635962711085e-01       1.091768758646e-01 
       3.760637506334e-01       1.023094620337e-01 
       3.890349143879e-01       9.593790949290e-02 
       4.025469216825e-01       8.950764877570e-02 
       4.166424456376e-01       8.311162818957e-02 
       4.313708035863e-01       7.721560745759e-02 
       4.467893782977e-01       7.190061655891e-02 
       4.629654199664e-01       6.686917721300e-02 
       4.799783501994e-01       6.191760585181e-02 
       4.979227319373e-01       5.722228439845e-02 
       5.169121270864e-01       5.290288091729e-02 
       5.370841404489e-01       4.876977729703e-02 
       5.586070464571e-01       4.479075557682e-02 
       5.816885094930e-01       4.105193331286e-02 
       6.065870144995e-01       3.748994017097e-02 
       6.336266468475e-01       3.407624087632e-02 
       6.632156059511e-01       3.083461457687e-02 
       6.958678639263e-01       2.772837092237e-02 
       7.322247985589e-01       2.476707752153e-02 
       7.730680195114e-01       2.193956742504e-02 
       8.193049553677e-01       1.925614862075e-02 
       8.718988016039e-01       1.672927917376e-02 
       9.317218031082e-01       1.438425106101e-02 
       9.993660908989e-01       1.225066310918e-02 
       1.075037110174e+00       1.035261216772e-02 
       1.158653485707e+00       8.699695129254e-03 
       1.250099157308e+00       7.284580054000e-03 
       1.349432401273e+00       6.085458205628e-03 
       1.456947457397e+00       5.075740977697e-03 
       1.573135111331e+00       4.228312708719e-03 
       1.698621895592e+00       3.518550846557e-03 
       1.834127512934e+00       2.924974154516e-03 
       1.980444934528e+00       2.429163782885e-03 
       2.138435191726e+00       2.015511792433e-03 
       2.309029199186e+00       1.670780810782e-03 
       2.493232377687e+00       1.383796239228e-03 
       2.692130395285e+00       1.145129170261e-03 
       2.906895534573e+00       9.468561613934e-04 
       3.138793597714e+00       7.822885311777e-04 
       3.389191366484e+00       6.458202038234e-04 
       3.659564657905e+00       5.327668607851e-04 
       3.951507022538e+00       4.391852841032e-04 
       4.266739136701e+00       3.617855188975e-04 
       4.607118943941e+00       2.978257762315e-04 
       4.974652605557e+00       2.450097243760e-04 
       5.371506324689e+00       2.014341411752e-04 
       5.800019113685e+00       1.655044176673e-04 
       6.262716579983e+00       1.359017498800e-04 
       6.762325811764e+00       1.115273858415e-04 
       7.301791451110e+00       9.147333877698e-05 
       7.884293049406e+00       7.498350069598e-05 
       8.513263807261e+00       6.143282528542e-05 
       9.192410809424e+00       5.030466581999e-05 
       9.925736873929e+00       4.117103549439e-05 
       1.071756414427e+01       3.367919108864e-05 
       1.157255956364e+01       2.753674086728e-05 
       1.249576238137e+01       2.250394951961e-05 
       1.349261385375e+01       1.838237435655e-05 
       1.456898931416e+01       1.500856909092e-05 
       1.573123280165e+01       1.224848673226e-05 
       1.698619445202e+01       9.991341573628e-06 
       1.834127087176e+01       8.146475353425e-06 
       1.980444873285e+01       6.639177338555e-06 
       2.138435184532e+01       5.408245029079e-06 
       2.309029198506e+01       4.403377565596e-06 
       2.493232377636e+01       3.583435602412e-06 
       2.692130395282e+01       2.914646706845e-06 
       2.906895534573e+01       2.369301879441e-06 
       3.138793597714e+01       1.924792911497e-06 
       3.389191366484e+01       1.562591280302e-06 
       3.659564657905e+01       1.267531396383e-06 
       3.951507022538e+01       1.027251950423e-06 
       4.266739136701e+01       8.316104503204e-07 
       4.607118943941e+01       6.723604627298e-07 
       4.974652605557e+01       5.427536125694e-07 
       5.371506324689e+01       4.372970649668e-07 
       5.800019113685e+01       3.515036709768e-07 
       6.262716579983e+01       2.817130536690e-07 
       6.762325811764e+01       2.249670816477e-07 
