# Matter power spectrum P(k) at redshift z=0
# for k=1.04775e-05 to 67.6233 h/Mpc,
# number of wavenumbers equal to 246
#    1:k (h/Mpc)              2:P (Mpc/h)^3        
       1.047750691338e-05       5.020964806751e+01 
       1.131335172818e-05       5.407048206554e+01 
       1.221587619877e-05       5.822819064072e+01 
       1.319039970550e-05       6.270562589672e+01 
       1.424266598317e-05       6.752731788102e+01 
       1.537887697396e-05       7.271977200257e+01 
       1.660572938097e-05       7.831147241541e+01 
       1.793045413791e-05       8.433311815128e+01 
       1.936085902737e-05       9.081778242446e+01 
       2.090537469909e-05       9.780108061340e+01 
       2.257310435923e-05       1.053213197032e+02 
       2.437387742372e-05       1.134197377001e+02 
       2.631830745176e-05       1.221408202816e+02 
       2.841785470091e-05       1.315324720916e+02 
       3.068489367268e-05       1.416462093729e+02 
       3.313278604643e-05       1.525374500691e+02 
       3.577595943165e-05       1.642660687078e+02 
       3.862999240274e-05       1.768963504868e+02 
       4.171170631739e-05       1.904975992460e+02 
       4.503926445983e-05       2.051444490305e+02 
       4.863227909323e-05       2.209171463752e+02 
       5.251192705226e-05       2.379022222314e+02 
       5.670107455699e-05       2.561927925433e+02 
       6.122441198393e-05       2.758890441791e+02 
       6.610859938837e-05       2.970989225467e+02 
       7.138242363583e-05       3.199385558200e+02 
       7.707696806873e-05       3.445329780878e+02 
       8.322579570814e-05       3.710167315928e+02 
       8.986514707061e-05       3.995346440954e+02 
       9.703415376577e-05       4.302425403884e+02 
       1.047750691338e-04       4.633080762974e+02 
       1.131335172818e-04       4.989116267507e+02 
       1.221587619877e-04       5.372471946561e+02 
       1.319039970550e-04       5.785234124631e+02 
       1.424266598317e-04       6.229645929806e+02 
       1.537887697396e-04       6.708118484951e+02 
       1.660572938097e-04       7.223242660220e+02 
       1.793045413791e-04       7.777801549580e+02 
       1.936085902737e-04       8.374783607333e+02 
       2.090537469909e-04       9.017396264495e+02 
       2.257310435923e-04       9.709080260152e+02 
       2.437387742372e-04       1.045352448644e+03 
       2.631830745176e-04       1.125468122835e+03 
       2.841785470091e-04       1.211678179511e+03 
       3.068489367268e-04       1.304435249091e+03 
       3.313278604643e-04       1.404223052541e+03 
       3.577595943165e-04       1.511558013390e+03 
       3.862999240274e-04       1.626990836493e+03 
       4.171170631739e-04       1.751108027370e+03 
       4.503926445983e-04       1.884533381345e+03 
       4.863227909323e-04       2.027929376470e+03 
       5.251192705226e-04       2.181998446367e+03 
       5.670107455699e-04       2.347484100857e+03 
       6.122441198393e-04       2.525171869335e+03 
       6.610859938837e-04       2.715889981401e+03 
       7.138242363583e-04       2.920509686091e+03 
       7.707696806873e-04       3.139945097711e+03 
       8.322579570814e-04       3.375152334397e+03 
       8.986514707061e-04       3.627127828231e+03 
       9.703415376577e-04       3.896905450016e+03 
       1.047750691338e-03       4.185552170957e+03 
       1.131335172818e-03       4.494162426791e+03 
       1.221587619877e-03       4.823850702672e+03 
       1.319039970550e-03       5.175742734651e+03 
       1.424266598317e-03       5.551019592518e+03 
       1.537887697396e-03       5.950788335882e+03 
       1.660572938097e-03       6.376123046807e+03 
       1.793045413791e-03       6.828073896110e+03 
       1.936085902737e-03       7.307625375386e+03 
       2.090537469909e-03       7.815671857402e+03 
       2.257310435923e-03       8.352990369399e+03 
       2.437387742372e-03       8.920211057531e+03 
       2.631830745176e-03       9.517783061890e+03 
       2.841785470091e-03       1.014593703671e+04 
       3.068489367268e-03       1.080464505736e+04 
       3.313278604643e-03       1.149357459453e+04 
       3.577595943165e-03       1.221203620826e+04 
       3.862999240274e-03       1.295892538505e+04 
       4.171170631739e-03       1.373266000032e+04 
       4.503926445983e-03       1.453111834595e+04 
       4.863227909323e-03       1.535154984225e+04 
       5.251192705226e-03       1.619063613427e+04 
       5.670107455699e-03       1.704431256573e+04 
       6.122441198393e-03       1.790755938462e+04 
       6.610859938837e-03       1.877460417879e+04 
       7.138242363583e-03       1.963872429115e+04 
       7.707696806873e-03       2.049215713504e+04 
       8.322579570814e-03       2.132607230597e+04 
       8.986514707061e-03       2.213055146286e+04 
       9.703415376577e-03       2.289445470840e+04 
       1.047750691338e-02       2.360548940048e+04 
       1.131335172818e-02       2.425022856659e+04 
       1.221587619877e-02       2.481423924583e+04 
       1.319039970550e-02       2.528218640616e+04 
       1.424266598317e-02       2.563814392071e+04 
       1.537887697392e-02       2.586607848416e+04 
       1.660572938023e-02       2.595026561036e+04 
       1.793045412706e-02       2.587635094411e+04 
       1.936085890181e-02       2.563220865755e+04 
       2.090537352463e-02       2.520934507625e+04 
       2.257309535333e-02       2.460449027948e+04 
       2.437382002918e-02       2.382089715923e+04 
       2.631799944462e-02       2.287048412577e+04 
       2.841644545389e-02       2.177454806638e+04 
       3.067933355377e-02       2.056555588369e+04 
       3.311368470740e-02       1.928729288836e+04 
       3.571840443502e-02       1.799399477522e+04 
       3.847720348444e-02       1.674683314788e+04 
       4.135335538431e-02       1.560458437320e+04 
       4.429361667738e-02       1.461038800079e+04 
       4.724366439141e-02       1.378056749839e+04 
       5.016480835311e-02       1.310508307933e+04 
       5.303989620246e-02       1.255720188863e+04 
       5.586870669566e-02       1.210423124644e+04 
       5.866042680613e-02       1.171465167980e+04 
       6.142798932958e-02       1.136048329189e+04 
       6.418496440164e-02       1.101857308583e+04 
       6.694418833788e-02       1.067068407227e+04 
       6.971731106057e-02       1.030356251510e+04 
       7.251476155766e-02       9.908995098520e+03 
       7.534587671527e-02       9.483768866089e+03 
       7.821907666265e-02       9.029488631384e+03 
       8.114203772912e-02       8.552314779731e+03 
       8.412184535029e-02       8.061942385111e+03 
       8.716512279304e-02       7.570771608767e+03 
       9.027813695930e-02       7.092499000055e+03 
       9.346688431697e-02       6.640532397917e+03 
       9.673716028276e-02       6.226701025026e+03 
       1.000946150830e-01       5.859948603359e+03 
       1.035447986537e-01       5.545222022370e+03 
       1.070931966762e-01       5.283121628380e+03 
       1.107452594425e-01       5.069420999328e+03 
       1.145064249153e-01       4.895246082415e+03 
       1.183821370918e-01       4.747869782006e+03 
       1.223778605862e-01       4.611744289288e+03 
       1.264990921987e-01       4.470612887293e+03 
       1.307513701367e-01       4.310226995398e+03 
       1.351402814784e-01       4.121380594927e+03 
       1.396714684203e-01       3.902051438824e+03 
       1.443506338194e-01       3.658660408281e+03 
       1.491835465229e-01       3.404487999253e+03 
       1.541760469708e-01       3.156676247216e+03 
       1.593340535561e-01       2.931981788842e+03 
       1.646635702297e-01       2.742366608741e+03 
       1.701706958456e-01       2.592253495632e+03 
       1.758616357459e-01       2.477250159876e+03 
       1.817427160982e-01       2.385183027345e+03 
       1.878204015065e-01       2.300362388641e+03 
       1.941013164283e-01       2.205754951393e+03 
       2.005922709503e-01       2.090818165814e+03 
       2.073002914972e-01       1.956469825259e+03 
       2.142326570816e-01       1.814195853463e+03 
       2.213969417533e-01       1.679290885078e+03 
       2.288010639706e-01       1.563846223815e+03 
       2.364533437147e-01       1.472685032240e+03 
       2.443625682930e-01       1.401516622324e+03 
       2.525380679504e-01       1.338415521950e+03 
       2.609898026346e-01       1.270903216174e+03 
       2.697284615565e-01       1.193379818454e+03 
       2.787655775689e-01       1.109341028130e+03 
       2.881136588829e-01       1.028770590809e+03 
       2.977863412677e-01       9.604824657583e+02 
       3.077985646929e-01       9.050246389050e+02 
       3.181667794071e-01       8.561448205617e+02 
       3.289091877812e-01       8.061878919382e+02 
       3.400460299658e-01       7.523944884758e+02 
       3.515999236474e-01       6.989215755143e+02 
       3.635962711085e-01       6.510643871469e+02 
       3.760637506334e-01       6.101217228524e+02 
       3.890349143879e-01       5.721322682230e+02 
       4.025469216825e-01       5.337828072079e+02 
       4.166424456376e-01       4.956307129705e+02 
       4.313708035863e-01       4.604689172040e+02 
       4.467893782977e-01       4.287763409125e+02 
       4.629654199664e-01       3.987723524398e+02 
       4.799783501994e-01       3.692418100569e+02 
       4.979227319373e-01       3.412405355271e+02 
       5.169121270864e-01       3.154834533141e+02 
       5.370841404489e-01       2.908345598842e+02 
       5.586070464571e-01       2.671069436154e+02 
       5.816885094930e-01       2.448098973580e+02 
       6.065870144995e-01       2.235680221399e+02 
       6.336266468475e-01       2.032098962025e+02 
       6.632156059511e-01       1.838787010416e+02 
       6.958678639263e-01       1.653550793968e+02 
       7.322247985589e-01       1.476950199683e+02 
       7.730680195114e-01       1.308338964054e+02 
       8.193049553677e-01       1.148312033602e+02 
       8.718988016039e-01       9.976272620632e+01 
       9.317218031082e-01       8.577798711837e+01 
       9.993660908989e-01       7.305482759516e+01 
       1.075037110174e+00       6.173587641183e+01 
       1.158653485707e+00       5.187909074520e+01 
       1.250099157308e+00       4.344013789883e+01 
       1.349432401273e+00       3.628926459011e+01 
       1.456947457397e+00       3.026805081800e+01 
       1.573135111331e+00       2.521442722572e+01 
       1.698621895592e+00       2.098197888875e+01 
       1.834127512934e+00       1.744240022206e+01 
       1.980444934528e+00       1.448572273036e+01 
       2.138435191726e+00       1.201893346115e+01 
       2.309029199186e+00       9.963201478539e+00 
       2.493232377687e+00       8.251808255564e+00 
       2.692130395285e+00       6.828584642539e+00 
       2.906895534573e+00       5.646218130748e+00 
       3.138793597714e+00       4.664874686281e+00 
       3.389191366484e+00       3.851077164155e+00 
       3.659564657905e+00       3.176934729963e+00 
       3.951507022538e+00       2.618874916946e+00 
       4.266739136701e+00       2.157321618528e+00 
       4.607118943941e+00       1.775908259746e+00 
       4.974652605557e+00       1.460960654932e+00 
       5.371506324689e+00       1.201087178911e+00 
       5.800019113685e+00       9.868408478084e-01 
       6.262716579983e+00       8.103102975011e-01 
       6.762325811764e+00       6.649571020304e-01 
       7.301791451110e+00       5.453696041321e-01 
       7.884293049406e+00       4.470373036968e-01 
       8.513263807261e+00       3.662306838489e-01 
       9.192410809424e+00       2.998719289034e-01 
       9.925736873929e+00       2.454050190977e-01 
       1.071756414427e+01       2.007277444636e-01 
       1.157255956364e+01       1.640974242053e-01 
       1.249576238137e+01       1.340854813751e-01 
       1.349261385375e+01       1.095044899905e-01 
       1.456898931416e+01       8.938375474080e-02 
       1.573123280165e+01       7.292117942009e-02 
       1.698619445202e+01       5.945850740042e-02 
       1.834127087176e+01       4.845441874021e-02 
       1.980444873285e+01       3.946280325428e-02 
       2.138435184532e+01       3.211864209468e-02 
       2.309029198506e+01       2.612291344179e-02 
       2.493232377636e+01       2.122955381805e-02 
       2.692130395282e+01       1.723707674481e-02 
       2.906895534573e+01       1.398084688444e-02 
       3.138793597714e+01       1.132578221728e-02 
       3.389191366484e+01       9.161408121473e-03 
       3.659564657905e+01       7.397571933724e-03 
       3.951507022538e+01       5.960457029103e-03 
       4.266739136701e+01       4.789750990716e-03 
       4.607118943941e+01       3.836256025991e-03 
       4.974652605557e+01       3.060205606351e-03 
       5.371506324689e+01       2.428679551511e-03 
       5.800019113685e+01       1.915251738797e-03 
       6.262716579983e+01       1.498287537490e-03 
       6.762325811764e+01       1.160390162762e-03 
