# Matter power spectrum P(k) at redshift z=0
# for k=1.04775e-05 to 67.6233 h/Mpc,
# number of wavenumbers equal to 246
#    1:k (h/Mpc)              2:P (Mpc/h)^3        
       1.047750691338e-05       5.020964806755e+01 
       1.131335172818e-05       5.407048206554e+01 
       1.221587619877e-05       5.822819063986e+01 
       1.319039970550e-05       6.270562589684e+01 
       1.424266598317e-05       6.752731788102e+01 
       1.537887697396e-05       7.271977200258e+01 
       1.660572938097e-05       7.831147241542e+01 
       1.793045413791e-05       8.433311815128e+01 
       1.936085902737e-05       9.081778242446e+01 
       2.090537469909e-05       9.780108061340e+01 
       2.257310435923e-05       1.053213197032e+02 
       2.437387742372e-05       1.134197377001e+02 
       2.631830745176e-05       1.221408202816e+02 
       2.841785470091e-05       1.315324720916e+02 
       3.068489367268e-05       1.416462093729e+02 
       3.313278604643e-05       1.525374500691e+02 
       3.577595943165e-05       1.642660687078e+02 
       3.862999240274e-05       1.768963504868e+02 
       4.171170631739e-05       1.904975992460e+02 
       4.503926445983e-05       2.051444490305e+02 
       4.863227909323e-05       2.209171463752e+02 
       5.251192705226e-05       2.379022222314e+02 
       5.670107455699e-05       2.561927925547e+02 
       6.122441198393e-05       2.758890441791e+02 
       6.610859938837e-05       2.970989225467e+02 
       7.138242363583e-05       3.199385558200e+02 
       7.707696806873e-05       3.445329780878e+02 
       8.322579570814e-05       3.710167315928e+02 
       8.986514707061e-05       3.995346440954e+02 
       9.703415376577e-05       4.302425403884e+02 
       1.047750691338e-04       4.633080762974e+02 
       1.131335172818e-04       4.989116267507e+02 
       1.221587619877e-04       5.372471946561e+02 
       1.319039970550e-04       5.785234124634e+02 
       1.424266598317e-04       6.229645930980e+02 
       1.537887697396e-04       6.708118484951e+02 
       1.660572938097e-04       7.223242660220e+02 
       1.793045413791e-04       7.777801554321e+02 
       1.936085902737e-04       8.374783607333e+02 
       2.090537469909e-04       9.017396264495e+02 
       2.257310435923e-04       9.709080260152e+02 
       2.437387742372e-04       1.045352448644e+03 
       2.631830745176e-04       1.125468122836e+03 
       2.841785470091e-04       1.211678179511e+03 
       3.068489367268e-04       1.304435249091e+03 
       3.313278604643e-04       1.404223052541e+03 
       3.577595943165e-04       1.511558013390e+03 
       3.862999240274e-04       1.626990836453e+03 
       4.171170631739e-04       1.751108027370e+03 
       4.503926445983e-04       1.884533381345e+03 
       4.863227909323e-04       2.027929376471e+03 
       5.251192705226e-04       2.181998446367e+03 
       5.670107455699e-04       2.347484100857e+03 
       6.122441198393e-04       2.525171869335e+03 
       6.610859938837e-04       2.715889981401e+03 
       7.138242363583e-04       2.920509686087e+03 
       7.707696806873e-04       3.139945097710e+03 
       8.322579570814e-04       3.375152334396e+03 
       8.986514707061e-04       3.627127828231e+03 
       9.703415376577e-04       3.896905450016e+03 
       1.047750691338e-03       4.185552170960e+03 
       1.131335172818e-03       4.494162426791e+03 
       1.221587619877e-03       4.823850702665e+03 
       1.319039970550e-03       5.175742739267e+03 
       1.424266598317e-03       5.551019592517e+03 
       1.537887697396e-03       5.950788335879e+03 
       1.660572938097e-03       6.376123046809e+03 
       1.793045413791e-03       6.828073896129e+03 
       1.936085902737e-03       7.307625375387e+03 
       2.090537469909e-03       7.815671860246e+03 
       2.257310435923e-03       8.352990369400e+03 
       2.437387742372e-03       8.920211057519e+03 
       2.631830745176e-03       9.517783061890e+03 
       2.841785470091e-03       1.014593703671e+04 
       3.068489367268e-03       1.080464505745e+04 
       3.313278604643e-03       1.149357459473e+04 
       3.577595943165e-03       1.221203620826e+04 
       3.862999240274e-03       1.295892538505e+04 
       4.171170631739e-03       1.373266002237e+04 
       4.503926445983e-03       1.453111834595e+04 
       4.863227909323e-03       1.535154984224e+04 
       5.251192705226e-03       1.619063613415e+04 
       5.670107455699e-03       1.704431256543e+04 
       6.122441198393e-03       1.790755938469e+04 
       6.610859938837e-03       1.877460419265e+04 
       7.138242363583e-03       1.963872429137e+04 
       7.707696806873e-03       2.049215713314e+04 
       8.322579570814e-03       2.132607230559e+04 
       8.986514707061e-03       2.213054969630e+04 
       9.703415376577e-03       2.289445470953e+04 
       1.047750691338e-02       2.360548434213e+04 
       1.131335172818e-02       2.425022856496e+04 
       1.221587619877e-02       2.481423920718e+04 
       1.319039970550e-02       2.528218805083e+04 
       1.424266598317e-02       2.563814414053e+04 
       1.537887697392e-02       2.586606886938e+04 
       1.660572938023e-02       2.595027366070e+04 
       1.793045412706e-02       2.587634078276e+04 
       1.936085890181e-02       2.563220583144e+04 
       2.090537352463e-02       2.520934547764e+04 
       2.257309535333e-02       2.460447556464e+04 
       2.437382002918e-02       2.382086003907e+04 
       2.631799944462e-02       2.287042756231e+04 
       2.841644545389e-02       2.177448533276e+04 
       3.067933355377e-02       2.056557432063e+04 
       3.311368470740e-02       1.928728641058e+04 
       3.571840443502e-02       1.799398297019e+04 
       3.847720348444e-02       1.674682980544e+04 
       4.135335538431e-02       1.560461469629e+04 
       4.429361667738e-02       1.461039136266e+04 
       4.724366439141e-02       1.378052528919e+04 
       5.016480835311e-02       1.310506153013e+04 
       5.303989620246e-02       1.255715491081e+04 
       5.586870669566e-02       1.210425159559e+04 
       5.866042680613e-02       1.171466406034e+04 
       6.142798932958e-02       1.136046313789e+04 
       6.418496440164e-02       1.101856430082e+04 
       6.694418833788e-02       1.067070171158e+04 
       6.971731106057e-02       1.030356338543e+04 
       7.251476155766e-02       9.908993194489e+03 
       7.534587671527e-02       9.483775615503e+03 
       7.821907666265e-02       9.029479722324e+03 
       8.114203772912e-02       8.552340209757e+03 
       8.412184535029e-02       8.061919220687e+03 
       8.716512279304e-02       7.570765449181e+03 
       9.027813695930e-02       7.092468608669e+03 
       9.346688431697e-02       6.640513484370e+03 
       9.673716028276e-02       6.226697850655e+03 
       1.000946150830e-01       5.859964480968e+03 
       1.035447986537e-01       5.545243257637e+03 
       1.070931966762e-01       5.283131267230e+03 
       1.107452594425e-01       5.069417124687e+03 
       1.145064249153e-01       4.895259292193e+03 
       1.183821370918e-01       4.747845965314e+03 
       1.223778605862e-01       4.611734486222e+03 
       1.264990921987e-01       4.470620040534e+03 
       1.307513701367e-01       4.310266126366e+03 
       1.351402814784e-01       4.121387029581e+03 
       1.396714684203e-01       3.902057396464e+03 
       1.443506338194e-01       3.658664092446e+03 
       1.491835465229e-01       3.404483560933e+03 
       1.541760469708e-01       3.156669143992e+03 
       1.593340535561e-01       2.931967228803e+03 
       1.646635702297e-01       2.742374827229e+03 
       1.701706958456e-01       2.592264001903e+03 
       1.758616357459e-01       2.477236953677e+03 
       1.817427160982e-01       2.385189273949e+03 
       1.878204015065e-01       2.300360279893e+03 
       1.941013164283e-01       2.205757135087e+03 
       2.005922709503e-01       2.090819062161e+03 
       2.073002914972e-01       1.956467124152e+03 
       2.142326570816e-01       1.814193146962e+03 
       2.213969417533e-01       1.679298399048e+03 
       2.288010639706e-01       1.563846610964e+03 
       2.364533437147e-01       1.472685853535e+03 
       2.443625682930e-01       1.401516672317e+03 
       2.525380679504e-01       1.338411264444e+03 
       2.609898026346e-01       1.270903845960e+03 
       2.697284615565e-01       1.193381146847e+03 
       2.787655775689e-01       1.109336594184e+03 
       2.881136588829e-01       1.028771271611e+03 
       2.977863412677e-01       9.604822470313e+02 
       3.077985646929e-01       9.050218290881e+02 
       3.181667794071e-01       8.561457570027e+02 
       3.289091877812e-01       8.061877467357e+02 
       3.400460299658e-01       7.523924855566e+02 
       3.515999236474e-01       6.989233388306e+02 
       3.635962711085e-01       6.510612695240e+02 
       3.760637506334e-01       6.101229639436e+02 
       3.890349143879e-01       5.721315392309e+02 
       4.025469216825e-01       5.337819427953e+02 
       4.166424456376e-01       4.956308135535e+02 
       4.313708035863e-01       4.604689088117e+02 
       4.467893782977e-01       4.287766722933e+02 
       4.629654199664e-01       3.987716746583e+02 
       4.799783501994e-01       3.692403734887e+02 
       4.979227319373e-01       3.412406155196e+02 
       5.169121270864e-01       3.154829380894e+02 
       5.370841404489e-01       2.908350072924e+02 
       5.586070464571e-01       2.671060022091e+02 
       5.816885094930e-01       2.448081378994e+02 
       6.065870144995e-01       2.235680054688e+02 
       6.336266468475e-01       2.032107275824e+02 
       6.632156059511e-01       1.838784023692e+02 
       6.958678639263e-01       1.653547506630e+02 
       7.322247985589e-01       1.476952217434e+02 
       7.730680195114e-01       1.308338813456e+02 
       8.193049553677e-01       1.148309423784e+02 
       8.718988016039e-01       9.976253939655e+01 
       9.317218031082e-01       8.577803461124e+01 
       9.993660908989e-01       7.305475920704e+01 
       1.075037110174e+00       6.173573547489e+01 
       1.158653485707e+00       5.187913507057e+01 
       1.250099157308e+00       4.344018712753e+01 
       1.349432401273e+00       3.628920109184e+01 
       1.456947457397e+00       3.026779570588e+01 
       1.573135111331e+00       2.521438106746e+01 
       1.698621895592e+00       2.098187486959e+01 
       1.834127512934e+00       1.744220721873e+01 
       1.980444934528e+00       1.448546448198e+01 
       2.138435191726e+00       1.201869149361e+01 
       2.309029199186e+00       9.962941022184e+00 
       2.493232377687e+00       8.251525323463e+00 
       2.692130395285e+00       6.828279126412e+00 
       2.906895534573e+00       5.645920493905e+00 
       3.138793597714e+00       4.664510431882e+00 
       3.389191366484e+00       3.850696510920e+00 
       3.659564657905e+00       3.176484493333e+00 
       3.951507022538e+00       2.618388342195e+00 
       4.266739136701e+00       2.156827718231e+00 
       4.607118943941e+00       1.775363290648e+00 
       4.974652605557e+00       1.460368837914e+00 
       5.371506324689e+00       1.200469753819e+00 
       5.800019113685e+00       9.861714695189e-01 
       6.262716579983e+00       8.095918045869e-01 
       6.762325811764e+00       6.641970514250e-01 
       7.301791451110e+00       5.445535817423e-01 
       7.884293049406e+00       4.461651861067e-01 
       8.513263807261e+00       3.653078822900e-01 
       9.192410809424e+00       2.988855283725e-01 
       9.925736873929e+00       2.443569367285e-01 
       1.071756414427e+01       1.996179591969e-01 
       1.157255956364e+01       1.629238734669e-01 
       1.249576238137e+01       1.328419897743e-01 
       1.349261385375e+01       1.081928242269e-01 
       1.456898931416e+01       8.800152468492e-02 
       1.573123280165e+01       7.146828816873e-02 
       1.698619445202e+01       5.793508668124e-02 
       1.834127087176e+01       4.685956467313e-02 
       1.980444873285e+01       3.779901292530e-02 
       2.138435184532e+01       3.038869332864e-02 
       2.309029198506e+01       2.433104564367e-02 
       2.493232377636e+01       1.938070105048e-02 
       2.692130395282e+01       1.533916588658e-02 
       2.906895534573e+01       1.204326093692e-02 
       3.138793597714e+01       9.360075077560e-03 
       3.389191366484e+01       7.182360823509e-03 
       3.659564657905e+01       5.422084769616e-03 
       3.951507022538e+01       4.008728045208e-03 
       4.266739136701e+01       2.884395471306e-03 
       4.607118943941e+01       2.002500389141e-03 
       4.974652605557e+01       1.324644834738e-03 
       5.371506324689e+01       8.189474432374e-04 
       5.800019113685e+01       4.580677487478e-04 
       6.262716579983e+01       2.178474234160e-04 
       6.762325811764e+01       7.594721644217e-05 
