# Matter power spectrum P(k) at redshift z=99
# for k=1.04775e-05 to 67.6233 h/Mpc,
# number of wavenumbers equal to 246
#    1:k (h/Mpc)              2:P (Mpc/h)^3        
       1.047750691338e-05       7.261927673120e-03 
       1.131335172818e-05       7.820331745738e-03 
       1.221587619877e-05       8.421675986489e-03 
       1.319039970550e-05       9.069258192195e-03 
       1.424266598317e-05       9.766638404422e-03 
       1.537887697396e-05       1.051764069682e-02 
       1.660572938097e-05       1.132639105520e-02 
       1.793045413791e-05       1.219733231417e-02 
       1.936085902737e-05       1.313524224381e-02 
       2.090537469909e-05       1.414527121893e-02 
       2.257310435923e-05       1.523296272192e-02 
       2.437387742372e-05       1.640429444530e-02 
       2.631830745176e-05       1.766569582178e-02 
       2.841785470091e-05       1.902408601793e-02 
       3.068489367268e-05       2.048692970592e-02 
       3.313278604643e-05       2.206225513594e-02 
       3.577595943165e-05       2.375870704909e-02 
       3.862999240274e-05       2.558560727479e-02 
       4.171170631739e-05       2.755297763344e-02 
       4.503926445983e-05       2.967161927314e-02 
       4.863227909323e-05       3.195316450832e-02 
       5.251192705226e-05       3.441013519284e-02 
       5.670107455699e-05       3.705601722530e-02 
       6.122441198393e-05       3.990533413562e-02 
       6.610859938837e-05       4.297372168203e-02 
       7.138242363583e-05       4.627802141689e-02 
       7.707696806873e-05       4.983636194159e-02 
       8.322579570814e-05       5.366826847232e-02 
       8.986514707061e-05       5.779476394569e-02 
       9.703415376577e-05       6.223848243885e-02 
       1.047750691338e-04       6.702379865640e-02 
       1.131335172818e-04       7.217695153381e-02 
       1.221587619877e-04       7.772619073572e-02 
       1.319039970550e-04       8.370193432377e-02 
       1.424266598317e-04       9.013692507546e-02 
       1.537887697396e-04       9.706641242571e-02 
       1.660572938097e-04       1.045283354272e-01 
       1.793045413791e-04       1.125635349068e-01 
       1.936085902737e-04       1.212159614968e-01 
       2.090537469909e-04       1.305329132715e-01 
       2.257310435923e-04       1.405652846215e-01 
       2.437387742372e-04       1.513678302540e-01 
       2.631830745176e-04       1.629994504871e-01 
       2.841785470091e-04       1.755234921225e-01 
       3.068489367268e-04       1.890080670413e-01 
       3.313278604643e-04       2.035264002435e-01 
       3.577595943165e-04       2.191571803681e-01 
       3.862999240274e-04       2.359849437593e-01 
       4.171170631739e-04       2.541004741539e-01 
       4.503926445983e-04       2.736012080278e-01 
       4.863227909323e-04       2.945916790965e-01 
       5.251192705226e-04       3.171839525183e-01 
       5.670107455699e-04       3.414980764002e-01 
       6.122441198393e-04       3.676625413101e-01 
       6.610859938837e-04       3.958147252304e-01 
       7.138242363583e-04       4.261013284905e-01 
       7.707696806873e-04       4.586787792351e-01 
       8.322579570814e-04       4.937136001371e-01 
       8.986514707061e-04       5.313826801402e-01 
       9.703415376577e-04       5.718734972158e-01 
       1.047750691338e-03       6.153841629506e-01 
       1.131335172818e-03       6.621233239466e-01 
       1.221587619877e-03       7.123098220429e-01 
       1.319039970550e-03       7.661720584490e-01 
       1.424266598317e-03       8.239546297732e-01 
       1.537887697396e-03       8.859011173466e-01 
       1.660572938097e-03       9.522588006398e-01 
       1.793045413791e-03       1.023280099819e+00 
       1.936085902737e-03       1.099216304579e+00 
       2.090537469909e-03       1.180312990453e+00 
       2.257310435923e-03       1.266804115851e+00 
       2.437387742372e-03       1.358904853404e+00 
       2.631830745176e-03       1.456802683156e+00 
       2.841785470091e-03       1.560646890521e+00 
       3.068489367268e-03       1.670536062498e+00 
       3.313278604643e-03       1.786503852158e+00 
       3.577595943165e-03       1.908502930786e+00 
       3.862999240274e-03       2.036387730706e+00 
       4.171170631739e-03       2.169896178641e+00 
       4.503926445983e-03       2.308631878989e+00 
       4.863227909323e-03       2.452047290954e+00 
       5.251192705226e-03       2.599430628077e+00 
       5.670107455699e-03       2.749896931794e+00 
       6.122441198393e-03       2.902386513360e+00 
       6.610859938837e-03       3.055668699301e+00 
       7.138242363583e-03       3.208356461497e+00 
       7.707696806873e-03       3.358923893105e+00 
       8.322579570814e-03       3.505725595034e+00 
       8.986514707061e-03       3.647009255493e+00 
       9.703415376577e-03       3.780923304129e+00 
       1.047750691338e-02       3.905489950324e+00 
       1.131335172818e-02       4.018587640577e+00 
       1.221587619877e-02       4.117901592308e+00 
       1.319039970550e-02       4.200915375973e+00 
       1.424266598317e-02       4.264942479726e+00 
       1.537887697392e-02       4.307216708043e+00 
       1.660572938023e-02       4.325061201041e+00 
       1.793045412706e-02       4.316059303569e+00 
       1.936085890181e-02       4.278225932939e+00 
       2.090537352463e-02       4.210205422718e+00 
       2.257309535333e-02       4.111418713730e+00 
       2.437382002918e-02       3.982425865051e+00 
       2.631799944462e-02       3.825166825294e+00 
       2.841644545389e-02       3.643287184632e+00 
       3.067933355377e-02       3.442190458261e+00 
       3.311368470740e-02       3.229241307113e+00 
       3.571840443502e-02       3.013510748494e+00 
       3.847720348444e-02       2.805286972672e+00 
       4.135335538431e-02       2.614410278693e+00 
       4.429361667738e-02       2.448140273498e+00 
       4.724366439141e-02       2.309231056268e+00 
       5.016480835311e-02       2.196111089346e+00 
       5.303989620246e-02       2.104364053421e+00 
       5.586870669566e-02       2.028463235223e+00 
       5.866042680613e-02       1.963158743786e+00 
       6.142798932958e-02       1.903782574012e+00 
       6.418496440164e-02       1.846478414155e+00 
       6.694418833788e-02       1.788197088954e+00 
       6.971731106057e-02       1.726714771787e+00 
       7.251476155766e-02       1.660656351490e+00 
       7.534587671527e-02       1.589474500290e+00 
       7.821907666265e-02       1.513437153142e+00 
       8.114203772912e-02       1.433572718611e+00 
       8.412184535029e-02       1.351492651821e+00 
       8.716512279304e-02       1.269273872721e+00 
       9.027813695930e-02       1.189190262554e+00 
       9.346688431697e-02       1.113502433788e+00 
       9.673716028276e-02       1.044175112941e+00 
       1.000946150830e-01       9.827065471931e-01 
       1.035447986537e-01       9.299384079175e-01 
       1.070931966762e-01       8.859593804594e-01 
       1.107452594425e-01       8.500682365690e-01 
       1.145064249153e-01       8.208007754973e-01 
       1.183821370918e-01       7.960227807001e-01 
       1.223778605862e-01       7.731455574320e-01 
       1.264990921987e-01       7.494509164489e-01 
       1.307513701367e-01       7.225564020052e-01 
       1.351402814784e-01       6.909064201631e-01 
       1.396714684203e-01       6.541803351131e-01 
       1.443506338194e-01       6.134254741092e-01 
       1.491835465229e-01       5.708669448871e-01 
       1.541760469708e-01       5.293625749361e-01 
       1.593340535561e-01       4.917102338541e-01 
       1.646635702297e-01       4.599189174589e-01 
       1.701706958456e-01       4.347269255045e-01 
       1.758616357459e-01       4.154062303414e-01 
       1.817427160982e-01       3.999349870735e-01 
       1.878204015065e-01       3.856807216894e-01 
       1.941013164283e-01       3.698069791143e-01 
       2.005922709503e-01       3.505444514068e-01 
       2.073002914972e-01       3.280400526168e-01 
       2.142326570816e-01       3.042104697974e-01 
       2.213969417533e-01       2.816101061250e-01 
       2.288010639706e-01       2.622535946699e-01 
       2.364533437147e-01       2.469586908174e-01 
       2.443625682930e-01       2.350094885118e-01 
       2.525380679504e-01       2.244134372971e-01 
       2.609898026346e-01       2.130893531635e-01 
       2.697284615565e-01       2.000977602497e-01 
       2.787655775689e-01       1.860151294621e-01 
       2.881136588829e-01       1.725127568152e-01 
       2.977863412677e-01       1.610614892187e-01 
       3.077985646929e-01       1.517558720695e-01 
       3.181667794071e-01       1.435537281280e-01 
       3.289091877812e-01       1.351753529914e-01 
       3.400460299658e-01       1.261580661541e-01 
       3.515999236474e-01       1.171956018762e-01 
       3.635962711085e-01       1.091700179249e-01 
       3.760637506334e-01       1.023024879024e-01 
       3.890349143879e-01       9.593022158279e-02 
       4.025469216825e-01       8.949981452320e-02 
       4.166424456376e-01       8.310335489165e-02 
       4.313708035863e-01       7.720670766584e-02 
       4.467893782977e-01       7.189167719783e-02 
       4.629654199664e-01       6.685952933630e-02 
       4.799783501994e-01       6.190753093958e-02 
       4.979227319373e-01       5.721176343422e-02 
       5.169121270864e-01       5.289177796878e-02 
       5.370841404489e-01       4.875816151178e-02 
       5.586070464571e-01       4.477862480566e-02 
       5.816885094930e-01       4.103907012970e-02 
       6.065870144995e-01       3.747642998025e-02 
       6.336266468475e-01       3.406202408588e-02 
       6.632156059511e-01       3.081942203718e-02 
       6.958678639263e-01       2.771232769962e-02 
       7.322247985589e-01       2.475006379833e-02 
       7.730680195114e-01       2.192146021531e-02 
       8.193049553677e-01       1.923678300124e-02 
       8.718988016039e-01       1.670849637759e-02 
       9.317218031082e-01       1.436188395438e-02 
       9.993660908989e-01       1.222657867806e-02 
       1.075037110174e+00       1.032647095189e-02 
       1.158653485707e+00       8.671494483189e-03 
       1.250099157308e+00       7.254074323255e-03 
       1.349432401273e+00       6.052517681528e-03 
       1.456947457397e+00       5.040243348467e-03 
       1.573135111331e+00       4.190157490419e-03 
       1.698621895592e+00       3.477617263839e-03 
       1.834127512934e+00       2.881150035800e-03 
       1.980444934528e+00       2.382348096848e-03 
       2.138435191726e+00       1.965633325488e-03 
       2.309029199186e+00       1.617769178403e-03 
       2.493232377687e+00       1.327658605762e-03 
       2.692130395285e+00       1.085859231614e-03 
       2.906895534573e+00       8.845017262014e-04 
       3.138793597714e+00       7.169556059634e-04 
       3.389191366484e+00       5.776708590532e-04 
       3.659564657905e+00       4.620410442219e-04 
       3.951507022538e+00       3.662033489382e-04 
       4.266739136701e+00       2.869770653195e-04 
       4.607118943941e+00       2.217069763444e-04 
       4.974652605557e+00       1.682277115101e-04 
       5.371506324689e+00       1.247461386726e-04 
       5.800019113685e+00       8.978617513812e-05 
       6.262716579983e+00       6.213158762049e-05 
       6.762325811764e+00       4.075979753970e-05 
       7.301791451110e+00       2.479712911873e-05 
       7.884293049406e+00       1.346722643562e-05 
       8.513263807261e+00       6.048353364998e-06 
       9.192410809424e+00       1.840165631070e-06 
       9.925736873929e+00       1.386685108166e-07 
       1.071756414427e+01       2.301484138586e-07 
       1.157255956364e+01       1.404421332833e-06 
       1.249576238137e+01       2.989939395716e-06 
       1.349261385375e+01       4.409135801861e-06 
       1.456898931416e+01       5.242120971472e-06 
       1.573123280165e+01       5.283122808364e-06 
       1.698619445202e+01       4.566017883465e-06 
       1.834127087176e+01       3.338036971034e-06 
       1.980444873285e+01       1.973239390557e-06 
       2.138435184532e+01       8.423552103862e-07 
       2.309029198506e+01       1.788051407040e-07 
       2.493232377636e+01       4.411063820635e-10 
       2.692130395282e+01       1.301128944222e-07 
       2.906895534573e+01       3.126489095434e-07 
       3.138793597714e+01       3.645378916152e-07 
       3.389191366484e+01       2.618308606387e-07 
       3.659564657905e+01       1.074547351048e-07 
       3.951507022538e+01       1.320469262032e-08 
       4.266739136701e+01       3.997021360811e-09 
       4.607118943941e+01       2.603725590068e-08 
       4.974652605557e+01       2.805793533418e-08 
       5.371506324689e+01       1.110960802396e-08 
       5.800019113685e+01       4.691913021386e-10 
       6.262716579983e+01       1.448308141191e-09 
       6.762325811764e+01       2.677112117123e-09 
