# Matter power spectrum P(k) at redshift z=99
# for k=1.04775e-05 to 134.926 h/Mpc,
# number of wavenumbers equal to 255
#    1:k (h/Mpc)              2:P (Mpc/h)^3        
       1.047750691338e-05       7.261927095249e-03 
       1.131335172818e-05       7.820332150716e-03 
       1.221587619877e-05       8.421675382288e-03 
       1.319039970550e-05       9.069257737957e-03 
       1.424266598317e-05       9.766636451076e-03 
       1.537887697396e-05       1.051763973636e-02 
       1.660572938097e-05       1.132639250746e-02 
       1.793045413791e-05       1.219733201503e-02 
       1.936085902737e-05       1.313524187197e-02 
       2.090537469909e-05       1.414527084971e-02 
       2.257310435923e-05       1.523296544485e-02 
       2.437387742372e-05       1.640429654634e-02 
       2.631830745176e-05       1.766569603279e-02 
       2.841785470091e-05       1.902408711155e-02 
       3.068489367268e-05       2.048692967437e-02 
       3.313278604643e-05       2.206225467541e-02 
       3.577595943165e-05       2.375870883844e-02 
       3.862999240274e-05       2.558560669814e-02 
       4.171170631739e-05       2.755297672499e-02 
       4.503926445983e-05       2.967161933404e-02 
       4.863227909323e-05       3.195316455646e-02 
       5.251192705226e-05       3.441013466124e-02 
       5.670107455699e-05       3.705601741691e-02 
       6.122441198393e-05       3.990533412823e-02 
       6.610859938837e-05       4.297372242518e-02 
       7.138242363583e-05       4.627802054836e-02 
       7.707696806873e-05       4.983636159871e-02 
       8.322579570814e-05       5.366826786916e-02 
       8.986514707061e-05       5.779476319715e-02 
       9.703415376577e-05       6.223848221817e-02 
       1.047750691338e-04       6.702379825001e-02 
       1.131335172818e-04       7.217695031058e-02 
       1.221587619877e-04       7.772619030339e-02 
       1.319039970550e-04       8.370193380016e-02 
       1.424266598317e-04       9.013692506642e-02 
       1.537887697396e-04       9.706641130373e-02 
       1.660572938097e-04       1.045283343108e-01 
       1.793045413791e-04       1.125635329183e-01 
       1.936085902737e-04       1.212159592307e-01 
       2.090537469909e-04       1.305329107433e-01 
       2.257310435923e-04       1.405652819358e-01 
       2.437387742372e-04       1.513678275073e-01 
       2.631830745176e-04       1.629994475131e-01 
       2.841785470091e-04       1.755234890476e-01 
       3.068489367268e-04       1.890080645297e-01 
       3.313278604643e-04       2.035263977430e-01 
       3.577595943165e-04       2.191571778043e-01 
       3.862999240274e-04       2.359849423259e-01 
       4.171170631739e-04       2.541004713001e-01 
       4.503926445983e-04       2.736012061159e-01 
       4.863227909323e-04       2.945916774643e-01 
       5.251192705226e-04       3.171839507864e-01 
       5.670107455699e-04       3.414980769108e-01 
       6.122441198393e-04       3.676625416301e-01 
       6.610859938837e-04       3.958147272866e-01 
       7.138242363583e-04       4.261013332066e-01 
       7.707696806873e-04       4.586787880851e-01 
       8.322579570814e-04       4.937136112823e-01 
       8.986514707061e-04       5.313826962079e-01 
       9.703415376577e-04       5.718735176807e-01 
       1.047750691338e-03       6.153841926254e-01 
       1.131335172818e-03       6.621233623127e-01 
       1.221587619877e-03       7.123098743657e-01 
       1.319039970550e-03       7.661721263791e-01 
       1.424266598317e-03       8.239547181305e-01 
       1.537887697396e-03       8.859012282817e-01 
       1.660572938097e-03       9.522589495749e-01 
       1.793045413791e-03       1.023280284736e+00 
       1.936085902737e-03       1.099216542126e+00 
       2.090537469909e-03       1.180313285058e+00 
       2.257310435923e-03       1.266804486831e+00 
       2.437387742372e-03       1.358905328488e+00 
       2.631830745176e-03       1.456803285976e+00 
       2.841785470091e-03       1.560647663064e+00 
       3.068489367268e-03       1.670537010605e+00 
       3.313278604643e-03       1.786505039668e+00 
       3.577595943165e-03       1.908504410148e+00 
       3.862999240274e-03       2.036389468787e+00 
       4.171170631739e-03       2.169898252828e+00 
       4.503926445983e-03       2.308634491991e+00 
       4.863227909323e-03       2.452050674790e+00 
       5.251192705226e-03       2.599434681137e+00 
       5.670107455699e-03       2.749901126455e+00 
       6.122441198393e-03       2.902390058303e+00 
       6.610859938837e-03       3.055671269785e+00 
       7.138242363583e-03       3.208360122785e+00 
       7.707696806873e-03       3.358926651285e+00 
       8.322579570814e-03       3.505726889788e+00 
       8.986514707061e-03       3.647012437786e+00 
       9.703415376577e-03       3.780926179327e+00 
       1.047750691338e-02       3.905492880751e+00 
       1.131335172818e-02       4.018589826226e+00 
       1.221587619877e-02       4.117902889167e+00 
       1.319039970550e-02       4.200917701016e+00 
       1.424266598317e-02       4.264943721664e+00 
       1.537887697392e-02       4.307219628347e+00 
       1.660572938023e-02       4.325062384290e+00 
       1.793045412706e-02       4.316060362236e+00 
       1.936085890181e-02       4.278228856637e+00 
       2.090537352463e-02       4.210204530483e+00 
       2.257309535333e-02       4.111418689031e+00 
       2.437382002918e-02       3.982420935713e+00 
       2.631799944462e-02       3.825168672832e+00 
       2.841644545389e-02       3.643282233037e+00 
       3.067933355377e-02       3.442198680778e+00 
       3.311368470740e-02       3.229241556271e+00 
       3.571840443502e-02       3.013516273433e+00 
       3.847720348444e-02       2.805283854870e+00 
       4.135335538431e-02       2.614410542020e+00 
       4.429361667738e-02       2.448132010129e+00 
       4.724366439141e-02       2.309240412963e+00 
       5.016480835311e-02       2.196114883856e+00 
       5.303989620246e-02       2.104369456291e+00 
       5.586870669566e-02       2.028462080660e+00 
       5.866042680613e-02       1.963154669761e+00 
       6.142798932958e-02       1.903778915307e+00 
       6.418496440164e-02       1.846478234655e+00 
       6.694418833788e-02       1.788196298346e+00 
       6.971731106057e-02       1.726714259705e+00 
       7.251476155766e-02       1.660652707436e+00 
       7.534587671527e-02       1.589467880645e+00 
       7.821907666265e-02       1.513434278554e+00 
       8.114203772912e-02       1.433566127842e+00 
       8.412184535029e-02       1.351489276381e+00 
       8.716512279304e-02       1.269270334394e+00 
       9.027813695930e-02       1.189189442098e+00 
       9.346688431697e-02       1.113496954288e+00 
       9.673716028276e-02       1.044169942462e+00 
       1.000946150830e-01       9.827010722991e-01 
       1.035447986537e-01       9.299307760713e-01 
       1.070931966762e-01       8.859526825068e-01 
       1.107452594425e-01       8.500645601863e-01 
       1.145064249153e-01       8.207964350925e-01 
       1.183821370918e-01       7.960167207358e-01 
       1.223778605862e-01       7.731372666169e-01 
       1.264990921987e-01       7.494419522872e-01 
       1.307513701367e-01       7.225469526784e-01 
       1.351402814784e-01       6.908975355996e-01 
       1.396714684203e-01       6.541690518424e-01 
       1.443506338194e-01       6.134138044012e-01 
       1.491835465229e-01       5.708542975781e-01 
       1.541760469708e-01       5.293502125004e-01 
       1.593340535561e-01       4.916958211773e-01 
       1.646635702297e-01       4.599041532919e-01 
       1.701706958456e-01       4.347111241306e-01 
       1.758616357459e-01       4.153902591924e-01 
       1.817427160982e-01       3.999184906153e-01 
       1.878204015065e-01       3.856620449291e-01 
       1.941013164283e-01       3.697874465013e-01 
       2.005922709503e-01       3.505229961998e-01 
       2.073002914972e-01       3.280177561171e-01 
       2.142326570816e-01       3.041876035285e-01 
       2.213969417533e-01       2.815844020733e-01 
       2.288010639706e-01       2.622279595448e-01 
       2.364533437147e-01       2.469311999968e-01 
       2.443625682930e-01       2.349803075159e-01 
       2.525380679504e-01       2.243831274524e-01 
       2.609898026346e-01       2.130570327556e-01 
       2.697284615565e-01       2.000627508369e-01 
       2.787655775689e-01       1.859789927964e-01 
       2.881136588829e-01       1.724741358242e-01 
       2.977863412677e-01       1.610206548620e-01 
       3.077985646929e-01       1.517131223536e-01 
       3.181667794071e-01       1.435087272786e-01 
       3.289091877812e-01       1.351278462754e-01 
       3.400460299658e-01       1.261078399828e-01 
       3.515999236474e-01       1.171424492143e-01 
       3.635962711085e-01       1.091144323468e-01 
       3.760637506334e-01       1.022436467314e-01 
       3.890349143879e-01       9.586813816748e-02 
       4.025469216825e-01       8.943437961024e-02 
       4.166424456376e-01       8.303460730411e-02 
       4.313708035863e-01       7.713427967842e-02 
       4.467893782977e-01       7.181499713804e-02 
       4.629654199664e-01       6.677869074327e-02 
       4.799783501994e-01       6.182236303131e-02 
       4.979227319373e-01       5.712191504335e-02 
       5.169121270864e-01       5.279688384543e-02 
       5.370841404489e-01       4.865786968031e-02 
       5.586070464571e-01       4.467257398957e-02 
       5.816885094930e-01       4.092666819413e-02 
       6.065870144995e-01       3.735709316231e-02 
       6.336266468475e-01       3.393536132912e-02 
       6.632156059511e-01       3.068462611149e-02 
       6.958678639263e-01       2.756833293967e-02 
       7.322247985589e-01       2.459584953069e-02 
       7.730680195114e-01       2.175576375739e-02 
       8.193049553677e-01       1.905796958331e-02 
       8.718988016039e-01       1.651488153713e-02 
       9.317218031082e-01       1.415138897231e-02 
       9.993660908989e-01       1.199713384041e-02 
       1.075037110174e+00       1.007628293410e-02 
       1.158653485707e+00       8.398631082200e-03 
       1.250099157308e+00       6.957218048693e-03 
       1.349432401273e+00       5.730568441259e-03 
       1.456947457397e+00       4.692443212927e-03 
       1.573135111331e+00       3.816290024588e-03 
       1.698621895592e+00       3.077957183246e-03 
       1.834127512934e+00       2.456699848908e-03 
       1.980444934528e+00       1.934947916693e-03 
       2.138435191726e+00       1.498237351118e-03 
       2.309029199186e+00       1.134728942082e-03 
       2.493232377687e+00       8.347140224945e-04 
       2.692130395285e+00       5.903313653238e-04 
       2.906895534573e+00       3.954488458137e-04 
       3.138793597714e+00       2.449163563335e-04 
       3.389191366484e+00       1.344248331419e-04 
       3.659564657905e+00       5.980192482835e-05 
       3.951507022538e+00       1.684711349362e-05 
       4.266739136701e+00       5.805609449058e-07 
       4.607118943941e+00       4.982262720408e-06 
       4.974652605557e+00       2.297596208017e-05 
       5.371506324689e+00       4.665889418378e-05 
       5.800019113685e+00       6.815507383446e-05 
       6.262716579983e+00       8.069115669958e-05 
       6.762325811764e+00       8.044739026268e-05 
       7.301791451110e+00       6.728074373562e-05 
       7.884293049406e+00       4.563440446615e-05 
       8.513263807261e+00       2.276590539123e-05 
       9.192410809424e+00       6.165980989378e-06 
       9.925736873929e+00       3.947959242242e-08 
       1.071756414427e+01       3.032830216379e-06 
       1.157255956364e+01       9.150033602851e-06 
       1.249576238137e+01       1.184157318789e-05 
       1.349261385375e+01       8.824239940899e-06 
       1.456898931416e+01       3.290277415200e-06 
       1.573123280165e+01       1.487154333929e-07 
       1.698619445202e+01       6.813572027079e-07 
       1.834127087176e+01       1.945707310550e-06 
       1.980444873285e+01       1.500703726557e-06 
       2.138435184532e+01       2.630480437269e-07 
       2.309029198506e+01       6.321026806681e-08 
       2.493232377636e+01       3.683381599950e-07 
       2.692130395282e+01       1.774985417389e-07 
       2.906895534573e+01       6.482426495107e-11 
       3.138793597714e+01       6.127290502300e-08 
       3.389191366484e+01       2.015930019021e-08 
       3.659564657905e+01       1.611023522049e-09 
       3.951507022538e+01       1.135194174452e-08 
       4.266739136701e+01       6.389187552761e-11 
       4.607118943941e+01       3.165656824498e-09 
       4.974652605557e+01       2.116208063674e-12 
       5.371506324689e+01       9.975308052143e-10 
       5.800019113685e+01       4.498471321989e-12 
       6.262716579983e+01       1.263675780461e-10 
       6.762325811764e+01       9.528594118157e-11 
       7.301791451110e+01       7.350233341151e-10 
       7.884293049406e+01       7.674517385877e-10 
       8.513263807261e+01       1.723532370801e-10 
       9.192410809424e+01       6.491594800210e-10 
       9.925736873929e+01       4.549806522648e-11 
       1.071756414427e+02       2.174579518585e-11 
       1.157255956364e+02       5.878524018946e-10 
       1.249576238137e+02       4.344555803047e-09 
       1.349261385375e+02       7.666535704495e-09 
