# Matter power spectrum P(k) at redshift z=99
# for k=1.04775e-05 to 67.6233 h/Mpc,
# number of wavenumbers equal to 246
#    1:k (h/Mpc)              2:P (Mpc/h)^3        
       1.047750691338e-05       7.261927673119e-03 
       1.131335172818e-05       7.820331745737e-03 
       1.221587619877e-05       8.421675986489e-03 
       1.319039970550e-05       9.069258192194e-03 
       1.424266598317e-05       9.766638404421e-03 
       1.537887697396e-05       1.051764069682e-02 
       1.660572938097e-05       1.132639105520e-02 
       1.793045413791e-05       1.219733231416e-02 
       1.936085902737e-05       1.313524224380e-02 
       2.090537469909e-05       1.414527121893e-02 
       2.257310435923e-05       1.523296272192e-02 
       2.437387742372e-05       1.640429444530e-02 
       2.631830745176e-05       1.766569582177e-02 
       2.841785470091e-05       1.902408601793e-02 
       3.068489367268e-05       2.048692970591e-02 
       3.313278604643e-05       2.206225513594e-02 
       3.577595943165e-05       2.375870704909e-02 
       3.862999240274e-05       2.558560727479e-02 
       4.171170631739e-05       2.755297763344e-02 
       4.503926445983e-05       2.967161927315e-02 
       4.863227909323e-05       3.195316450832e-02 
       5.251192705226e-05       3.441013519284e-02 
       5.670107455699e-05       3.705601722526e-02 
       6.122441198393e-05       3.990533413560e-02 
       6.610859938837e-05       4.297372168203e-02 
       7.138242363583e-05       4.627802141688e-02 
       7.707696806873e-05       4.983636194159e-02 
       8.322579570814e-05       5.366826847231e-02 
       8.986514707061e-05       5.779476394569e-02 
       9.703415376577e-05       6.223848243885e-02 
       1.047750691338e-04       6.702379865640e-02 
       1.131335172818e-04       7.217695153381e-02 
       1.221587619877e-04       7.772619073573e-02 
       1.319039970550e-04       8.370193432376e-02 
       1.424266598317e-04       9.013692507549e-02 
       1.537887697396e-04       9.706641242570e-02 
       1.660572938097e-04       1.045283354271e-01 
       1.793045413791e-04       1.125635349068e-01 
       1.936085902737e-04       1.212159614968e-01 
       2.090537469909e-04       1.305329132714e-01 
       2.257310435923e-04       1.405652846215e-01 
       2.437387742372e-04       1.513678302540e-01 
       2.631830745176e-04       1.629994504871e-01 
       2.841785470091e-04       1.755234921224e-01 
       3.068489367268e-04       1.890080670413e-01 
       3.313278604643e-04       2.035264002435e-01 
       3.577595943165e-04       2.191571803681e-01 
       3.862999240274e-04       2.359849437593e-01 
       4.171170631739e-04       2.541004741539e-01 
       4.503926445983e-04       2.736012080278e-01 
       4.863227909323e-04       2.945916790965e-01 
       5.251192705226e-04       3.171839525183e-01 
       5.670107455699e-04       3.414980764002e-01 
       6.122441198393e-04       3.676625413100e-01 
       6.610859938837e-04       3.958147252304e-01 
       7.138242363583e-04       4.261013284911e-01 
       7.707696806873e-04       4.586787792352e-01 
       8.322579570814e-04       4.937136001379e-01 
       8.986514707061e-04       5.313826801402e-01 
       9.703415376577e-04       5.718734972157e-01 
       1.047750691338e-03       6.153841629505e-01 
       1.131335172818e-03       6.621233239465e-01 
       1.221587619877e-03       7.123098220421e-01 
       1.319039970550e-03       7.661720584412e-01 
       1.424266598317e-03       8.239546297726e-01 
       1.537887697396e-03       8.859011173466e-01 
       1.660572938097e-03       9.522588006417e-01 
       1.793045413791e-03       1.023280099819e+00 
       1.936085902737e-03       1.099216304579e+00 
       2.090537469909e-03       1.180312990453e+00 
       2.257310435923e-03       1.266804115851e+00 
       2.437387742372e-03       1.358904853406e+00 
       2.631830745176e-03       1.456802683156e+00 
       2.841785470091e-03       1.560646890522e+00 
       3.068489367268e-03       1.670536062499e+00 
       3.313278604643e-03       1.786503852153e+00 
       3.577595943165e-03       1.908502930788e+00 
       3.862999240274e-03       2.036387730709e+00 
       4.171170631739e-03       2.169896177453e+00 
       4.503926445983e-03       2.308631878994e+00 
       4.863227909323e-03       2.452047290962e+00 
       5.251192705226e-03       2.599430628088e+00 
       5.670107455699e-03       2.749896931840e+00 
       6.122441198393e-03       2.902386513385e+00 
       6.610859938837e-03       3.055668706276e+00 
       7.138242363583e-03       3.208356461543e+00 
       7.707696806873e-03       3.358923891914e+00 
       8.322579570814e-03       3.505725594995e+00 
       8.986514707061e-03       3.647009657682e+00 
       9.703415376577e-03       3.780923304267e+00 
       1.047750691338e-02       3.905489735480e+00 
       1.131335172818e-02       4.018588070250e+00 
       1.221587619877e-02       4.117901585457e+00 
       1.319039970550e-02       4.200915362363e+00 
       1.424266598317e-02       4.264942429524e+00 
       1.537887697392e-02       4.307218320317e+00 
       1.660572938023e-02       4.325061223346e+00 
       1.793045412706e-02       4.316057679895e+00 
       1.936085890181e-02       4.278230131696e+00 
       2.090537352463e-02       4.210201600980e+00 
       2.257309535333e-02       4.111418924707e+00 
       2.437382002918e-02       3.982425281061e+00 
       2.631799944462e-02       3.825168435266e+00 
       2.841644545389e-02       3.643280910710e+00 
       3.067933355377e-02       3.442193736149e+00 
       3.311368470740e-02       3.229237139718e+00 
       3.571840443502e-02       3.013516470303e+00 
       3.847720348444e-02       2.805288676663e+00 
       4.135335538431e-02       2.614406140270e+00 
       4.429361667738e-02       2.448134698884e+00 
       4.724366439141e-02       2.309232709093e+00 
       5.016480835311e-02       2.196115084323e+00 
       5.303989620246e-02       2.104364500964e+00 
       5.586870669566e-02       2.028463211378e+00 
       5.866042680613e-02       1.963149003960e+00 
       6.142798932958e-02       1.903778562722e+00 
       6.418496440164e-02       1.846482251497e+00 
       6.694418833788e-02       1.788197183782e+00 
       6.971731106057e-02       1.726717337031e+00 
       7.251476155766e-02       1.660649123715e+00 
       7.534587671527e-02       1.589472186408e+00 
       7.821907666265e-02       1.513437544299e+00 
       8.114203772912e-02       1.433571004756e+00 
       8.412184535029e-02       1.351490860872e+00 
       8.716512279304e-02       1.269273112754e+00 
       9.027813695930e-02       1.189195098276e+00 
       9.346688431697e-02       1.113501046180e+00 
       9.673716028276e-02       1.044172671181e+00 
       1.000946150830e-01       9.827055118210e-01 
       1.035447986537e-01       9.299365949859e-01 
       1.070931966762e-01       8.859592626798e-01 
       1.107452594425e-01       8.500711721638e-01 
       1.145064249153e-01       8.208040165406e-01 
       1.183821370918e-01       7.960258989734e-01 
       1.223778605862e-01       7.731477173579e-01 
       1.264990921987e-01       7.494514995465e-01 
       1.307513701367e-01       7.225577792588e-01 
       1.351402814784e-01       6.909078272705e-01 
       1.396714684203e-01       6.541820349914e-01 
       1.443506338194e-01       6.134277392678e-01 
       1.491835465229e-01       5.708681685711e-01 
       1.541760469708e-01       5.293640310957e-01 
       1.593340535561e-01       4.917115075715e-01 
       1.646635702297e-01       4.599209499593e-01 
       1.701706958456e-01       4.347281726619e-01 
       1.758616357459e-01       4.154086564312e-01 
       1.817427160982e-01       3.999379053018e-01 
       1.878204015065e-01       3.856823518411e-01 
       1.941013164283e-01       3.698102478112e-01 
       2.005922709503e-01       3.505466664176e-01 
       2.073002914972e-01       3.280439390446e-01 
       2.142326570816e-01       3.042140235617e-01 
       2.213969417533e-01       2.816128391264e-01 
       2.288010639706e-01       2.622568887339e-01 
       2.364533437147e-01       2.469625130802e-01 
       2.443625682930e-01       2.350127167908e-01 
       2.525380679504e-01       2.244184581231e-01 
       2.609898026346e-01       2.130934404157e-01 
       2.697284615565e-01       2.001014477309e-01 
       2.787655775689e-01       1.860201940108e-01 
       2.881136588829e-01       1.725170818466e-01 
       2.977863412677e-01       1.610661721225e-01 
       3.077985646929e-01       1.517604294394e-01 
       3.181667794071e-01       1.435598872367e-01 
       3.289091877812e-01       1.351815426375e-01 
       3.400460299658e-01       1.261647195767e-01 
       3.515999236474e-01       1.172017485837e-01 
       3.635962711085e-01       1.091769316504e-01 
       3.760637506334e-01       1.023095258445e-01 
       3.890349143879e-01       9.593786410917e-02 
       4.025469216825e-01       8.950783766220e-02 
       4.166424456376e-01       8.311190494938e-02 
       4.313708035863e-01       7.721558387534e-02 
       4.467893782977e-01       7.190058783233e-02 
       4.629654199664e-01       6.686908440905e-02 
       4.799783501994e-01       6.191744269919e-02 
       4.979227319373e-01       5.722229397792e-02 
       5.169121270864e-01       5.290283494234e-02 
       5.370841404489e-01       4.876993019184e-02 
       5.586070464571e-01       4.479097267873e-02 
       5.816885094930e-01       4.105191181854e-02 
       6.065870144995e-01       3.748998067155e-02 
       6.336266468475e-01       3.407632020217e-02 
       6.632156059511e-01       3.083451419202e-02 
       6.958678639263e-01       2.772830112889e-02 
       7.322247985589e-01       2.476711074781e-02 
       7.730680195114e-01       2.193953977779e-02 
       8.193049553677e-01       1.925614185610e-02 
       8.718988016039e-01       1.672925116320e-02 
       9.317218031082e-01       1.438419696105e-02 
       9.993660908989e-01       1.225067341368e-02 
       1.075037110174e+00       1.035262439477e-02 
       1.158653485707e+00       8.699723824557e-03 
       1.250099157308e+00       7.284580487494e-03 
       1.349432401273e+00       6.085438130125e-03 
       1.456947457397e+00       5.075714802115e-03 
       1.573135111331e+00       4.228311940355e-03 
       1.698621895592e+00       3.518530451961e-03 
       1.834127512934e+00       2.924980178440e-03 
       1.980444934528e+00       2.429159740612e-03 
       2.138435191726e+00       2.015507107920e-03 
       2.309029199186e+00       1.670768633677e-03 
       2.493232377687e+00       1.383784202867e-03 
       2.692130395285e+00       1.145115510720e-03 
       2.906895534573e+00       9.468438421598e-04 
       3.138793597714e+00       7.822723708671e-04 
       3.389191366484e+00       6.458050277764e-04 
       3.659564657905e+00       5.327533929563e-04 
       3.951507022538e+00       4.391695153817e-04 
       4.266739136701e+00       3.617691154782e-04 
       4.607118943941e+00       2.978047435435e-04 
       4.974652605557e+00       2.449909319540e-04 
       5.371506324689e+00       2.014112341315e-04 
       5.800019113685e+00       1.654804978624e-04 
       6.262716579983e+00       1.358741885310e-04 
       6.762325811764e+00       1.114996366604e-04 
       7.301791451110e+00       9.144305009702e-05 
       7.884293049406e+00       7.495171954273e-05 
       8.513263807261e+00       6.139868163251e-05 
       9.192410809424e+00       5.026810505872e-05 
       9.925736873929e+00       4.113195579054e-05 
       1.071756414427e+01       3.363766670841e-05 
       1.157255956364e+01       2.749286066450e-05 
       1.249576238137e+01       2.245709098525e-05 
       1.349261385375e+01       1.833256534690e-05 
       1.456898931416e+01       1.495584334190e-05 
       1.573123280165e+01       1.219255483417e-05 
       1.698619445202e+01       9.932216884435e-06 
       1.834127087176e+01       8.084001239700e-06 
       1.980444873285e+01       6.573329121891e-06 
       2.138435184532e+01       5.338891020611e-06 
       2.309029198506e+01       4.330599155331e-06 
       2.493232377636e+01       3.507122501154e-06 
       2.692130395282e+01       2.834810448688e-06 
       2.906895534573e+01       2.286003234267e-06 
       3.138793597714e+01       1.838192048388e-06 
       3.389191366484e+01       1.472824848064e-06 
       3.659564657905e+01       1.174863566228e-06 
       3.951507022538e+01       9.319968063798e-07 
       4.266739136701e+01       7.342257565042e-07 
       4.607118943941e+01       5.733803758883e-07 
       4.974652605557e+01       4.428423703223e-07 
       5.371506324689e+01       3.372618785154e-07 
       5.800019113685e+01       2.522805978849e-07 
       6.262716579983e+01       1.843951861312e-07 
       6.762325811764e+01       1.307644026502e-07 
