# Matter power spectrum P(k) at redshift z=0
# for k=1.04775e-05 to 67.6233 h/Mpc,
# number of wavenumbers equal to 246
#    1:k (h/Mpc)              2:P (Mpc/h)^3        
       1.047750691338e-05       5.020964806749e+01 
       1.131335172818e-05       5.407048206554e+01 
       1.221587619877e-05       5.822819063560e+01 
       1.319039970550e-05       6.270562589679e+01 
       1.424266598317e-05       6.752731788102e+01 
       1.537887697396e-05       7.271977200257e+01 
       1.660572938097e-05       7.831147241542e+01 
       1.793045413791e-05       8.433311815128e+01 
       1.936085902737e-05       9.081778242446e+01 
       2.090537469909e-05       9.780108061339e+01 
       2.257310435923e-05       1.053213197032e+02 
       2.437387742372e-05       1.134197377001e+02 
       2.631830745176e-05       1.221408202816e+02 
       2.841785470091e-05       1.315324720916e+02 
       3.068489367268e-05       1.416462093729e+02 
       3.313278604643e-05       1.525374500691e+02 
       3.577595943165e-05       1.642660687078e+02 
       3.862999240274e-05       1.768963504868e+02 
       4.171170631739e-05       1.904975992460e+02 
       4.503926445983e-05       2.051444490305e+02 
       4.863227909323e-05       2.209171463752e+02 
       5.251192705226e-05       2.379022222314e+02 
       5.670107455699e-05       2.561927926143e+02 
       6.122441198393e-05       2.758890441791e+02 
       6.610859938837e-05       2.970989225465e+02 
       7.138242363583e-05       3.199385558200e+02 
       7.707696806873e-05       3.445329780878e+02 
       8.322579570814e-05       3.710167315928e+02 
       8.986514707061e-05       3.995346440954e+02 
       9.703415376577e-05       4.302425403884e+02 
       1.047750691338e-04       4.633080762974e+02 
       1.131335172818e-04       4.989116267507e+02 
       1.221587619877e-04       5.372471946561e+02 
       1.319039970550e-04       5.785234124635e+02 
       1.424266598317e-04       6.229645930980e+02 
       1.537887697396e-04       6.708118484951e+02 
       1.660572938097e-04       7.223242660220e+02 
       1.793045413791e-04       7.777801554444e+02 
       1.936085902737e-04       8.374783607333e+02 
       2.090537469909e-04       9.017396264495e+02 
       2.257310435923e-04       9.709080260152e+02 
       2.437387742372e-04       1.045352448644e+03 
       2.631830745176e-04       1.125468122836e+03 
       2.841785470091e-04       1.211678179511e+03 
       3.068489367268e-04       1.304435249091e+03 
       3.313278604643e-04       1.404223052541e+03 
       3.577595943165e-04       1.511558013390e+03 
       3.862999240274e-04       1.626990836450e+03 
       4.171170631739e-04       1.751108027370e+03 
       4.503926445983e-04       1.884533381345e+03 
       4.863227909323e-04       2.027929376470e+03 
       5.251192705226e-04       2.181998446367e+03 
       5.670107455699e-04       2.347484100857e+03 
       6.122441198393e-04       2.525171869336e+03 
       6.610859938837e-04       2.715889981402e+03 
       7.138242363583e-04       2.920509686084e+03 
       7.707696806873e-04       3.139945097711e+03 
       8.322579570814e-04       3.375152334396e+03 
       8.986514707061e-04       3.627127828230e+03 
       9.703415376577e-04       3.896905450016e+03 
       1.047750691338e-03       4.185552170957e+03 
       1.131335172818e-03       4.494162426791e+03 
       1.221587619877e-03       4.823850702661e+03 
       1.319039970550e-03       5.175742738900e+03 
       1.424266598317e-03       5.551019592522e+03 
       1.537887697396e-03       5.950788335884e+03 
       1.660572938097e-03       6.376123046808e+03 
       1.793045413791e-03       6.828073896125e+03 
       1.936085902737e-03       7.307625375386e+03 
       2.090537469909e-03       7.815671858010e+03 
       2.257310435923e-03       8.352990369398e+03 
       2.437387742372e-03       8.920211057538e+03 
       2.631830745176e-03       9.517783061890e+03 
       2.841785470091e-03       1.014593703671e+04 
       3.068489367268e-03       1.080464505736e+04 
       3.313278604643e-03       1.149357459433e+04 
       3.577595943165e-03       1.221203620826e+04 
       3.862999240274e-03       1.295892538505e+04 
       4.171170631739e-03       1.373266002293e+04 
       4.503926445983e-03       1.453111834595e+04 
       4.863227909323e-03       1.535154984222e+04 
       5.251192705226e-03       1.619063613407e+04 
       5.670107455699e-03       1.704431256568e+04 
       6.122441198393e-03       1.790755938460e+04 
       6.610859938837e-03       1.877460421402e+04 
       7.138242363583e-03       1.963872429150e+04 
       7.707696806873e-03       2.049215713343e+04 
       8.322579570814e-03       2.132606911658e+04 
       8.986514707061e-03       2.213055084753e+04 
       9.703415376577e-03       2.289445470997e+04 
       1.047750691338e-02       2.360548847882e+04 
       1.131335172818e-02       2.425022856339e+04 
       1.221587619877e-02       2.481423921675e+04 
       1.319039970550e-02       2.528218615382e+04 
       1.424266598317e-02       2.563814361201e+04 
       1.537887697392e-02       2.586606345756e+04 
       1.660572938023e-02       2.595026081409e+04 
       1.793045412706e-02       2.587635027092e+04 
       1.936085890181e-02       2.563217853172e+04 
       2.090537352463e-02       2.520935858749e+04 
       2.257309535333e-02       2.460446604095e+04 
       2.437382002918e-02       2.382087756894e+04 
       2.631799944462e-02       2.287043043884e+04 
       2.841644545389e-02       2.177451846799e+04 
       3.067933355377e-02       2.056555594491e+04 
       3.311368470740e-02       1.928730444558e+04 
       3.571840443502e-02       1.799404872174e+04 
       3.847720348444e-02       1.674683567153e+04 
       4.135335538431e-02       1.560458021508e+04 
       4.429361667738e-02       1.461039931284e+04 
       4.724366439141e-02       1.378053697831e+04 
       5.016480835311e-02       1.310509851256e+04 
       5.303989620246e-02       1.255715276591e+04 
       5.586870669566e-02       1.210427222196e+04 
       5.866042680613e-02       1.171464923207e+04 
       6.142798932958e-02       1.136045113853e+04 
       6.418496440164e-02       1.101855142564e+04 
       6.694418833788e-02       1.067070196784e+04 
       6.971731106057e-02       1.030356947676e+04 
       7.251476155766e-02       9.909024672800e+03 
       7.534587671527e-02       9.483791878260e+03 
       7.821907666265e-02       9.029502798419e+03 
       8.114203772912e-02       8.552344519481e+03 
       8.412184535029e-02       8.061906946602e+03 
       8.716512279304e-02       7.570770678665e+03 
       9.027813695930e-02       7.092480449274e+03 
       9.346688431697e-02       6.640525823191e+03 
       9.673716028276e-02       6.226711545065e+03 
       1.000946150830e-01       5.859958714228e+03 
       1.035447986537e-01       5.545237007468e+03 
       1.070931966762e-01       5.283126643389e+03 
       1.107452594425e-01       5.069420839073e+03 
       1.145064249153e-01       4.895251144307e+03 
       1.183821370918e-01       4.747834242587e+03 
       1.223778605862e-01       4.611744365446e+03 
       1.264990921987e-01       4.470639667180e+03 
       1.307513701367e-01       4.310268407870e+03 
       1.351402814784e-01       4.121385433743e+03 
       1.396714684203e-01       3.902073339988e+03 
       1.443506338194e-01       3.658645620345e+03 
       1.491835465229e-01       3.404480287005e+03 
       1.541760469708e-01       3.156674910781e+03 
       1.593340535561e-01       2.931977613562e+03 
       1.646635702297e-01       2.742376837158e+03 
       1.701706958456e-01       2.592257326738e+03 
       1.758616357459e-01       2.477238082011e+03 
       1.817427160982e-01       2.385182262574e+03 
       1.878204015065e-01       2.300360213946e+03 
       1.941013164283e-01       2.205764066502e+03 
       2.005922709503e-01       2.090817215538e+03 
       2.073002914972e-01       1.956463931317e+03 
       2.142326570816e-01       1.814192211352e+03 
       2.213969417533e-01       1.679295233731e+03 
       2.288010639706e-01       1.563846402121e+03 
       2.364533437147e-01       1.472685149027e+03 
       2.443625682930e-01       1.401513845630e+03 
       2.525380679504e-01       1.338415817822e+03 
       2.609898026346e-01       1.270901552757e+03 
       2.697284615565e-01       1.193382828970e+03 
       2.787655775689e-01       1.109336890897e+03 
       2.881136588829e-01       1.028766317868e+03 
       2.977863412677e-01       9.604820656511e+02 
       3.077985646929e-01       9.050225765534e+02 
       3.181667794071e-01       8.561450255306e+02 
       3.289091877812e-01       8.061872600069e+02 
       3.400460299658e-01       7.523906790186e+02 
       3.515999236474e-01       6.989215181147e+02 
       3.635962711085e-01       6.510625124224e+02 
       3.760637506334e-01       6.101204064703e+02 
       3.890349143879e-01       5.721296136709e+02 
       4.025469216825e-01       5.337822944565e+02 
       4.166424456376e-01       4.956322547434e+02 
       4.313708035863e-01       4.604679039273e+02 
       4.467893782977e-01       4.287792192835e+02 
       4.629654199664e-01       3.987722397525e+02 
       4.799783501994e-01       3.692405975545e+02 
       4.979227319373e-01       3.412390947693e+02 
       5.169121270864e-01       3.154824817939e+02 
       5.370841404489e-01       2.908353051970e+02 
       5.586070464571e-01       2.671066930224e+02 
       5.816885094930e-01       2.448092870609e+02 
       6.065870144995e-01       2.235658748956e+02 
       6.336266468475e-01       2.032098396194e+02 
       6.632156059511e-01       1.838786214145e+02 
       6.958678639263e-01       1.653541826445e+02 
       7.322247985589e-01       1.476947197525e+02 
       7.730680195114e-01       1.308334491692e+02 
       8.193049553677e-01       1.148309685205e+02 
       8.718988016039e-01       9.976203147349e+01 
       9.317218031082e-01       8.577768387902e+01 
       9.993660908989e-01       7.305478034219e+01 
       1.075037110174e+00       6.173577160492e+01 
       1.158653485707e+00       5.187898289228e+01 
       1.250099157308e+00       4.344009479607e+01 
       1.349432401273e+00       3.628933209396e+01 
       1.456947457397e+00       3.026792037752e+01 
       1.573135111331e+00       2.521453078203e+01 
       1.698621895592e+00       2.098196396424e+01 
       1.834127512934e+00       1.744227392855e+01 
       1.980444934528e+00       1.448561913755e+01 
       2.138435191726e+00       1.201887438743e+01 
       2.309029199186e+00       9.963126710064e+00 
       2.493232377687e+00       8.251838860603e+00 
       2.692130395285e+00       6.828545098253e+00 
       2.906895534573e+00       5.646207598637e+00 
       3.138793597714e+00       4.664840905392e+00 
       3.389191366484e+00       3.851124718947e+00 
       3.659564657905e+00       3.176941242594e+00 
       3.951507022538e+00       2.618869413648e+00 
       4.266739136701e+00       2.157341724535e+00 
       4.607118943941e+00       1.775920281614e+00 
       4.974652605557e+00       1.460986488499e+00 
       5.371506324689e+00       1.201120539084e+00 
       5.800019113685e+00       9.868792791936e-01 
       6.262716579983e+00       8.103474784391e-01 
       6.762325811764e+00       6.650059220180e-01 
       7.301791451110e+00       5.454222251418e-01 
       7.884293049406e+00       4.470933079287e-01 
       8.513263807261e+00       3.662933002362e-01 
       9.192410809424e+00       2.999365907422e-01 
       9.925736873929e+00       2.454780034778e-01 
       1.071756414427e+01       2.008057807497e-01 
       1.157255956364e+01       1.641813036271e-01 
       1.249576238137e+01       1.341752551395e-01 
       1.349261385375e+01       1.095998322392e-01 
       1.456898931416e+01       8.948638938024e-02 
       1.573123280165e+01       7.303103585405e-02 
       1.698619445202e+01       5.957603879296e-02 
       1.834127087176e+01       4.857880461063e-02 
       1.980444873285e+01       3.959525491846e-02 
       2.138435184532e+01       3.225901835050e-02 
       2.309029198506e+01       2.627141893329e-02 
       2.493232377636e+01       2.138654902723e-02 
       2.692130395282e+01       1.740292383780e-02 
       2.906895534573e+01       1.415569938536e-02 
       3.138793597714e+01       1.150962505370e-02 
       3.389191366484e+01       9.354397946962e-03 
       3.659564657905e+01       7.599594799175e-03 
       3.951507022538e+01       6.171533341041e-03 
       4.266739136701e+01       5.009651725467e-03 
       4.607118943941e+01       4.064726494898e-03 
       4.974652605557e+01       3.296615108163e-03 
       5.371506324689e+01       2.672342902709e-03 
       5.800019113685e+01       2.165259969037e-03 
       6.262716579983e+01       1.753489516099e-03 
       6.762325811764e+01       1.419247385965e-03 
