# Matter power spectrum P(k) at redshift z=0
# for k=1.04775e-05 to 67.6233 h/Mpc,
# number of wavenumbers equal to 246
#    1:k (h/Mpc)              2:P (Mpc/h)^3        
       1.047750691338e-05       5.020964806750e+01 
       1.131335172818e-05       5.407048206553e+01 
       1.221587619877e-05       5.822819063817e+01 
       1.319039970550e-05       6.270562589684e+01 
       1.424266598317e-05       6.752731788102e+01 
       1.537887697396e-05       7.271977200258e+01 
       1.660572938097e-05       7.831147241542e+01 
       1.793045413791e-05       8.433311815128e+01 
       1.936085902737e-05       9.081778242446e+01 
       2.090537469909e-05       9.780108061341e+01 
       2.257310435923e-05       1.053213197032e+02 
       2.437387742372e-05       1.134197377001e+02 
       2.631830745176e-05       1.221408202816e+02 
       2.841785470091e-05       1.315324720917e+02 
       3.068489367268e-05       1.416462093729e+02 
       3.313278604643e-05       1.525374500691e+02 
       3.577595943165e-05       1.642660687078e+02 
       3.862999240274e-05       1.768963504868e+02 
       4.171170631739e-05       1.904975992460e+02 
       4.503926445983e-05       2.051444490305e+02 
       4.863227909323e-05       2.209171463752e+02 
       5.251192705226e-05       2.379022222314e+02 
       5.670107455699e-05       2.561927925583e+02 
       6.122441198393e-05       2.758890441791e+02 
       6.610859938837e-05       2.970989225466e+02 
       7.138242363583e-05       3.199385558200e+02 
       7.707696806873e-05       3.445329780878e+02 
       8.322579570814e-05       3.710167315928e+02 
       8.986514707061e-05       3.995346440954e+02 
       9.703415376577e-05       4.302425403884e+02 
       1.047750691338e-04       4.633080762974e+02 
       1.131335172818e-04       4.989116267507e+02 
       1.221587619877e-04       5.372471946561e+02 
       1.319039970550e-04       5.785234124631e+02 
       1.424266598317e-04       6.229645929806e+02 
       1.537887697396e-04       6.708118484951e+02 
       1.660572938097e-04       7.223242660220e+02 
       1.793045413791e-04       7.777801552947e+02 
       1.936085902737e-04       8.374783607333e+02 
       2.090537469909e-04       9.017396264495e+02 
       2.257310435923e-04       9.709080260152e+02 
       2.437387742372e-04       1.045352448644e+03 
       2.631830745176e-04       1.125468122836e+03 
       2.841785470091e-04       1.211678179511e+03 
       3.068489367268e-04       1.304435249091e+03 
       3.313278604643e-04       1.404223052541e+03 
       3.577595943165e-04       1.511558013390e+03 
       3.862999240274e-04       1.626990836508e+03 
       4.171170631739e-04       1.751108027370e+03 
       4.503926445983e-04       1.884533381345e+03 
       4.863227909323e-04       2.027929376470e+03 
       5.251192705226e-04       2.181998446367e+03 
       5.670107455699e-04       2.347484100857e+03 
       6.122441198393e-04       2.525171869337e+03 
       6.610859938837e-04       2.715889981401e+03 
       7.138242363583e-04       2.920509686095e+03 
       7.707696806873e-04       3.139945097711e+03 
       8.322579570814e-04       3.375152334395e+03 
       8.986514707061e-04       3.627127828230e+03 
       9.703415376577e-04       3.896905450015e+03 
       1.047750691338e-03       4.185552170974e+03 
       1.131335172818e-03       4.494162426790e+03 
       1.221587619877e-03       4.823850702672e+03 
       1.319039970550e-03       5.175742735208e+03 
       1.424266598317e-03       5.551019592520e+03 
       1.537887697396e-03       5.950788335881e+03 
       1.660572938097e-03       6.376123046797e+03 
       1.793045413791e-03       6.828073896120e+03 
       1.936085902737e-03       7.307625375380e+03 
       2.090537469909e-03       7.815671900379e+03 
       2.257310435923e-03       8.352990369385e+03 
       2.437387742372e-03       8.920211057515e+03 
       2.631830745176e-03       9.517783061873e+03 
       2.841785470091e-03       1.014593703669e+04 
       3.068489367268e-03       1.080464505738e+04 
       3.313278604643e-03       1.149357459505e+04 
       3.577595943165e-03       1.221203620822e+04 
       3.862999240274e-03       1.295892538500e+04 
       4.171170631739e-03       1.373266002315e+04 
       4.503926445983e-03       1.453111834587e+04 
       4.863227909323e-03       1.535154983922e+04 
       5.251192705226e-03       1.619063611631e+04 
       5.670107455699e-03       1.704431256544e+04 
       6.122441198393e-03       1.790755939506e+04 
       6.610859938837e-03       1.877460413328e+04 
       7.138242363583e-03       1.963872432548e+04 
       7.707696806873e-03       2.049215713208e+04 
       8.322579570814e-03       2.132607244901e+04 
       8.986514707061e-03       2.213055069519e+04 
       9.703415376577e-03       2.289445484543e+04 
       1.047750691338e-02       2.360548142885e+04 
       1.131335172818e-02       2.425023183266e+04 
       1.221587619877e-02       2.481423927368e+04 
       1.319039970550e-02       2.528218729930e+04 
       1.424266598317e-02       2.563814442379e+04 
       1.537887697392e-02       2.586606693113e+04 
       1.660572938023e-02       2.595028574019e+04 
       1.793045412706e-02       2.587634794139e+04 
       1.936085890181e-02       2.563218400442e+04 
       2.090537352463e-02       2.520937050642e+04 
       2.257309535333e-02       2.460446194281e+04 
       2.437382002918e-02       2.382089221132e+04 
       2.631799944462e-02       2.287043360616e+04 
       2.841644545389e-02       2.177450548656e+04 
       3.067933355377e-02       2.056553896820e+04 
       3.311368470740e-02       1.928728039890e+04 
       3.571840443502e-02       1.799403516404e+04 
       3.847720348444e-02       1.674686861806e+04 
       4.135335538431e-02       1.560459360994e+04 
       4.429361667738e-02       1.461037962481e+04 
       4.724366439141e-02       1.378050616945e+04 
       5.016480835311e-02       1.310505352315e+04 
       5.303989620246e-02       1.255719211747e+04 
       5.586870669566e-02       1.210430273236e+04 
       5.866042680613e-02       1.171471352665e+04 
       6.142798932958e-02       1.136052410557e+04 
       6.418496440164e-02       1.101865043828e+04 
       6.694418833788e-02       1.067072895841e+04 
       6.971731106057e-02       1.030362774295e+04 
       7.251476155766e-02       9.909057814838e+03 
       7.534587671527e-02       9.483822763076e+03 
       7.821907666265e-02       9.029518497411e+03 
       8.114203772912e-02       8.552376890127e+03 
       8.412184535029e-02       8.061960014052e+03 
       8.716512279304e-02       7.570806113876e+03 
       9.027813695930e-02       7.092502541532e+03 
       9.346688431697e-02       6.640554784806e+03 
       9.673716028276e-02       6.226728508157e+03 
       1.000946150830e-01       5.859985938855e+03 
       1.035447986537e-01       5.545288759873e+03 
       1.070931966762e-01       5.283168070357e+03 
       1.107452594425e-01       5.069432275338e+03 
       1.145064249153e-01       4.895240281217e+03 
       1.183821370918e-01       4.747881952864e+03 
       1.223778605862e-01       4.611735476883e+03 
       1.264990921987e-01       4.470608268549e+03 
       1.307513701367e-01       4.310225052709e+03 
       1.351402814784e-01       4.121331749303e+03 
       1.396714684203e-01       3.902064254440e+03 
       1.443506338194e-01       3.658648699615e+03 
       1.491835465229e-01       3.404489290320e+03 
       1.541760469708e-01       3.156665802823e+03 
       1.593340535561e-01       2.931931532152e+03 
       1.646635702297e-01       2.742365218322e+03 
       1.701706958456e-01       2.592251156499e+03 
       1.758616357459e-01       2.477225677785e+03 
       1.817427160982e-01       2.385162542157e+03 
       1.878204015065e-01       2.300363799607e+03 
       1.941013164283e-01       2.205765171961e+03 
       2.005922709503e-01       2.090814870164e+03 
       2.073002914972e-01       1.956471486027e+03 
       2.142326570816e-01       1.814180399058e+03 
       2.213969417533e-01       1.679275363935e+03 
       2.288010639706e-01       1.563836302541e+03 
       2.364533437147e-01       1.472675555993e+03 
       2.443625682930e-01       1.401505598908e+03 
       2.525380679504e-01       1.338419150894e+03 
       2.609898026346e-01       1.270902147801e+03 
       2.697284615565e-01       1.193361280231e+03 
       2.787655775689e-01       1.109332691861e+03 
       2.881136588829e-01       1.028762263423e+03 
       2.977863412677e-01       9.604751956916e+02 
       3.077985646929e-01       9.050157528180e+02 
       3.181667794071e-01       8.561373641020e+02 
       3.289091877812e-01       8.061815155479e+02 
       3.400460299658e-01       7.523831417021e+02 
       3.515999236474e-01       6.989154440253e+02 
       3.635962711085e-01       6.510565464163e+02 
       3.760637506334e-01       6.101198647082e+02 
       3.890349143879e-01       5.721272448068e+02 
       4.025469216825e-01       5.337753247357e+02 
       4.166424456376e-01       4.956253713670e+02 
       4.313708035863e-01       4.604649645669e+02 
       4.467893782977e-01       4.287704440344e+02 
       4.629654199664e-01       3.987698085264e+02 
       4.799783501994e-01       3.692357367408e+02 
       4.979227319373e-01       3.412380386610e+02 
       5.169121270864e-01       3.154786650699e+02 
       5.370841404489e-01       2.908317188200e+02 
       5.586070464571e-01       2.671030629099e+02 
       5.816885094930e-01       2.448055680681e+02 
       6.065870144995e-01       2.235655789204e+02 
       6.336266468475e-01       2.032095013813e+02 
       6.632156059511e-01       1.838775471731e+02 
       6.958678639263e-01       1.653535452928e+02 
       7.322247985589e-01       1.476944049202e+02 
       7.730680195114e-01       1.308330944712e+02 
       8.193049553677e-01       1.148308397157e+02 
       8.718988016039e-01       9.976215438553e+01 
       9.317218031082e-01       8.577691118640e+01 
       9.993660908989e-01       7.305422838903e+01 
       1.075037110174e+00       6.173531625247e+01 
       1.158653485707e+00       5.187820099518e+01 
       1.250099157308e+00       4.343946353940e+01 
       1.349432401273e+00       3.628830640609e+01 
       1.456947457397e+00       3.026727030397e+01 
       1.573135111331e+00       2.521389296127e+01 
       1.698621895592e+00       2.098126842102e+01 
       1.834127512934e+00       1.744156323480e+01 
       1.980444934528e+00       1.448484554548e+01 
       2.138435191726e+00       1.201793837769e+01 
       2.309029199186e+00       9.962173989348e+00 
       2.493232377687e+00       8.250732139672e+00 
       2.692130395285e+00       6.827419131304e+00 
       2.906895534573e+00       5.644916937884e+00 
       3.138793597714e+00       4.663486022513e+00 
       3.389191366484e+00       3.849585083507e+00 
       3.659564657905e+00       3.175319352706e+00 
       3.951507022538e+00       2.617127794359e+00 
       4.266739136701e+00       2.155476525891e+00 
       4.607118943941e+00       1.773884015162e+00 
       4.974652605557e+00       1.458783691603e+00 
       5.371506324689e+00       1.198733054548e+00 
       5.800019113685e+00       9.842795297758e-01 
       6.262716579983e+00       8.075400825522e-01 
       6.762325811764e+00       6.619706640839e-01 
       7.301791451110e+00       5.421367275990e-01 
       7.884293049406e+00       4.435416428213e-01 
       8.513263807261e+00       3.624624118741e-01 
       9.192410809424e+00       2.958015765332e-01 
       9.925736873929e+00       2.410234031715e-01 
       1.071756414427e+01       1.960153124848e-01 
       1.157255956364e+01       1.590418441600e-01 
       1.249576238137e+01       1.286721851174e-01 
       1.349261385375e+01       1.037250115970e-01 
       1.456898931416e+01       8.323501491699e-02 
       1.573123280165e+01       6.640480437590e-02 
       1.698619445202e+01       5.258503614558e-02 
       1.834127087176e+01       4.124324192577e-02 
       1.980444873285e+01       3.194843195467e-02 
       2.138435184532e+01       2.434952699433e-02 
       2.309029198506e+01       1.816627994787e-02 
       2.493232377636e+01       1.317297998532e-02 
       2.692130395282e+01       9.190075455900e-03 
       2.906895534573e+01       6.075313542306e-03 
       3.138793597714e+01       3.713777881152e-03 
       3.389191366484e+01       2.009894829333e-03 
       3.659564657905e+01       8.794395446173e-04 
       3.951507022538e+01       2.405025859263e-04 
       4.266739136701e+01       6.520070480446e-06 
       4.607118943941e+01       8.067354803758e-05 
       4.974652605557e+01       3.539908280428e-04 
       5.371506324689e+01       7.090040030075e-04 
       5.800019113685e+01       1.030086913864e-03 
       6.262716579983e+01       1.220677524997e-03 
       6.762325811764e+01       1.223298376499e-03 
