# Matter power spectrum P(k) at redshift z=99
# for k=1.04775e-05 to 67.6233 h/Mpc,
# number of wavenumbers equal to 246
#    1:k (h/Mpc)              2:P (Mpc/h)^3        
       1.047750691338e-05       7.261927673119e-03 
       1.131335172818e-05       7.820331745737e-03 
       1.221587619877e-05       8.421675986488e-03 
       1.319039970550e-05       9.069258192194e-03 
       1.424266598317e-05       9.766638404421e-03 
       1.537887697396e-05       1.051764069682e-02 
       1.660572938097e-05       1.132639105520e-02 
       1.793045413791e-05       1.219733231416e-02 
       1.936085902737e-05       1.313524224380e-02 
       2.090537469909e-05       1.414527121893e-02 
       2.257310435923e-05       1.523296272192e-02 
       2.437387742372e-05       1.640429444530e-02 
       2.631830745176e-05       1.766569582177e-02 
       2.841785470091e-05       1.902408601793e-02 
       3.068489367268e-05       2.048692970592e-02 
       3.313278604643e-05       2.206225513594e-02 
       3.577595943165e-05       2.375870704909e-02 
       3.862999240274e-05       2.558560727479e-02 
       4.171170631739e-05       2.755297763344e-02 
       4.503926445983e-05       2.967161927314e-02 
       4.863227909323e-05       3.195316450832e-02 
       5.251192705226e-05       3.441013519284e-02 
       5.670107455699e-05       3.705601722524e-02 
       6.122441198393e-05       3.990533413562e-02 
       6.610859938837e-05       4.297372168203e-02 
       7.138242363583e-05       4.627802141688e-02 
       7.707696806873e-05       4.983636194159e-02 
       8.322579570814e-05       5.366826847231e-02 
       8.986514707061e-05       5.779476394568e-02 
       9.703415376577e-05       6.223848243885e-02 
       1.047750691338e-04       6.702379865640e-02 
       1.131335172818e-04       7.217695153381e-02 
       1.221587619877e-04       7.772619073571e-02 
       1.319039970550e-04       8.370193432376e-02 
       1.424266598317e-04       9.013692507548e-02 
       1.537887697396e-04       9.706641242570e-02 
       1.660572938097e-04       1.045283354271e-01 
       1.793045413791e-04       1.125635349068e-01 
       1.936085902737e-04       1.212159614968e-01 
       2.090537469909e-04       1.305329132714e-01 
       2.257310435923e-04       1.405652846215e-01 
       2.437387742372e-04       1.513678302540e-01 
       2.631830745176e-04       1.629994504870e-01 
       2.841785470091e-04       1.755234921224e-01 
       3.068489367268e-04       1.890080670413e-01 
       3.313278604643e-04       2.035264002435e-01 
       3.577595943165e-04       2.191571803681e-01 
       3.862999240274e-04       2.359849437593e-01 
       4.171170631739e-04       2.541004741539e-01 
       4.503926445983e-04       2.736012080278e-01 
       4.863227909323e-04       2.945916790965e-01 
       5.251192705226e-04       3.171839525183e-01 
       5.670107455699e-04       3.414980764002e-01 
       6.122441198393e-04       3.676625413100e-01 
       6.610859938837e-04       3.958147252304e-01 
       7.138242363583e-04       4.261013284907e-01 
       7.707696806873e-04       4.586787792351e-01 
       8.322579570814e-04       4.937136001350e-01 
       8.986514707061e-04       5.313826801402e-01 
       9.703415376577e-04       5.718734972158e-01 
       1.047750691338e-03       6.153841629505e-01 
       1.131335172818e-03       6.621233239466e-01 
       1.221587619877e-03       7.123098220419e-01 
       1.319039970550e-03       7.661720584614e-01 
       1.424266598317e-03       8.239546297729e-01 
       1.537887697396e-03       8.859011173467e-01 
       1.660572938097e-03       9.522588006421e-01 
       1.793045413791e-03       1.023280099819e+00 
       1.936085902737e-03       1.099216304579e+00 
       2.090537469909e-03       1.180312990454e+00 
       2.257310435923e-03       1.266804115853e+00 
       2.437387742372e-03       1.358904853406e+00 
       2.631830745176e-03       1.456802683156e+00 
       2.841785470091e-03       1.560646890521e+00 
       3.068489367268e-03       1.670536062500e+00 
       3.313278604643e-03       1.786503852155e+00 
       3.577595943165e-03       1.908502930789e+00 
       3.862999240274e-03       2.036387730709e+00 
       4.171170631739e-03       2.169896178818e+00 
       4.503926445983e-03       2.308631878993e+00 
       4.863227909323e-03       2.452047290961e+00 
       5.251192705226e-03       2.599430628086e+00 
       5.670107455699e-03       2.749896931797e+00 
       6.122441198393e-03       2.902386513380e+00 
       6.610859938837e-03       3.055668699011e+00 
       7.138242363583e-03       3.208356461538e+00 
       7.707696806873e-03       3.358923893629e+00 
       8.322579570814e-03       3.505724932986e+00 
       8.986514707061e-03       3.647009256285e+00 
       9.703415376577e-03       3.780923304308e+00 
       1.047750691338e-02       3.905491211726e+00 
       1.131335172818e-02       4.018588275041e+00 
       1.221587619877e-02       4.117901587183e+00 
       1.319039970550e-02       4.200915318824e+00 
       1.424266598317e-02       4.264942339750e+00 
       1.537887697392e-02       4.307219111306e+00 
       1.660572938023e-02       4.325064643132e+00 
       1.793045412706e-02       4.316058378420e+00 
       1.936085890181e-02       4.278230310741e+00 
       2.090537352463e-02       4.210205460192e+00 
       2.257309535333e-02       4.111420025991e+00 
       2.437382002918e-02       3.982421779992e+00 
       2.631799944462e-02       3.825172129610e+00 
       2.841644545389e-02       3.643279518000e+00 
       3.067933355377e-02       3.442195183854e+00 
       3.311368470740e-02       3.229236338600e+00 
       3.571840443502e-02       3.013515484093e+00 
       3.847720348444e-02       2.805277028379e+00 
       4.135335538431e-02       2.614412701202e+00 
       4.429361667738e-02       2.448137097924e+00 
       4.724366439141e-02       2.309234879411e+00 
       5.016480835311e-02       2.196115937358e+00 
       5.303989620246e-02       2.104365219746e+00 
       5.586870669566e-02       2.028465185860e+00 
       5.866042680613e-02       1.963152489898e+00 
       6.142798932958e-02       1.903781908634e+00 
       6.418496440164e-02       1.846482802126e+00 
       6.694418833788e-02       1.788197511686e+00 
       6.971731106057e-02       1.726717505286e+00 
       7.251476155766e-02       1.660657423132e+00 
       7.534587671527e-02       1.589469457625e+00 
       7.821907666265e-02       1.513436485994e+00 
       8.114203772912e-02       1.433567482446e+00 
       8.412184535029e-02       1.351490984205e+00 
       8.716512279304e-02       1.269278668633e+00 
       9.027813695930e-02       1.189193876084e+00 
       9.346688431697e-02       1.113503040501e+00 
       9.673716028276e-02       1.044173772577e+00 
       1.000946150830e-01       9.827062934885e-01 
       1.035447986537e-01       9.299371882608e-01 
       1.070931966762e-01       8.859610031516e-01 
       1.107452594425e-01       8.500722364924e-01 
       1.145064249153e-01       8.208055867610e-01 
       1.183821370918e-01       7.960256938066e-01 
       1.223778605862e-01       7.731457928253e-01 
       1.264990921987e-01       7.494513748481e-01 
       1.307513701367e-01       7.225571187003e-01 
       1.351402814784e-01       6.909089246245e-01 
       1.396714684203e-01       6.541808184034e-01 
       1.443506338194e-01       6.134259289950e-01 
       1.491835465229e-01       5.708675874127e-01 
       1.541760469708e-01       5.293640443053e-01 
       1.593340535561e-01       4.917096748758e-01 
       1.646635702297e-01       4.599202509953e-01 
       1.701706958456e-01       4.347290493131e-01 
       1.758616357459e-01       4.154081352572e-01 
       1.817427160982e-01       3.999369924925e-01 
       1.878204015065e-01       3.856815903859e-01 
       1.941013164283e-01       3.698092309637e-01 
       2.005922709503e-01       3.505468724617e-01 
       2.073002914972e-01       3.280430235671e-01 
       2.142326570816e-01       3.042138137786e-01 
       2.213969417533e-01       2.816119497649e-01 
       2.288010639706e-01       2.622569369013e-01 
       2.364533437147e-01       2.469617228824e-01 
       2.443625682930e-01       2.350133872891e-01 
       2.525380679504e-01       2.244175812268e-01 
       2.609898026346e-01       2.130928777766e-01 
       2.697284615565e-01       2.001009465645e-01 
       2.787655775689e-01       1.860194266989e-01 
       2.881136588829e-01       1.725166897641e-01 
       2.977863412677e-01       1.610655782619e-01 
       3.077985646929e-01       1.517606430254e-01 
       3.181667794071e-01       1.435589217603e-01 
       3.289091877812e-01       1.351813124994e-01 
       3.400460299658e-01       1.261641846606e-01 
       3.515999236474e-01       1.172016082481e-01 
       3.635962711085e-01       1.091766307475e-01 
       3.760637506334e-01       1.023089541646e-01 
       3.890349143879e-01       9.593720995432e-02 
       4.025469216825e-01       8.950735080697e-02 
       4.166424456376e-01       8.311109799287e-02 
       4.313708035863e-01       7.721502659963e-02 
       4.467893782977e-01       7.190017809763e-02 
       4.629654199664e-01       6.686818638717e-02 
       4.799783501994e-01       6.191697210090e-02 
       4.979227319373e-01       5.722142978469e-02 
       5.169121270864e-01       5.290213687487e-02 
       5.370841404489e-01       4.876892557070e-02 
       5.586070464571e-01       4.478993173033e-02 
       5.816885094930e-01       4.105091746307e-02 
       6.065870144995e-01       3.748877874337e-02 
       6.336266468475e-01       3.407517040599e-02 
       6.632156059511e-01       3.083344313264e-02 
       6.958678639263e-01       2.772711808353e-02 
       7.322247985589e-01       2.476587123033e-02 
       7.730680195114e-01       2.193817774811e-02 
       8.193049553677e-01       1.925459799503e-02 
       8.718988016039e-01       1.672763184920e-02 
       9.317218031082e-01       1.438246895183e-02 
       9.993660908989e-01       1.224877986552e-02 
       1.075037110174e+00       1.035053644572e-02 
       1.158653485707e+00       8.697470468715e-03 
       1.250099157308e+00       7.282130034794e-03 
       1.349432401273e+00       6.082780509041e-03 
       1.456947457397e+00       5.072835543455e-03 
       1.573135111331e+00       4.225159987276e-03 
       1.698621895592e+00       3.515159280801e-03 
       1.834127512934e+00       2.921310810218e-03 
       1.980444934528e+00       2.425190877482e-03 
       2.138435191726e+00       2.011235165237e-03 
       2.309029199186e+00       1.666182066637e-03 
       2.493232377687e+00       1.378867471981e-03 
       2.692130395285e+00       1.139843699808e-03 
       2.906895534573e+00       9.411966728821e-04 
       3.138793597714e+00       7.762371531934e-04 
       3.389191366484e+00       6.393737588762e-04 
       3.659564657905e+00       5.258964208850e-04 
       3.951507022538e+00       4.318844787229e-04 
       4.266739136701e+00       3.540497780299e-04 
       4.607118943941e+00       2.896416481908e-04 
       4.974652605557e+00       2.363776897942e-04 
       5.371506324689e+00       1.923526187296e-04 
       5.800019113685e+00       1.559834797198e-04 
       6.262716579983e+00       1.259566842243e-04 
       6.762325811764e+00       1.011813857785e-04 
       7.301791451110e+00       8.075903832336e-05 
       7.884293049406e+00       6.394565366634e-05 
       8.513263807261e+00       5.013000067096e-05 
       9.192410809424e+00       3.880972491481e-05 
       9.925736873929e+00       2.957220547472e-05 
       1.071756414427e+01       2.208183268326e-05 
       1.157255956364e+01       1.606313074681e-05 
       1.249576238137e+01       1.129152449852e-05 
       1.349261385375e+01       7.580747515065e-06 
       1.456898931416e+01       4.775159309002e-06 
       1.573123280165e+01       2.740744271152e-06 
       1.698619445202e+01       1.357257887732e-06 
       1.834127087176e+01       5.124793013845e-07 
       1.980444873285e+01       9.703355922058e-08 
       2.138435184532e+01       1.905797565513e-09 
       2.309029198506e+01       1.185836643588e-07 
       2.493232377636e+01       3.424153241661e-07 
       2.692130395282e+01       5.791965744185e-07 
       2.906895534573e+01       7.538844811059e-07 
       3.138793597714e+01       8.197067812891e-07 
       3.389191366484e+01       7.644205315572e-07 
       3.659564657905e+01       6.103408949743e-07 
       3.951507022538e+01       4.061306226427e-07 
       4.266739136701e+01       2.102024038917e-07 
       4.607118943941e+01       7.025233182805e-08 
       4.974652605557e+01       6.324154517697e-09 
       5.371506324689e+01       5.779360276347e-09 
       5.800019113685e+01       3.371041899082e-08 
       6.262716579983e+01       5.428192023073e-08 
       6.762325811764e+01       5.040328192813e-08 
