# Matter power spectrum P(k) at redshift z=0
# for k=1.04775e-05 to 67.6233 h/Mpc,
# number of wavenumbers equal to 246
#    1:k (h/Mpc)              2:P (Mpc/h)^3        
       1.047750691338e-05       5.020964806749e+01 
       1.131335172818e-05       5.407048206554e+01 
       1.221587619877e-05       5.822819063941e+01 
       1.319039970550e-05       6.270562589677e+01 
       1.424266598317e-05       6.752731788102e+01 
       1.537887697396e-05       7.271977200258e+01 
       1.660572938097e-05       7.831147241542e+01 
       1.793045413791e-05       8.433311815128e+01 
       1.936085902737e-05       9.081778242446e+01 
       2.090537469909e-05       9.780108061340e+01 
       2.257310435923e-05       1.053213197032e+02 
       2.437387742372e-05       1.134197377001e+02 
       2.631830745176e-05       1.221408202816e+02 
       2.841785470091e-05       1.315324720916e+02 
       3.068489367268e-05       1.416462093730e+02 
       3.313278604643e-05       1.525374500691e+02 
       3.577595943165e-05       1.642660687078e+02 
       3.862999240274e-05       1.768963504868e+02 
       4.171170631739e-05       1.904975992460e+02 
       4.503926445983e-05       2.051444490305e+02 
       4.863227909323e-05       2.209171463752e+02 
       5.251192705226e-05       2.379022222314e+02 
       5.670107455699e-05       2.561927925493e+02 
       6.122441198393e-05       2.758890441791e+02 
       6.610859938837e-05       2.970989225465e+02 
       7.138242363583e-05       3.199385558200e+02 
       7.707696806873e-05       3.445329780878e+02 
       8.322579570814e-05       3.710167315928e+02 
       8.986514707061e-05       3.995346440954e+02 
       9.703415376577e-05       4.302425403884e+02 
       1.047750691338e-04       4.633080762974e+02 
       1.131335172818e-04       4.989116267507e+02 
       1.221587619877e-04       5.372471946561e+02 
       1.319039970550e-04       5.785234124635e+02 
       1.424266598317e-04       6.229645930980e+02 
       1.537887697396e-04       6.708118484951e+02 
       1.660572938097e-04       7.223242660219e+02 
       1.793045413791e-04       7.777801557179e+02 
       1.936085902737e-04       8.374783607333e+02 
       2.090537469909e-04       9.017396264495e+02 
       2.257310435923e-04       9.709080260151e+02 
       2.437387742372e-04       1.045352448644e+03 
       2.631830745176e-04       1.125468122836e+03 
       2.841785470091e-04       1.211678179510e+03 
       3.068489367268e-04       1.304435249091e+03 
       3.313278604643e-04       1.404223052541e+03 
       3.577595943165e-04       1.511558013390e+03 
       3.862999240274e-04       1.626990836481e+03 
       4.171170631739e-04       1.751108027370e+03 
       4.503926445983e-04       1.884533381345e+03 
       4.863227909323e-04       2.027929376470e+03 
       5.251192705226e-04       2.181998446367e+03 
       5.670107455699e-04       2.347484100856e+03 
       6.122441198393e-04       2.525171869337e+03 
       6.610859938837e-04       2.715889981400e+03 
       7.138242363583e-04       2.920509686088e+03 
       7.707696806873e-04       3.139945097709e+03 
       8.322579570814e-04       3.375152334393e+03 
       8.986514707061e-04       3.627127828228e+03 
       9.703415376577e-04       3.896905450012e+03 
       1.047750691338e-03       4.185552170953e+03 
       1.131335172818e-03       4.494162426784e+03 
       1.221587619877e-03       4.823850702664e+03 
       1.319039970550e-03       5.175742736540e+03 
       1.424266598317e-03       5.551019592538e+03 
       1.537887697396e-03       5.950788335856e+03 
       1.660572938097e-03       6.376123046758e+03 
       1.793045413791e-03       6.828073896099e+03 
       1.936085902737e-03       7.307625375350e+03 
       2.090537469909e-03       7.815671859562e+03 
       2.257310435923e-03       8.352990369341e+03 
       2.437387742372e-03       8.920211057454e+03 
       2.631830745176e-03       9.517783061793e+03 
       2.841785470091e-03       1.014593703659e+04 
       3.068489367268e-03       1.080464505736e+04 
       3.313278604643e-03       1.149357459431e+04 
       3.577595943165e-03       1.221203620801e+04 
       3.862999240274e-03       1.295892538474e+04 
       4.171170631739e-03       1.373266002102e+04 
       4.503926445983e-03       1.453111834546e+04 
       4.863227909323e-03       1.535154982456e+04 
       5.251192705226e-03       1.619063602953e+04 
       5.670107455699e-03       1.704431256063e+04 
       6.122441198393e-03       1.790755944531e+04 
       6.610859938837e-03       1.877460372475e+04 
       7.138242363583e-03       1.963872448868e+04 
       7.707696806873e-03       2.049215712200e+04 
       8.322579570814e-03       2.132611393218e+04 
       8.986514707061e-03       2.213055142509e+04 
       9.703415376577e-03       2.289445544465e+04 
       1.047750691338e-02       2.360548435911e+04 
       1.131335172818e-02       2.425022728592e+04 
       1.221587619877e-02       2.481423936290e+04 
       1.319039970550e-02       2.528219301209e+04 
       1.424266598317e-02       2.563814416426e+04 
       1.537887697392e-02       2.586607943339e+04 
       1.660572938023e-02       2.595024703688e+04 
       1.793045412706e-02       2.587637750712e+04 
       1.936085890181e-02       2.563219553128e+04 
       2.090537352463e-02       2.520932407979e+04 
       2.257309535333e-02       2.460449140636e+04 
       2.437382002918e-02       2.382096256597e+04 
       2.631799944462e-02       2.287038004836e+04 
       2.841644545389e-02       2.177447778962e+04 
       3.067933355377e-02       2.056559195014e+04 
       3.311368470740e-02       1.928725571383e+04 
       3.571840443502e-02       1.799407482661e+04 
       3.847720348444e-02       1.674677498728e+04 
       4.135335538431e-02       1.560456094622e+04 
       4.429361667738e-02       1.461031148091e+04 
       4.724366439141e-02       1.378055404844e+04 
       5.016480835311e-02       1.310505481943e+04 
       5.303989620246e-02       1.255720934018e+04 
       5.586870669566e-02       1.210420828535e+04 
       5.866042680613e-02       1.171469461488e+04 
       6.142798932958e-02       1.136048386914e+04 
       6.418496440164e-02       1.101860217274e+04 
       6.694418833788e-02       1.067068431621e+04 
       6.971731106057e-02       1.030353735509e+04 
       7.251476155766e-02       9.909073494676e+03 
       7.534587671527e-02       9.483704228559e+03 
       7.821907666265e-02       9.029413601974e+03 
       8.114203772912e-02       8.552234056475e+03 
       8.412184535029e-02       8.061978713587e+03 
       8.716512279304e-02       7.570795510011e+03 
       9.027813695930e-02       7.092493174474e+03 
       9.346688431697e-02       6.640521754775e+03 
       9.673716028276e-02       6.226737315202e+03 
       1.000946150830e-01       5.859954701279e+03 
       1.035447986537e-01       5.545264092822e+03 
       1.070931966762e-01       5.283147586394e+03 
       1.107452594425e-01       5.069427604853e+03 
       1.145064249153e-01       4.895248275725e+03 
       1.183821370918e-01       4.747846547334e+03 
       1.223778605862e-01       4.611735307358e+03 
       1.264990921987e-01       4.470614437321e+03 
       1.307513701367e-01       4.310271123171e+03 
       1.351402814784e-01       4.121362921935e+03 
       1.396714684203e-01       3.902033395568e+03 
       1.443506338194e-01       3.658656327175e+03 
       1.491835465229e-01       3.404476052923e+03 
       1.541760469708e-01       3.156660502868e+03 
       1.593340535561e-01       2.931930395281e+03 
       1.646635702297e-01       2.742349993867e+03 
       1.701706958456e-01       2.592239644004e+03 
       1.758616357459e-01       2.477225390869e+03 
       1.817427160982e-01       2.385153176838e+03 
       1.878204015065e-01       2.300323849208e+03 
       1.941013164283e-01       2.205715723619e+03 
       2.005922709503e-01       2.090786806415e+03 
       2.073002914972e-01       1.956440734013e+03 
       2.142326570816e-01       1.814169669134e+03 
       2.213969417533e-01       1.679256052693e+03 
       2.288010639706e-01       1.563823211542e+03 
       2.364533437147e-01       1.472655810355e+03 
       2.443625682930e-01       1.401488503742e+03 
       2.525380679504e-01       1.338386084894e+03 
       2.609898026346e-01       1.270871663142e+03 
       2.697284615565e-01       1.193351913154e+03 
       2.787655775689e-01       1.109312186404e+03 
       2.881136588829e-01       1.028735577969e+03 
       2.977863412677e-01       9.604489100267e+02 
       3.077985646929e-01       9.049868032165e+02 
       3.181667794071e-01       8.561047799021e+02 
       3.289091877812e-01       8.061465502266e+02 
       3.400460299658e-01       7.523489457757e+02 
       3.515999236474e-01       6.988770321202e+02 
       3.635962711085e-01       6.510163761173e+02 
       3.760637506334e-01       6.100751006683e+02 
       3.890349143879e-01       5.720815127825e+02 
       4.025469216825e-01       5.337261159625e+02 
       4.166424456376e-01       4.955739760693e+02 
       4.313708035863e-01       4.604095336745e+02 
       4.467893782977e-01       4.287139236001e+02 
       4.629654199664e-01       3.987071413208e+02 
       4.799783501994e-01       3.691724496085e+02 
       4.979227319373e-01       3.411655307547e+02 
       5.169121270864e-01       3.154071673504e+02 
       5.370841404489e-01       2.907549571644e+02 
       5.586070464571e-01       2.670206349081e+02 
       5.816885094930e-01       2.447176874896e+02 
       6.065870144995e-01       2.234713993727e+02 
       6.336266468475e-01       2.031065606401e+02 
       6.632156059511e-01       1.837690128277e+02 
       6.958678639263e-01       1.652372414781e+02 
       7.322247985589e-01       1.475690615693e+02 
       7.730680195114e-01       1.306978246795e+02 
       8.193049553677e-01       1.146839197046e+02 
       8.718988016039e-01       9.960210252829e+01 
       9.317218031082e-01       8.560283023646e+01 
       9.993660908989e-01       7.286284109509e+01 
       1.075037110174e+00       6.152508027402e+01 
       1.158653485707e+00       5.164725025588e+01 
       1.250099157308e+00       4.318507641621e+01 
       1.349432401273e+00       3.600926178355e+01 
       1.456947457397e+00       2.996053370868e+01 
       1.573135111331e+00       2.487790338617e+01 
       1.698621895592e+00       2.061415831502e+01 
       1.834127512934e+00       1.704134106310e+01 
       1.980444934528e+00       1.404968369909e+01 
       2.138435191726e+00       1.154627490292e+01 
       2.309029199186e+00       9.452354734312e+00 
       2.493232377687e+00       7.701792402378e+00 
       2.692130395285e+00       6.238858984316e+00 
       2.906895534573e+00       5.016975538486e+00 
       3.138793597714e+00       3.997174393747e+00 
       3.389191366484e+00       3.147237135254e+00 
       3.659564657905e+00       2.440625293539e+00 
       3.951507022538e+00       1.855582407112e+00 
       4.266739136701e+00       1.374546409760e+00 
       4.607118943941e+00       9.833163363939e-01 
       4.974652605557e+00       6.705878626555e-01 
       5.371506324689e+00       4.272614418902e-01 
       5.800019113685e+00       2.457722456664e-01 
       6.262716579983e+00       1.194130443783e-01 
       6.762325811764e+00       4.162639059415e-02 
       7.301791451110e+00       5.290019241693e-03 
       7.884293049406e+00       2.125762396841e-03 
       8.513263807261e+00       2.240283497970e-02 
       9.192410809424e+00       5.509948637298e-02 
       9.925736873929e+00       8.871352516081e-02 
       1.071756414427e+01       1.127826082955e-01 
       1.157255956364e+01       1.199215731537e-01 
       1.249576238137e+01       1.078109664816e-01 
       1.349261385375e+01       8.026761064306e-02 
       1.456898931416e+01       4.640129226486e-02 
       1.573123280165e+01       1.744741092421e-02 
       1.698619445202e+01       1.920214985411e-03 
       1.834127087176e+01       1.360953949742e-03 
       1.980444873285e+01       9.501983979756e-03 
       2.138435184532e+01       1.639845211231e-02 
       2.309029198506e+01       1.549349843576e-02 
       2.493232377636e+01       8.215598745681e-03 
       2.692130395282e+01       1.510569847524e-03 
       2.906895534573e+01       1.654712783458e-04 
       3.138793597714e+01       2.186028337739e-03 
       3.389191366484e+01       2.761748906033e-03 
       3.659564657905e+01       1.080677362531e-03 
       3.951507022538e+01       6.802641853369e-06 
       4.266739136701e+01       3.675447991929e-04 
       4.607118943941e+01       4.493743878515e-04 
       4.974652605557e+01       5.694588709237e-05 
       5.371506324689e+01       4.385244921693e-05 
       5.800019113685e+01       8.381872941641e-05 
       6.262716579983e+01       3.449471174575e-06 
       6.762325811764e+01       1.565989921216e-05 
