# Matter power spectrum P(k) at redshift z=99
# for k=1.04775e-05 to 67.6233 h/Mpc,
# number of wavenumbers equal to 246
#    1:k (h/Mpc)              2:P (Mpc/h)^3        
       1.047750691338e-05       7.261927673131e-03 
       1.131335172818e-05       7.820331745750e-03 
       1.221587619877e-05       8.421675986502e-03 
       1.319039970550e-05       9.069258192209e-03 
       1.424266598317e-05       9.766638404437e-03 
       1.537887697396e-05       1.051764069683e-02 
       1.660572938097e-05       1.132639105521e-02 
       1.793045413791e-05       1.219733231418e-02 
       1.936085902737e-05       1.313524224383e-02 
       2.090537469909e-05       1.414527121896e-02 
       2.257310435923e-05       1.523296272194e-02 
       2.437387742372e-05       1.640429444532e-02 
       2.631830745176e-05       1.766569582180e-02 
       2.841785470091e-05       1.902408601796e-02 
       3.068489367268e-05       2.048692970595e-02 
       3.313278604643e-05       2.206225513597e-02 
       3.577595943165e-05       2.375870704913e-02 
       3.862999240274e-05       2.558560727483e-02 
       4.171170631739e-05       2.755297763348e-02 
       4.503926445983e-05       2.967161927319e-02 
       4.863227909323e-05       3.195316450837e-02 
       5.251192705226e-05       3.441013519290e-02 
       5.670107455699e-05       3.705601722531e-02 
       6.122441198393e-05       3.990533413565e-02 
       6.610859938837e-05       4.297372168210e-02 
       7.138242363583e-05       4.627802141696e-02 
       7.707696806873e-05       4.983636194167e-02 
       8.322579570814e-05       5.366826847240e-02 
       8.986514707061e-05       5.779476394578e-02 
       9.703415376577e-05       6.223848243895e-02 
       1.047750691338e-04       6.702379865651e-02 
       1.131335172818e-04       7.217695153392e-02 
       1.221587619877e-04       7.772619073584e-02 
       1.319039970550e-04       8.370193432389e-02 
       1.424266598317e-04       9.013692507562e-02 
       1.537887697396e-04       9.706641242586e-02 
       1.660572938097e-04       1.045283354273e-01 
       1.793045413791e-04       1.125635349070e-01 
       1.936085902737e-04       1.212159614970e-01 
       2.090537469909e-04       1.305329132716e-01 
       2.257310435923e-04       1.405652846217e-01 
       2.437387742372e-04       1.513678302542e-01 
       2.631830745176e-04       1.629994504873e-01 
       2.841785470091e-04       1.755234921227e-01 
       3.068489367268e-04       1.890080670416e-01 
       3.313278604643e-04       2.035264002438e-01 
       3.577595943165e-04       2.191571803684e-01 
       3.862999240274e-04       2.359849437597e-01 
       4.171170631739e-04       2.541004741543e-01 
       4.503926445983e-04       2.736012080281e-01 
       4.863227909323e-04       2.945916790969e-01 
       5.251192705226e-04       3.171839525187e-01 
       5.670107455699e-04       3.414980764007e-01 
       6.122441198393e-04       3.676625413105e-01 
       6.610859938837e-04       3.958147252309e-01 
       7.138242363583e-04       4.261013284922e-01 
       7.707696806873e-04       4.586787792359e-01 
       8.322579570814e-04       4.937136001339e-01 
       8.986514707061e-04       5.313826801408e-01 
       9.703415376577e-04       5.718734972163e-01 
       1.047750691338e-03       6.153841629511e-01 
       1.131335172818e-03       6.621233239471e-01 
       1.221587619877e-03       7.123098220428e-01 
       1.319039970550e-03       7.661720584575e-01 
       1.424266598317e-03       8.239546297731e-01 
       1.537887697396e-03       8.859011173465e-01 
       1.660572938097e-03       9.522588006406e-01 
       1.793045413791e-03       1.023280099819e+00 
       1.936085902737e-03       1.099216304578e+00 
       2.090537469909e-03       1.180312990452e+00 
       2.257310435923e-03       1.266804115848e+00 
       2.437387742372e-03       1.358904853401e+00 
       2.631830745176e-03       1.456802683150e+00 
       2.841785470091e-03       1.560646890513e+00 
       3.068489367268e-03       1.670536062488e+00 
       3.313278604643e-03       1.786503852140e+00 
       3.577595943165e-03       1.908502930770e+00 
       3.862999240274e-03       2.036387730684e+00 
       4.171170631739e-03       2.169896178552e+00 
       4.503926445983e-03       2.308631878952e+00 
       4.863227909323e-03       2.452047290909e+00 
       5.251192705226e-03       2.599430628021e+00 
       5.670107455699e-03       2.749896931775e+00 
       6.122441198393e-03       2.902386513280e+00 
       6.610859938837e-03       3.055668712415e+00 
       7.138242363583e-03       3.208356461375e+00 
       7.707696806873e-03       3.358923891751e+00 
       8.322579570814e-03       3.505725595138e+00 
       8.986514707061e-03       3.647009658749e+00 
       9.703415376577e-03       3.780923303895e+00 
       1.047750691338e-02       3.905492156416e+00 
       1.131335172818e-02       4.018588039139e+00 
       1.221587619877e-02       4.117901584993e+00 
       1.319039970550e-02       4.200915354807e+00 
       1.424266598317e-02       4.264942710379e+00 
       1.537887697392e-02       4.307216249343e+00 
       1.660572938023e-02       4.325061029293e+00 
       1.793045412706e-02       4.316056856516e+00 
       1.936085890181e-02       4.278226820555e+00 
       2.090537352463e-02       4.210201518773e+00 
       2.257309535333e-02       4.111419867928e+00 
       2.437382002918e-02       3.982419586141e+00 
       2.631799944462e-02       3.825172865567e+00 
       2.841644545389e-02       3.643281791986e+00 
       3.067933355377e-02       3.442192658448e+00 
       3.311368470740e-02       3.229234268028e+00 
       3.571840443502e-02       3.013512738934e+00 
       3.847720348444e-02       2.805280319222e+00 
       4.135335538431e-02       2.614409524377e+00 
       4.429361667738e-02       2.448139065838e+00 
       4.724366439141e-02       2.309238351361e+00 
       5.016480835311e-02       2.196112361959e+00 
       5.303989620246e-02       2.104364999586e+00 
       5.586870669566e-02       2.028464594552e+00 
       5.866042680613e-02       1.963151593036e+00 
       6.142798932958e-02       1.903778553153e+00 
       6.418496440164e-02       1.846479904022e+00 
       6.694418833788e-02       1.788193766405e+00 
       6.971731106057e-02       1.726713913469e+00 
       7.251476155766e-02       1.660651797710e+00 
       7.534587671527e-02       1.589468520726e+00 
       7.821907666265e-02       1.513440858891e+00 
       8.114203772912e-02       1.433570968617e+00 
       8.412184535029e-02       1.351491441721e+00 
       8.716512279304e-02       1.269274714340e+00 
       9.027813695930e-02       1.189193208771e+00 
       9.346688431697e-02       1.113502784874e+00 
       9.673716028276e-02       1.044175417054e+00 
       1.000946150830e-01       9.827059355988e-01 
       1.035447986537e-01       9.299377100845e-01 
       1.070931966762e-01       8.859601500800e-01 
       1.107452594425e-01       8.500712093628e-01 
       1.145064249153e-01       8.208049606664e-01 
       1.183821370918e-01       7.960257224235e-01 
       1.223778605862e-01       7.731464906987e-01 
       1.264990921987e-01       7.494503376521e-01 
       1.307513701367e-01       7.225578320711e-01 
       1.351402814784e-01       6.909102347453e-01 
       1.396714684203e-01       6.541819287172e-01 
       1.443506338194e-01       6.134278430915e-01 
       1.491835465229e-01       5.708694229317e-01 
       1.541760469708e-01       5.293647027141e-01 
       1.593340535561e-01       4.917094490279e-01 
       1.646635702297e-01       4.599196685236e-01 
       1.701706958456e-01       4.347276258859e-01 
       1.758616357459e-01       4.154076045153e-01 
       1.817427160982e-01       3.999361309708e-01 
       1.878204015065e-01       3.856863176924e-01 
       1.941013164283e-01       3.698142483212e-01 
       2.005922709503e-01       3.505509067567e-01 
       2.073002914972e-01       3.280463741524e-01 
       2.142326570816e-01       3.042137080151e-01 
       2.213969417533e-01       2.816111540850e-01 
       2.288010639706e-01       2.622566034780e-01 
       2.364533437147e-01       2.469614102178e-01 
       2.443625682930e-01       2.350128529371e-01 
       2.525380679504e-01       2.244201424019e-01 
       2.609898026346e-01       2.130962232299e-01 
       2.697284615565e-01       2.001016083131e-01 
       2.787655775689e-01       1.860198515664e-01 
       2.881136588829e-01       1.725170290899e-01 
       2.977863412677e-01       1.610660345180e-01 
       3.077985646929e-01       1.517609566297e-01 
       3.181667794071e-01       1.435594337444e-01 
       3.289091877812e-01       1.351814220747e-01 
       3.400460299658e-01       1.261644254395e-01 
       3.515999236474e-01       1.172016858112e-01 
       3.635962711085e-01       1.091765792682e-01 
       3.760637506334e-01       1.023093027944e-01 
       3.890349143879e-01       9.593769947811e-02 
       4.025469216825e-01       8.950778537484e-02 
       4.166424456376e-01       8.311150611409e-02 
       4.313708035863e-01       7.721546767467e-02 
       4.467893782977e-01       7.190041278234e-02 
       4.629654199664e-01       6.686897176179e-02 
       4.799783501994e-01       6.191741088242e-02 
       4.979227319373e-01       5.722203871090e-02 
       5.169121270864e-01       5.290272155867e-02 
       5.370841404489e-01       4.876962106755e-02 
       5.586070464571e-01       4.479062720917e-02 
       5.816885094930e-01       4.105171405118e-02 
       6.065870144995e-01       3.748968955280e-02 
       6.336266468475e-01       3.407618021146e-02 
       6.632156059511e-01       3.083435435045e-02 
       6.958678639263e-01       2.772815922740e-02 
       7.322247985589e-01       2.476688775256e-02 
       7.730680195114e-01       2.193943050715e-02 
       8.193049553677e-01       1.925597898783e-02 
       8.718988016039e-01       1.672913575013e-02 
       9.317218031082e-01       1.438403367428e-02 
       9.993660908989e-01       1.225054908458e-02 
       1.075037110174e+00       1.035248300572e-02 
       1.158653485707e+00       8.699551276766e-03 
       1.250099157308e+00       7.284443106168e-03 
       1.349432401273e+00       6.085333126201e-03 
       1.456947457397e+00       5.075592198628e-03 
       1.573135111331e+00       4.228167649455e-03 
       1.698621895592e+00       3.518402474021e-03 
       1.834127512934e+00       2.924855548673e-03 
       1.980444934528e+00       2.429026611846e-03 
       2.138435191726e+00       2.015382187857e-03 
       2.309029199186e+00       1.670646028524e-03 
       2.493232377687e+00       1.383656856511e-03 
       2.692130395285e+00       1.144997174318e-03 
       2.906895534573e+00       9.467276718045e-04 
       3.138793597714e+00       7.821597220455e-04 
       3.389191366484e+00       6.456964991375e-04 
       3.659564657905e+00       5.326425282425e-04 
       3.951507022538e+00       4.390615614477e-04 
       4.266739136701e+00       3.616663160440e-04 
       4.607118943941e+00       2.977093409411e-04 
       4.974652605557e+00       2.448938759328e-04 
       5.371506324689e+00       2.013209791072e-04 
       5.800019113685e+00       1.653923391853e-04 
       6.262716579983e+00       1.357908327338e-04 
       6.762325811764e+00       1.114201045879e-04 
       7.301791451110e+00       9.136836388395e-05 
       7.884293049406e+00       7.488019070300e-05 
       8.513263807261e+00       6.133248309987e-05 
       9.192410809424e+00       5.020695676978e-05 
       9.925736873929e+00       4.107576343664e-05 
       1.071756414427e+01       3.358658976556e-05 
       1.157255956364e+01       2.744699363376e-05 
       1.249576238137e+01       2.241677885747e-05 
       1.349261385375e+01       1.829780296224e-05 
       1.456898931416e+01       1.492693152598e-05 
       1.573123280165e+01       1.216940768209e-05 
       1.698619445202e+01       9.915019431546e-06 
       1.834127087176e+01       8.072906655213e-06 
       1.980444873285e+01       6.568377905829e-06 
       2.138435184532e+01       5.340157807129e-06 
       2.309029198506e+01       4.338108080028e-06 
       2.493232377636e+01       3.520941843842e-06 
       2.692130395282e+01       2.854923453005e-06 
       2.906895534573e+01       2.312375752168e-06 
       3.138793597714e+01       1.870641666952e-06 
       3.389191366484e+01       1.511195667627e-06 
       3.659564657905e+01       1.218922570004e-06 
       3.951507022538e+01       9.814055175135e-07 
       4.266739136701e+01       7.885303784852e-07 
       4.607118943941e+01       6.320419623448e-07 
       4.974652605557e+01       5.051867261045e-07 
       5.371506324689e+01       4.024710357049e-07 
       5.800019113685e+01       3.194011407188e-07 
       6.262716579983e+01       2.523199804423e-07 
       6.762325811764e+01       1.982558607834e-07 
