# Matter power spectrum P(k) at redshift z=99
# for k=1.04775e-05 to 67.6233 h/Mpc,
# number of wavenumbers equal to 246
#    1:k (h/Mpc)              2:P (Mpc/h)^3        
       1.047750691338e-05       7.261927673119e-03 
       1.131335172818e-05       7.820331745737e-03 
       1.221587619877e-05       8.421675986489e-03 
       1.319039970550e-05       9.069258192194e-03 
       1.424266598317e-05       9.766638404421e-03 
       1.537887697396e-05       1.051764069681e-02 
       1.660572938097e-05       1.132639105520e-02 
       1.793045413791e-05       1.219733231416e-02 
       1.936085902737e-05       1.313524224380e-02 
       2.090537469909e-05       1.414527121893e-02 
       2.257310435923e-05       1.523296272192e-02 
       2.437387742372e-05       1.640429444530e-02 
       2.631830745176e-05       1.766569582177e-02 
       2.841785470091e-05       1.902408601793e-02 
       3.068489367268e-05       2.048692970591e-02 
       3.313278604643e-05       2.206225513594e-02 
       3.577595943165e-05       2.375870704909e-02 
       3.862999240274e-05       2.558560727479e-02 
       4.171170631739e-05       2.755297763344e-02 
       4.503926445983e-05       2.967161927315e-02 
       4.863227909323e-05       3.195316450832e-02 
       5.251192705226e-05       3.441013519284e-02 
       5.670107455699e-05       3.705601722528e-02 
       6.122441198393e-05       3.990533413562e-02 
       6.610859938837e-05       4.297372168203e-02 
       7.138242363583e-05       4.627802141688e-02 
       7.707696806873e-05       4.983636194159e-02 
       8.322579570814e-05       5.366826847231e-02 
       8.986514707061e-05       5.779476394569e-02 
       9.703415376577e-05       6.223848243885e-02 
       1.047750691338e-04       6.702379865640e-02 
       1.131335172818e-04       7.217695153381e-02 
       1.221587619877e-04       7.772619073572e-02 
       1.319039970550e-04       8.370193432376e-02 
       1.424266598317e-04       9.013692507548e-02 
       1.537887697396e-04       9.706641242570e-02 
       1.660572938097e-04       1.045283354271e-01 
       1.793045413791e-04       1.125635349068e-01 
       1.936085902737e-04       1.212159614968e-01 
       2.090537469909e-04       1.305329132714e-01 
       2.257310435923e-04       1.405652846215e-01 
       2.437387742372e-04       1.513678302540e-01 
       2.631830745176e-04       1.629994504870e-01 
       2.841785470091e-04       1.755234921224e-01 
       3.068489367268e-04       1.890080670413e-01 
       3.313278604643e-04       2.035264002435e-01 
       3.577595943165e-04       2.191571803681e-01 
       3.862999240274e-04       2.359849437593e-01 
       4.171170631739e-04       2.541004741539e-01 
       4.503926445983e-04       2.736012080278e-01 
       4.863227909323e-04       2.945916790965e-01 
       5.251192705226e-04       3.171839525182e-01 
       5.670107455699e-04       3.414980764002e-01 
       6.122441198393e-04       3.676625413100e-01 
       6.610859938837e-04       3.958147252304e-01 
       7.138242363583e-04       4.261013284921e-01 
       7.707696806873e-04       4.586787792354e-01 
       8.322579570814e-04       4.937136001348e-01 
       8.986514707061e-04       5.313826801401e-01 
       9.703415376577e-04       5.718734972157e-01 
       1.047750691338e-03       6.153841629505e-01 
       1.131335172818e-03       6.621233239466e-01 
       1.221587619877e-03       7.123098220418e-01 
       1.319039970550e-03       7.661720584761e-01 
       1.424266598317e-03       8.239546297724e-01 
       1.537887697396e-03       8.859011173466e-01 
       1.660572938097e-03       9.522588006418e-01 
       1.793045413791e-03       1.023280099819e+00 
       1.936085902737e-03       1.099216304579e+00 
       2.090537469909e-03       1.180312990454e+00 
       2.257310435923e-03       1.266804115852e+00 
       2.437387742372e-03       1.358904853406e+00 
       2.631830745176e-03       1.456802683156e+00 
       2.841785470091e-03       1.560646890522e+00 
       3.068489367268e-03       1.670536062499e+00 
       3.313278604643e-03       1.786503852162e+00 
       3.577595943165e-03       1.908502930789e+00 
       3.862999240274e-03       2.036387730709e+00 
       4.171170631739e-03       2.169896178552e+00 
       4.503926445983e-03       2.308631878994e+00 
       4.863227909323e-03       2.452047290962e+00 
       5.251192705226e-03       2.599430628088e+00 
       5.670107455699e-03       2.749896931807e+00 
       6.122441198393e-03       2.902386513383e+00 
       6.610859938837e-03       3.055668697829e+00 
       7.138242363583e-03       3.208356461543e+00 
       7.707696806873e-03       3.358923893054e+00 
       8.322579570814e-03       3.505725595170e+00 
       8.986514707061e-03       3.647009251981e+00 
       9.703415376577e-03       3.780923304320e+00 
       1.047750691338e-02       3.905490999999e+00 
       1.131335172818e-02       4.018588482425e+00 
       1.221587619877e-02       4.117901590921e+00 
       1.319039970550e-02       4.200915506039e+00 
       1.424266598317e-02       4.264942350121e+00 
       1.537887697392e-02       4.307218644036e+00 
       1.660572938023e-02       4.325060294315e+00 
       1.793045412706e-02       4.316059311775e+00 
       1.936085890181e-02       4.278228289604e+00 
       2.090537352463e-02       4.210203284245e+00 
       2.257309535333e-02       4.111420708825e+00 
       2.437382002918e-02       3.982420861654e+00 
       2.631799944462e-02       3.825163841928e+00 
       2.841644545389e-02       3.643287430855e+00 
       3.067933355377e-02       3.442189257263e+00 
       3.311368470740e-02       3.229240020665e+00 
       3.571840443502e-02       3.013511919940e+00 
       3.847720348444e-02       2.805294807785e+00 
       4.135335538431e-02       2.614421731430e+00 
       4.429361667738e-02       2.448137878664e+00 
       4.724366439141e-02       2.309236119176e+00 
       5.016480835311e-02       2.196113313719e+00 
       5.303989620246e-02       2.104366565332e+00 
       5.586870669566e-02       2.028462153125e+00 
       5.866042680613e-02       1.963157725382e+00 
       6.142798932958e-02       1.903781983948e+00 
       6.418496440164e-02       1.846481952965e+00 
       6.694418833788e-02       1.788198729768e+00 
       6.971731106057e-02       1.726711847142e+00 
       7.251476155766e-02       1.660650943058e+00 
       7.534587671527e-02       1.589471249554e+00 
       7.821907666265e-02       1.513439003225e+00 
       8.114203772912e-02       1.433568335947e+00 
       8.412184535029e-02       1.351489465241e+00 
       8.716512279304e-02       1.269272610690e+00 
       9.027813695930e-02       1.189192779235e+00 
       9.346688431697e-02       1.113500379367e+00 
       9.673716028276e-02       1.044174187575e+00 
       1.000946150830e-01       9.827063861497e-01 
       1.035447986537e-01       9.299378614540e-01 
       1.070931966762e-01       8.859577930606e-01 
       1.107452594425e-01       8.500711196991e-01 
       1.145064249153e-01       8.208037537707e-01 
       1.183821370918e-01       7.960256237182e-01 
       1.223778605862e-01       7.731463080006e-01 
       1.264990921987e-01       7.494504875427e-01 
       1.307513701367e-01       7.225584432322e-01 
       1.351402814784e-01       6.909090050195e-01 
       1.396714684203e-01       6.541809404861e-01 
       1.443506338194e-01       6.134276837020e-01 
       1.491835465229e-01       5.708680489798e-01 
       1.541760469708e-01       5.293631091415e-01 
       1.593340535561e-01       4.917111156590e-01 
       1.646635702297e-01       4.599198503669e-01 
       1.701706958456e-01       4.347279317942e-01 
       1.758616357459e-01       4.154084235729e-01 
       1.817427160982e-01       3.999378642393e-01 
       1.878204015065e-01       3.856825903770e-01 
       1.941013164283e-01       3.698087343555e-01 
       2.005922709503e-01       3.505465547208e-01 
       2.073002914972e-01       3.280429882213e-01 
       2.142326570816e-01       3.042135764014e-01 
       2.213969417533e-01       2.816125883439e-01 
       2.288010639706e-01       2.622568901004e-01 
       2.364533437147e-01       2.469623498138e-01 
       2.443625682930e-01       2.350128658474e-01 
       2.525380679504e-01       2.244181686664e-01 
       2.609898026346e-01       2.130933670611e-01 
       2.697284615565e-01       2.001015390373e-01 
       2.787655775689e-01       1.860200583874e-01 
       2.881136588829e-01       1.725173552041e-01 
       2.977863412677e-01       1.610661906307e-01 
       3.077985646929e-01       1.517608064364e-01 
       3.181667794071e-01       1.435593609459e-01 
       3.289091877812e-01       1.351819104625e-01 
       3.400460299658e-01       1.261642139166e-01 
       3.515999236474e-01       1.172018318770e-01 
       3.635962711085e-01       1.091770475389e-01 
       3.760637506334e-01       1.023096842351e-01 
       3.890349143879e-01       9.593756456684e-02 
       4.025469216825e-01       8.950759367433e-02 
       4.166424456376e-01       8.311179438380e-02 
       4.313708035863e-01       7.721537031629e-02 
       4.467893782977e-01       7.190065968286e-02 
       4.629654199664e-01       6.686909791285e-02 
       4.799783501994e-01       6.191774998980e-02 
       4.979227319373e-01       5.722236670845e-02 
       5.169121270864e-01       5.290301504997e-02 
       5.370841404489e-01       4.876970782573e-02 
       5.586070464571e-01       4.479093026127e-02 
       5.816885094930e-01       4.105201637113e-02 
       6.065870144995e-01       3.748991873260e-02 
       6.336266468475e-01       3.407631041957e-02 
       6.632156059511e-01       3.083455020809e-02 
       6.958678639263e-01       2.772829134593e-02 
       7.322247985589e-01       2.476716642558e-02 
       7.730680195114e-01       2.193961491031e-02 
       8.193049553677e-01       1.925613850668e-02 
       8.718988016039e-01       1.672925956857e-02 
       9.317218031082e-01       1.438423071693e-02 
       9.993660908989e-01       1.225069386074e-02 
       1.075037110174e+00       1.035262512506e-02 
       1.158653485707e+00       8.699748315027e-03 
       1.250099157308e+00       7.284594892313e-03 
       1.349432401273e+00       6.085457449005e-03 
       1.456947457397e+00       5.075737891735e-03 
       1.573135111331e+00       4.228309200584e-03 
       1.698621895592e+00       3.518528405623e-03 
       1.834127512934e+00       2.924983890841e-03 
       1.980444934528e+00       2.429174926433e-03 
       2.138435191726e+00       2.015513076310e-03 
       2.309029199186e+00       1.670766520068e-03 
       2.493232377687e+00       1.383790672911e-03 
       2.692130395285e+00       1.145130326226e-03 
       2.906895534573e+00       9.468603872788e-04 
       3.138793597714e+00       7.822922096915e-04 
       3.389191366484e+00       6.458246640361e-04 
       3.659564657905e+00       5.327687183657e-04 
       3.951507022538e+00       4.391875037693e-04 
       4.266739136701e+00       3.617866272646e-04 
       4.607118943941e+00       2.978291017559e-04 
       4.974652605557e+00       2.450136549982e-04 
       5.371506324689e+00       2.014361977815e-04 
       5.800019113685e+00       1.655060860576e-04 
       6.262716579983e+00       1.359036333954e-04 
       6.762325811764e+00       1.115299316377e-04 
       7.301791451110e+00       9.147589179452e-05 
       7.884293049406e+00       7.498737813732e-05 
       8.513263807261e+00       6.143660684449e-05 
       9.192410809424e+00       5.030811309355e-05 
       9.925736873929e+00       4.117531428171e-05 
       1.071756414427e+01       3.368337162151e-05 
       1.157255956364e+01       2.754145906867e-05 
       1.249576238137e+01       2.250891834262e-05 
       1.349261385375e+01       1.838751633937e-05 
       1.456898931416e+01       1.501416030476e-05 
       1.573123280165e+01       1.225430894539e-05 
       1.698619445202e+01       9.997538094358e-06 
       1.834127087176e+01       8.153089316941e-06 
       1.980444873285e+01       6.646198378159e-06 
       2.138435184532e+01       5.415725209534e-06 
       2.309029198506e+01       4.411324216478e-06 
       2.493232377636e+01       3.591853544132e-06 
       2.692130395282e+01       2.923564645530e-06 
       2.906895534573e+01       2.378735856383e-06 
       3.138793597714e+01       1.934755508668e-06 
       3.389191366484e+01       1.573109594494e-06 
       3.659564657905e+01       1.278633928879e-06 
       3.951507022538e+01       1.038916445222e-06 
       4.266739136701e+01       8.438657853930e-07 
       4.607118943941e+01       6.852080004151e-07 
       4.974652605557e+01       5.562045941598e-07 
       5.371506324689e+01       4.513374681980e-07 
       5.800019113685e+01       3.661299830307e-07 
       6.262716579983e+01       2.969132762653e-07 
       6.762325811764e+01       2.407036625421e-07 
