# Matter power spectrum P(k) at redshift z=99
# for k=1.04775e-05 to 67.6233 h/Mpc,
# number of wavenumbers equal to 246
#    1:k (h/Mpc)              2:P (Mpc/h)^3        
       1.047750691338e-05       7.261927673119e-03 
       1.131335172818e-05       7.820331745737e-03 
       1.221587619877e-05       8.421675986489e-03 
       1.319039970550e-05       9.069258192194e-03 
       1.424266598317e-05       9.766638404421e-03 
       1.537887697396e-05       1.051764069682e-02 
       1.660572938097e-05       1.132639105520e-02 
       1.793045413791e-05       1.219733231416e-02 
       1.936085902737e-05       1.313524224380e-02 
       2.090537469909e-05       1.414527121893e-02 
       2.257310435923e-05       1.523296272192e-02 
       2.437387742372e-05       1.640429444530e-02 
       2.631830745176e-05       1.766569582178e-02 
       2.841785470091e-05       1.902408601793e-02 
       3.068489367268e-05       2.048692970591e-02 
       3.313278604643e-05       2.206225513594e-02 
       3.577595943165e-05       2.375870704909e-02 
       3.862999240274e-05       2.558560727479e-02 
       4.171170631739e-05       2.755297763344e-02 
       4.503926445983e-05       2.967161927315e-02 
       4.863227909323e-05       3.195316450832e-02 
       5.251192705226e-05       3.441013519284e-02 
       5.670107455699e-05       3.705601722530e-02 
       6.122441198393e-05       3.990533413559e-02 
       6.610859938837e-05       4.297372168203e-02 
       7.138242363583e-05       4.627802141688e-02 
       7.707696806873e-05       4.983636194159e-02 
       8.322579570814e-05       5.366826847231e-02 
       8.986514707061e-05       5.779476394568e-02 
       9.703415376577e-05       6.223848243885e-02 
       1.047750691338e-04       6.702379865640e-02 
       1.131335172818e-04       7.217695153381e-02 
       1.221587619877e-04       7.772619073572e-02 
       1.319039970550e-04       8.370193432376e-02 
       1.424266598317e-04       9.013692507547e-02 
       1.537887697396e-04       9.706641242570e-02 
       1.660572938097e-04       1.045283354271e-01 
       1.793045413791e-04       1.125635349068e-01 
       1.936085902737e-04       1.212159614968e-01 
       2.090537469909e-04       1.305329132714e-01 
       2.257310435923e-04       1.405652846215e-01 
       2.437387742372e-04       1.513678302540e-01 
       2.631830745176e-04       1.629994504870e-01 
       2.841785470091e-04       1.755234921224e-01 
       3.068489367268e-04       1.890080670413e-01 
       3.313278604643e-04       2.035264002435e-01 
       3.577595943165e-04       2.191571803681e-01 
       3.862999240274e-04       2.359849437592e-01 
       4.171170631739e-04       2.541004741539e-01 
       4.503926445983e-04       2.736012080278e-01 
       4.863227909323e-04       2.945916790965e-01 
       5.251192705226e-04       3.171839525182e-01 
       5.670107455699e-04       3.414980764002e-01 
       6.122441198393e-04       3.676625413100e-01 
       6.610859938837e-04       3.958147252304e-01 
       7.138242363583e-04       4.261013284907e-01 
       7.707696806873e-04       4.586787792349e-01 
       8.322579570814e-04       4.937136001349e-01 
       8.986514707061e-04       5.313826801402e-01 
       9.703415376577e-04       5.718734972158e-01 
       1.047750691338e-03       6.153841629505e-01 
       1.131335172818e-03       6.621233239466e-01 
       1.221587619877e-03       7.123098220425e-01 
       1.319039970550e-03       7.661720584787e-01 
       1.424266598317e-03       8.239546297731e-01 
       1.537887697396e-03       8.859011173466e-01 
       1.660572938097e-03       9.522588006420e-01 
       1.793045413791e-03       1.023280099819e+00 
       1.936085902737e-03       1.099216304579e+00 
       2.090537469909e-03       1.180312990454e+00 
       2.257310435923e-03       1.266804115851e+00 
       2.437387742372e-03       1.358904853406e+00 
       2.631830745176e-03       1.456802683156e+00 
       2.841785470091e-03       1.560646890521e+00 
       3.068489367268e-03       1.670536062498e+00 
       3.313278604643e-03       1.786503852158e+00 
       3.577595943165e-03       1.908502930786e+00 
       3.862999240274e-03       2.036387730709e+00 
       4.171170631739e-03       2.169896178733e+00 
       4.503926445983e-03       2.308631878994e+00 
       4.863227909323e-03       2.452047290962e+00 
       5.251192705226e-03       2.599430628087e+00 
       5.670107455699e-03       2.749896931837e+00 
       6.122441198393e-03       2.902386513383e+00 
       6.610859938837e-03       3.055668692658e+00 
       7.138242363583e-03       3.208356461546e+00 
       7.707696806873e-03       3.358923892643e+00 
       8.322579570814e-03       3.505725595242e+00 
       8.986514707061e-03       3.647009389485e+00 
       9.703415376577e-03       3.780923304331e+00 
       1.047750691338e-02       3.905491034106e+00 
       1.131335172818e-02       4.018587641331e+00 
       1.221587619877e-02       4.117901583889e+00 
       1.319039970550e-02       4.200915268613e+00 
       1.424266598317e-02       4.264942460665e+00 
       1.537887697392e-02       4.307217439761e+00 
       1.660572938023e-02       4.325062439901e+00 
       1.793045412706e-02       4.316057119850e+00 
       1.936085890181e-02       4.278230147596e+00 
       2.090537352463e-02       4.210198316980e+00 
       2.257309535333e-02       4.111418861900e+00 
       2.437382002918e-02       3.982415403047e+00 
       2.631799944462e-02       3.825167478431e+00 
       2.841644545389e-02       3.643281233064e+00 
       3.067933355377e-02       3.442190143201e+00 
       3.311368470740e-02       3.229237995778e+00 
       3.571840443502e-02       3.013512630331e+00 
       3.847720348444e-02       2.805283041898e+00 
       4.135335538431e-02       2.614405238047e+00 
       4.429361667738e-02       2.448131798658e+00 
       4.724366439141e-02       2.309235693042e+00 
       5.016480835311e-02       2.196116200566e+00 
       5.303989620246e-02       2.104368467428e+00 
       5.586870669566e-02       2.028463012549e+00 
       5.866042680613e-02       1.963156148259e+00 
       6.142798932958e-02       1.903781149248e+00 
       6.418496440164e-02       1.846480086317e+00 
       6.694418833788e-02       1.788194938686e+00 
       6.971731106057e-02       1.726717100469e+00 
       7.251476155766e-02       1.660652451653e+00 
       7.534587671527e-02       1.589470512096e+00 
       7.821907666265e-02       1.513435752347e+00 
       8.114203772912e-02       1.433570169784e+00 
       8.412184535029e-02       1.351495864267e+00 
       8.716512279304e-02       1.269275911947e+00 
       9.027813695930e-02       1.189191419592e+00 
       9.346688431697e-02       1.113501288474e+00 
       9.673716028276e-02       1.044176764158e+00 
       1.000946150830e-01       9.827057217771e-01 
       1.035447986537e-01       9.299348978296e-01 
       1.070931966762e-01       8.859606276579e-01 
       1.107452594425e-01       8.500704262264e-01 
       1.145064249153e-01       8.208033088330e-01 
       1.183821370918e-01       7.960258539280e-01 
       1.223778605862e-01       7.731457065738e-01 
       1.264990921987e-01       7.494520269127e-01 
       1.307513701367e-01       7.225569403858e-01 
       1.351402814784e-01       6.909084088412e-01 
       1.396714684203e-01       6.541807444511e-01 
       1.443506338194e-01       6.134268976867e-01 
       1.491835465229e-01       5.708685633458e-01 
       1.541760469708e-01       5.293633785721e-01 
       1.593340535561e-01       4.917109712938e-01 
       1.646635702297e-01       4.599203976444e-01 
       1.701706958456e-01       4.347287376510e-01 
       1.758616357459e-01       4.154086295946e-01 
       1.817427160982e-01       3.999367680958e-01 
       1.878204015065e-01       3.856830005789e-01 
       1.941013164283e-01       3.698095109503e-01 
       2.005922709503e-01       3.505463141964e-01 
       2.073002914972e-01       3.280434393543e-01 
       2.142326570816e-01       3.042137771841e-01 
       2.213969417533e-01       2.816113482321e-01 
       2.288010639706e-01       2.622572299109e-01 
       2.364533437147e-01       2.469625748529e-01 
       2.443625682930e-01       2.350127686439e-01 
       2.525380679504e-01       2.244182174353e-01 
       2.609898026346e-01       2.130938057575e-01 
       2.697284615565e-01       2.001016293680e-01 
       2.787655775689e-01       1.860198021238e-01 
       2.881136588829e-01       1.725170602532e-01 
       2.977863412677e-01       1.610654459705e-01 
       3.077985646929e-01       1.517609579630e-01 
       3.181667794071e-01       1.435593740598e-01 
       3.289091877812e-01       1.351816403035e-01 
       3.400460299658e-01       1.261642822946e-01 
       3.515999236474e-01       1.172017494356e-01 
       3.635962711085e-01       1.091767855681e-01 
       3.760637506334e-01       1.023094934285e-01 
       3.890349143879e-01       9.593739160977e-02 
       4.025469216825e-01       8.950736575525e-02 
       4.166424456376e-01       8.311142483782e-02 
       4.313708035863e-01       7.721516429701e-02 
       4.467893782977e-01       7.190051080508e-02 
       4.629654199664e-01       6.686873335873e-02 
       4.799783501994e-01       6.191715377499e-02 
       4.979227319373e-01       5.722216089920e-02 
       5.169121270864e-01       5.290285388470e-02 
       5.370841404489e-01       4.876949149969e-02 
       5.586070464571e-01       4.479036820701e-02 
       5.816885094930e-01       4.105148000273e-02 
       6.065870144995e-01       3.748955229522e-02 
       6.336266468475e-01       3.407587021948e-02 
       6.632156059511e-01       3.083415956570e-02 
       6.958678639263e-01       2.772780332165e-02 
       7.322247985589e-01       2.476667993414e-02 
       7.730680195114e-01       2.193906350961e-02 
       8.193049553677e-01       1.925553636669e-02 
       8.718988016039e-01       1.672867826825e-02 
       9.317218031082e-01       1.438351142201e-02 
       9.993660908989e-01       1.224987245405e-02 
       1.075037110174e+00       1.035178720233e-02 
       1.158653485707e+00       8.698838339659e-03 
       1.250099157308e+00       7.283617182675e-03 
       1.349432401273e+00       6.084405266025e-03 
       1.456947457397e+00       5.074581475561e-03 
       1.573135111331e+00       4.227059935377e-03 
       1.698621895592e+00       3.517197870853e-03 
       1.834127512934e+00       2.923526315000e-03 
       1.980444934528e+00       2.427583662044e-03 
       2.138435191726e+00       2.013811706983e-03 
       2.309029199186e+00       1.668947783041e-03 
       2.493232377687e+00       1.381817876134e-03 
       2.692130395285e+00       1.143008205087e-03 
       2.906895534573e+00       9.445751236437e-04 
       3.138793597714e+00       7.798482787417e-04 
       3.389191366484e+00       6.432065005640e-04 
       3.659564657905e+00       5.299682988334e-04 
       3.951507022538e+00       4.361992473692e-04 
       4.266739136701e+00       3.586048877546e-04 
       4.607118943941e+00       2.944406204294e-04 
       4.974652605557e+00       2.414183157320e-04 
       5.371506324689e+00       1.976279365836e-04 
       5.800019113685e+00       1.614802567824e-04 
       6.262716579983e+00       1.316586676939e-04 
       6.762325811764e+00       1.070672885278e-04 
       7.301791451110e+00       8.679698878023e-05 
       7.884293049406e+00       7.009736430584e-05 
       8.513263807261e+00       5.634768147478e-05 
       9.192410809424e+00       4.503495779028e-05 
       9.925736873929e+00       3.573605711964e-05 
       1.071756414427e+01       2.810517226858e-05 
       1.157255956364e+01       2.185689849152e-05 
       1.249576238137e+01       1.675813150731e-05 
       1.349261385375e+01       1.261911969628e-05 
       1.456898931416e+01       9.284677034814e-06 
       1.573123280165e+01       6.628211444776e-06 
       1.698619445202e+01       4.546099357677e-06 
       1.834127087176e+01       2.952179193843e-06 
       1.980444873285e+01       1.773698159097e-06 
       2.138435184532e+01       9.467907160597e-07 
       2.309029198506e+01       4.132830468565e-07 
       2.493232377636e+01       1.178374065253e-07 
       2.692130395282e+01       5.927105462670e-09 
       2.906895534573e+01       2.328552729521e-08 
       3.138793597714e+01       1.167716666515e-07 
       3.389191366484e+01       2.368732826747e-07 
       3.659564657905e+01       3.415671695611e-07 
       3.951507022538e+01       4.008546894926e-07 
       4.266739136701e+01       4.006213747003e-07 
       4.607118943941e+01       3.443159958216e-07 
       4.974652605557e+01       2.507993394545e-07 
       5.371506324689e+01       1.479728282772e-07 
       5.800019113685e+01       6.316867586100e-08 
       6.262716579983e+01       1.346690286399e-08 
       6.762325811764e+01       2.767768301246e-11 
