# Matter power spectrum P(k) at redshift z=99
# for k=1.04775e-05 to 67.6233 h/Mpc,
# number of wavenumbers equal to 246
#    1:k (h/Mpc)              2:P (Mpc/h)^3        
       1.047750691338e-05       7.261927673120e-03 
       1.131335172818e-05       7.820331745738e-03 
       1.221587619877e-05       8.421675986490e-03 
       1.319039970550e-05       9.069258192196e-03 
       1.424266598317e-05       9.766638404423e-03 
       1.537887697396e-05       1.051764069682e-02 
       1.660572938097e-05       1.132639105520e-02 
       1.793045413791e-05       1.219733231417e-02 
       1.936085902737e-05       1.313524224381e-02 
       2.090537469909e-05       1.414527121894e-02 
       2.257310435923e-05       1.523296272192e-02 
       2.437387742372e-05       1.640429444530e-02 
       2.631830745176e-05       1.766569582178e-02 
       2.841785470091e-05       1.902408601793e-02 
       3.068489367268e-05       2.048692970592e-02 
       3.313278604643e-05       2.206225513594e-02 
       3.577595943165e-05       2.375870704909e-02 
       3.862999240274e-05       2.558560727479e-02 
       4.171170631739e-05       2.755297763344e-02 
       4.503926445983e-05       2.967161927316e-02 
       4.863227909323e-05       3.195316450832e-02 
       5.251192705226e-05       3.441013519285e-02 
       5.670107455699e-05       3.705601722528e-02 
       6.122441198393e-05       3.990533413560e-02 
       6.610859938837e-05       4.297372168204e-02 
       7.138242363583e-05       4.627802141689e-02 
       7.707696806873e-05       4.983636194160e-02 
       8.322579570814e-05       5.366826847232e-02 
       8.986514707061e-05       5.779476394570e-02 
       9.703415376577e-05       6.223848243886e-02 
       1.047750691338e-04       6.702379865641e-02 
       1.131335172818e-04       7.217695153382e-02 
       1.221587619877e-04       7.772619073572e-02 
       1.319039970550e-04       8.370193432378e-02 
       1.424266598317e-04       9.013692507548e-02 
       1.537887697396e-04       9.706641242572e-02 
       1.660572938097e-04       1.045283354272e-01 
       1.793045413791e-04       1.125635349068e-01 
       1.936085902737e-04       1.212159614969e-01 
       2.090537469909e-04       1.305329132715e-01 
       2.257310435923e-04       1.405652846215e-01 
       2.437387742372e-04       1.513678302540e-01 
       2.631830745176e-04       1.629994504871e-01 
       2.841785470091e-04       1.755234921225e-01 
       3.068489367268e-04       1.890080670413e-01 
       3.313278604643e-04       2.035264002436e-01 
       3.577595943165e-04       2.191571803681e-01 
       3.862999240274e-04       2.359849437594e-01 
       4.171170631739e-04       2.541004741539e-01 
       4.503926445983e-04       2.736012080278e-01 
       4.863227909323e-04       2.945916790966e-01 
       5.251192705226e-04       3.171839525183e-01 
       5.670107455699e-04       3.414980764003e-01 
       6.122441198393e-04       3.676625413101e-01 
       6.610859938837e-04       3.958147252304e-01 
       7.138242363583e-04       4.261013284906e-01 
       7.707696806873e-04       4.586787792353e-01 
       8.322579570814e-04       4.937136001375e-01 
       8.986514707061e-04       5.313826801402e-01 
       9.703415376577e-04       5.718734972158e-01 
       1.047750691338e-03       6.153841629503e-01 
       1.131335172818e-03       6.621233239466e-01 
       1.221587619877e-03       7.123098220431e-01 
       1.319039970550e-03       7.661720584130e-01 
       1.424266598317e-03       8.239546297732e-01 
       1.537887697396e-03       8.859011173466e-01 
       1.660572938097e-03       9.522588006412e-01 
       1.793045413791e-03       1.023280099819e+00 
       1.936085902737e-03       1.099216304579e+00 
       2.090537469909e-03       1.180312990454e+00 
       2.257310435923e-03       1.266804115851e+00 
       2.437387742372e-03       1.358904853404e+00 
       2.631830745176e-03       1.456802683155e+00 
       2.841785470091e-03       1.560646890521e+00 
       3.068489367268e-03       1.670536062499e+00 
       3.313278604643e-03       1.786503852151e+00 
       3.577595943165e-03       1.908502930787e+00 
       3.862999240274e-03       2.036387730706e+00 
       4.171170631739e-03       2.169896178827e+00 
       4.503926445983e-03       2.308631878989e+00 
       4.863227909323e-03       2.452047290956e+00 
       5.251192705226e-03       2.599430628081e+00 
       5.670107455699e-03       2.749896931797e+00 
       6.122441198393e-03       2.902386513375e+00 
       6.610859938837e-03       3.055668698459e+00 
       7.138242363583e-03       3.208356461526e+00 
       7.707696806873e-03       3.358923892935e+00 
       8.322579570814e-03       3.505725595383e+00 
       8.986514707061e-03       3.647009254185e+00 
       9.703415376577e-03       3.780923304263e+00 
       1.047750691338e-02       3.905492001998e+00 
       1.131335172818e-02       4.018588040755e+00 
       1.221587619877e-02       4.117901587974e+00 
       1.319039970550e-02       4.200915378229e+00 
       1.424266598317e-02       4.264942143475e+00 
       1.537887697392e-02       4.307218192758e+00 
       1.660572938023e-02       4.325062131683e+00 
       1.793045412706e-02       4.316056841886e+00 
       1.936085890181e-02       4.278229295668e+00 
       2.090537352463e-02       4.210203356483e+00 
       2.257309535333e-02       4.111419851511e+00 
       2.437382002918e-02       3.982421158033e+00 
       2.631799944462e-02       3.825162815029e+00 
       2.841644545389e-02       3.643279776843e+00 
       3.067933355377e-02       3.442196330690e+00 
       3.311368470740e-02       3.229229126099e+00 
       3.571840443502e-02       3.013513844952e+00 
       3.847720348444e-02       2.805278619439e+00 
       4.135335538431e-02       2.614411241923e+00 
       4.429361667738e-02       2.448122615806e+00 
       4.724366439141e-02       2.309238694810e+00 
       5.016480835311e-02       2.196110839365e+00 
       5.303989620246e-02       2.104365781863e+00 
       5.586870669566e-02       2.028465339791e+00 
       5.866042680613e-02       1.963154032238e+00 
       6.142798932958e-02       1.903777864149e+00 
       6.418496440164e-02       1.846481249684e+00 
       6.694418833788e-02       1.788196915049e+00 
       6.971731106057e-02       1.726715410880e+00 
       7.251476155766e-02       1.660653330397e+00 
       7.534587671527e-02       1.589468800811e+00 
       7.821907666265e-02       1.513435967557e+00 
       8.114203772912e-02       1.433564728844e+00 
       8.412184535029e-02       1.351491741037e+00 
       8.716512279304e-02       1.269275792896e+00 
       9.027813695930e-02       1.189195196747e+00 
       9.346688431697e-02       1.113501957203e+00 
       9.673716028276e-02       1.044174882131e+00 
       1.000946150830e-01       9.827072265731e-01 
       1.035447986537e-01       9.299391888498e-01 
       1.070931966762e-01       8.859597837918e-01 
       1.107452594425e-01       8.500711326456e-01 
       1.145064249153e-01       8.208045228955e-01 
       1.183821370918e-01       7.960270040419e-01 
       1.223778605862e-01       7.731461044884e-01 
       1.264990921987e-01       7.494519115156e-01 
       1.307513701367e-01       7.225578183363e-01 
       1.351402814784e-01       6.909081429003e-01 
       1.396714684203e-01       6.541799544715e-01 
       1.443506338194e-01       6.134275319398e-01 
       1.491835465229e-01       5.708669960387e-01 
       1.541760469708e-01       5.293642282553e-01 
       1.593340535561e-01       4.917105481434e-01 
       1.646635702297e-01       4.599200588498e-01 
       1.701706958456e-01       4.347279527307e-01 
       1.758616357459e-01       4.154082644427e-01 
       1.817427160982e-01       3.999365048806e-01 
       1.878204015065e-01       3.856832559785e-01 
       1.941013164283e-01       3.698092200403e-01 
       2.005922709503e-01       3.505467244222e-01 
       2.073002914972e-01       3.280463606523e-01 
       2.142326570816e-01       3.042147525535e-01 
       2.213969417533e-01       2.816107820999e-01 
       2.288010639706e-01       2.622568905770e-01 
       2.364533437147e-01       2.469614453329e-01 
       2.443625682930e-01       2.350136069187e-01 
       2.525380679504e-01       2.244204724873e-01 
       2.609898026346e-01       2.130955078104e-01 
       2.697284615565e-01       2.001025471822e-01 
       2.787655775689e-01       1.860197289675e-01 
       2.881136588829e-01       1.725174068395e-01 
       2.977863412677e-01       1.610657442014e-01 
       3.077985646929e-01       1.517606514144e-01 
       3.181667794071e-01       1.435589137846e-01 
       3.289091877812e-01       1.351818681863e-01 
       3.400460299658e-01       1.261643323292e-01 
       3.515999236474e-01       1.172020209563e-01 
       3.635962711085e-01       1.091768796146e-01 
       3.760637506334e-01       1.023091720934e-01 
       3.890349143879e-01       9.593780143605e-02 
       4.025469216825e-01       8.950741051306e-02 
       4.166424456376e-01       8.311161587774e-02 
       4.313708035863e-01       7.721527801089e-02 
       4.467893782977e-01       7.190034786579e-02 
       4.629654199664e-01       6.686909888014e-02 
       4.799783501994e-01       6.191744798145e-02 
       4.979227319373e-01       5.722201677358e-02 
       5.169121270864e-01       5.290274388765e-02 
       5.370841404489e-01       4.876955360096e-02 
       5.586070464571e-01       4.479083866673e-02 
       5.816885094930e-01       4.105175403171e-02 
       6.065870144995e-01       3.748985943453e-02 
       6.336266468475e-01       3.407623770232e-02 
       6.632156059511e-01       3.083454000822e-02 
       6.958678639263e-01       2.772825310574e-02 
       7.322247985589e-01       2.476704504093e-02 
       7.730680195114e-01       2.193954312756e-02 
       8.193049553677e-01       1.925606368726e-02 
       8.718988016039e-01       1.672923798980e-02 
       9.317218031082e-01       1.438419498660e-02 
       9.993660908989e-01       1.225066929547e-02 
       1.075037110174e+00       1.035258028442e-02 
       1.158653485707e+00       8.699708986918e-03 
       1.250099157308e+00       7.284561703092e-03 
       1.349432401273e+00       6.085429664957e-03 
       1.456947457397e+00       5.075712454288e-03 
       1.573135111331e+00       4.228268323450e-03 
       1.698621895592e+00       3.518542664953e-03 
       1.834127512934e+00       2.924961688485e-03 
       1.980444934528e+00       2.429146163845e-03 
       2.138435191726e+00       2.015490977203e-03 
       2.309029199186e+00       1.670761776026e-03 
       2.493232377687e+00       1.383775018996e-03 
       2.692130395285e+00       1.145113247323e-03 
       2.906895534573e+00       9.468404860719e-04 
       3.138793597714e+00       7.822669900293e-04 
       3.389191366484e+00       6.458052869571e-04 
       3.659564657905e+00       5.327503455039e-04 
       3.951507022538e+00       4.391649566974e-04 
       4.266739136701e+00       3.617688711595e-04 
       4.607118943941e+00       2.978075744108e-04 
       4.974652605557e+00       2.449909759893e-04 
       5.371506324689e+00       2.014137261607e-04 
       5.800019113685e+00       1.654815462435e-04 
       6.262716579983e+00       1.358781889516e-04 
       6.762325811764e+00       1.115041136688e-04 
       7.301791451110e+00       9.144852370680e-05 
       7.884293049406e+00       7.495815462475e-05 
       8.513263807261e+00       6.140669865243e-05 
       9.192410809424e+00       5.027726776950e-05 
       9.925736873929e+00       4.114257044617e-05 
       1.071756414427e+01       3.364912119440e-05 
       1.157255956364e+01       2.750556208586e-05 
       1.249576238137e+01       2.247079837850e-05 
       1.349261385375e+01       1.834717834482e-05 
       1.456898931416e+01       1.497139814848e-05 
       1.573123280165e+01       1.220894698972e-05 
       1.698619445202e+01       9.949314592906e-06 
       1.834127087176e+01       8.101829395244e-06 
       1.980444873285e+01       6.591621432069e-06 
       2.138435184532e+01       5.357633287491e-06 
       2.309029198506e+01       4.349545639779e-06 
       2.493232377636e+01       3.526111925505e-06 
       2.692130395282e+01       2.853643364103e-06 
       2.906895534573e+01       2.304464152163e-06 
       3.138793597714e+01       1.856012557964e-06 
       3.389191366484e+01       1.489747797533e-06 
       3.659564657905e+01       1.190608997513e-06 
       3.951507022538e+01       9.462979345539e-07 
       4.266739136701e+01       7.467830623593e-07 
       4.607118943941e+01       5.839463591674e-07 
       4.974652605557e+01       4.512024115921e-07 
       5.371506324689e+01       3.432502184293e-07 
       5.800019113685e+01       2.558255349747e-07 
       6.262716579983e+01       1.855322815035e-07 
       6.762325811764e+01       1.296669919547e-07 
