# Matter power spectrum P(k) at redshift z=0
# for k=1.04775e-05 to 67.6233 h/Mpc,
# number of wavenumbers equal to 246
#    1:k (h/Mpc)              2:P (Mpc/h)^3        
       1.047750691338e-05       5.020964806751e+01 
       1.131335172818e-05       5.407048206554e+01 
       1.221587619877e-05       5.822819063895e+01 
       1.319039970550e-05       6.270562589676e+01 
       1.424266598317e-05       6.752731788102e+01 
       1.537887697396e-05       7.271977200258e+01 
       1.660572938097e-05       7.831147241542e+01 
       1.793045413791e-05       8.433311815128e+01 
       1.936085902737e-05       9.081778242446e+01 
       2.090537469909e-05       9.780108061340e+01 
       2.257310435923e-05       1.053213197032e+02 
       2.437387742372e-05       1.134197377001e+02 
       2.631830745176e-05       1.221408202815e+02 
       2.841785470091e-05       1.315324720916e+02 
       3.068489367268e-05       1.416462093730e+02 
       3.313278604643e-05       1.525374500691e+02 
       3.577595943165e-05       1.642660687078e+02 
       3.862999240274e-05       1.768963504868e+02 
       4.171170631739e-05       1.904975992460e+02 
       4.503926445983e-05       2.051444490305e+02 
       4.863227909323e-05       2.209171463752e+02 
       5.251192705226e-05       2.379022222314e+02 
       5.670107455699e-05       2.561927925431e+02 
       6.122441198393e-05       2.758890441790e+02 
       6.610859938837e-05       2.970989225467e+02 
       7.138242363583e-05       3.199385558200e+02 
       7.707696806873e-05       3.445329780878e+02 
       8.322579570814e-05       3.710167315928e+02 
       8.986514707061e-05       3.995346440954e+02 
       9.703415376577e-05       4.302425403884e+02 
       1.047750691338e-04       4.633080762974e+02 
       1.131335172818e-04       4.989116267507e+02 
       1.221587619877e-04       5.372471946561e+02 
       1.319039970550e-04       5.785234124636e+02 
       1.424266598317e-04       6.229645930980e+02 
       1.537887697396e-04       6.708118484951e+02 
       1.660572938097e-04       7.223242660220e+02 
       1.793045413791e-04       7.777801552758e+02 
       1.936085902737e-04       8.374783607333e+02 
       2.090537469909e-04       9.017396264495e+02 
       2.257310435923e-04       9.709080260152e+02 
       2.437387742372e-04       1.045352448644e+03 
       2.631830745176e-04       1.125468122836e+03 
       2.841785470091e-04       1.211678179511e+03 
       3.068489367268e-04       1.304435249091e+03 
       3.313278604643e-04       1.404223052541e+03 
       3.577595943165e-04       1.511558013390e+03 
       3.862999240274e-04       1.626990836512e+03 
       4.171170631739e-04       1.751108027371e+03 
       4.503926445983e-04       1.884533381345e+03 
       4.863227909323e-04       2.027929376470e+03 
       5.251192705226e-04       2.181998446367e+03 
       5.670107455699e-04       2.347484100857e+03 
       6.122441198393e-04       2.525171869337e+03 
       6.610859938837e-04       2.715889981401e+03 
       7.138242363583e-04       2.920509686078e+03 
       7.707696806873e-04       3.139945097710e+03 
       8.322579570814e-04       3.375152334396e+03 
       8.986514707061e-04       3.627127828231e+03 
       9.703415376577e-04       3.896905450016e+03 
       1.047750691338e-03       4.185552170958e+03 
       1.131335172818e-03       4.494162426791e+03 
       1.221587619877e-03       4.823850702661e+03 
       1.319039970550e-03       5.175742734019e+03 
       1.424266598317e-03       5.551019592518e+03 
       1.537887697396e-03       5.950788335883e+03 
       1.660572938097e-03       6.376123046802e+03 
       1.793045413791e-03       6.828073896113e+03 
       1.936085902737e-03       7.307625375386e+03 
       2.090537469909e-03       7.815671860246e+03 
       2.257310435923e-03       8.352990369401e+03 
       2.437387742372e-03       8.920211057521e+03 
       2.631830745176e-03       9.517783061890e+03 
       2.841785470091e-03       1.014593703671e+04 
       3.068489367268e-03       1.080464505732e+04 
       3.313278604643e-03       1.149357459439e+04 
       3.577595943165e-03       1.221203620826e+04 
       3.862999240274e-03       1.295892538505e+04 
       4.171170631739e-03       1.373266000034e+04 
       4.503926445983e-03       1.453111834595e+04 
       4.863227909323e-03       1.535154984220e+04 
       5.251192705226e-03       1.619063613397e+04 
       5.670107455699e-03       1.704431256565e+04 
       6.122441198393e-03       1.790755938478e+04 
       6.610859938837e-03       1.877460414891e+04 
       7.138242363583e-03       1.963872429172e+04 
       7.707696806873e-03       2.049215713725e+04 
       8.322579570814e-03       2.132606836873e+04 
       8.986514707061e-03       2.213055033017e+04 
       9.703415376577e-03       2.289445471099e+04 
       1.047750691338e-02       2.360548362876e+04 
       1.131335172818e-02       2.425023100674e+04 
       1.221587619877e-02       2.481423921229e+04 
       1.319039970550e-02       2.528218645850e+04 
       1.424266598317e-02       2.563815120019e+04 
       1.537887697392e-02       2.586609392538e+04 
       1.660572938023e-02       2.595026583041e+04 
       1.793045412706e-02       2.587635119033e+04 
       1.936085890181e-02       2.563220473688e+04 
       2.090537352463e-02       2.520932079743e+04 
       2.257309535333e-02       2.460448436966e+04 
       2.437382002918e-02       2.382083769996e+04 
       2.631799944462e-02       2.287049182045e+04 
       2.841644545389e-02       2.177452171668e+04 
       3.067933355377e-02       2.056552038797e+04 
       3.311368470740e-02       1.928730059948e+04 
       3.571840443502e-02       1.799400647203e+04 
       3.847720348444e-02       1.674688337272e+04 
       4.135335538431e-02       1.560457658534e+04 
       4.429361667738e-02       1.461036933370e+04 
       4.724366439141e-02       1.378053826340e+04 
       5.016480835311e-02       1.310508981148e+04 
       5.303989620246e-02       1.255715226401e+04 
       5.586870669566e-02       1.210428422320e+04 
       5.866042680613e-02       1.171465343954e+04 
       6.142798932958e-02       1.136046877358e+04 
       6.418496440164e-02       1.101855563909e+04 
       6.694418833788e-02       1.067069687542e+04 
       6.971731106057e-02       1.030355556858e+04 
       7.251476155766e-02       9.909011369137e+03 
       7.534587671527e-02       9.483758085703e+03 
       7.821907666265e-02       9.029509406434e+03 
       8.114203772912e-02       8.552316568660e+03 
       8.412184535029e-02       8.061907690752e+03 
       8.716512279304e-02       7.570768103011e+03 
       9.027813695930e-02       7.092471217748e+03 
       9.346688431697e-02       6.640522139531e+03 
       9.673716028276e-02       6.226676653236e+03 
       1.000946150830e-01       5.859910766554e+03 
       1.035447986537e-01       5.545239192656e+03 
       1.070931966762e-01       5.283144158856e+03 
       1.107452594425e-01       5.069422943235e+03 
       1.145064249153e-01       4.895251386383e+03 
       1.183821370918e-01       4.747838855871e+03 
       1.223778605862e-01       4.611739033687e+03 
       1.264990921987e-01       4.470637147392e+03 
       1.307513701367e-01       4.310268919870e+03 
       1.351402814784e-01       4.121384576151e+03 
       1.396714684203e-01       3.902082910970e+03 
       1.443506338194e-01       3.658481801611e+03 
       1.491835465229e-01       3.404474728001e+03 
       1.541760469708e-01       3.156676383392e+03 
       1.593340535561e-01       2.931978638443e+03 
       1.646635702297e-01       2.742373997435e+03 
       1.701706958456e-01       2.592258186523e+03 
       1.758616357459e-01       2.477242683921e+03 
       1.817427160982e-01       2.385185734083e+03 
       1.878204015065e-01       2.300360766437e+03 
       1.941013164283e-01       2.205755747648e+03 
       2.005922709503e-01       2.090816899224e+03 
       2.073002914972e-01       1.956463797359e+03 
       2.142326570816e-01       1.814189076791e+03 
       2.213969417533e-01       1.679280868098e+03 
       2.288010639706e-01       1.563848132038e+03 
       2.364533437147e-01       1.472686444181e+03 
       2.443625682930e-01       1.401515633266e+03 
       2.525380679504e-01       1.338416580589e+03 
       2.609898026346e-01       1.270903932858e+03 
       2.697284615565e-01       1.193379240108e+03 
       2.787655775689e-01       1.109339855682e+03 
       2.881136588829e-01       1.028768990705e+03 
       2.977863412677e-01       9.604805639969e+02 
       3.077985646929e-01       9.050200518361e+02 
       3.181667794071e-01       8.561481727994e+02 
       3.289091877812e-01       8.061886105172e+02 
       3.400460299658e-01       7.523915314918e+02 
       3.515999236474e-01       6.989236238351e+02 
       3.635962711085e-01       6.510621348323e+02 
       3.760637506334e-01       6.101220335981e+02 
       3.890349143879e-01       5.721321370043e+02 
       4.025469216825e-01       5.337817846846e+02 
       4.166424456376e-01       4.956304937497e+02 
       4.313708035863e-01       4.604694983771e+02 
       4.467893782977e-01       4.287751572685e+02 
       4.629654199664e-01       3.987717079080e+02 
       4.799783501994e-01       3.692415056293e+02 
       4.979227319373e-01       3.412396260522e+02 
       5.169121270864e-01       3.154833151523e+02 
       5.370841404489e-01       2.908341503116e+02 
       5.586070464571e-01       2.671063050852e+02 
       5.816885094930e-01       2.448082610541e+02 
       6.065870144995e-01       2.235673349288e+02 
       6.336266468475e-01       2.032097640239e+02 
       6.632156059511e-01       1.838787659835e+02 
       6.958678639263e-01       1.653545974267e+02 
       7.322247985589e-01       1.476948143729e+02 
       7.730680195114e-01       1.308334055255e+02 
       8.193049553677e-01       1.148310196235e+02 
       8.718988016039e-01       9.976190001709e+01 
       9.317218031082e-01       8.577737204903e+01 
       9.993660908989e-01       7.305417347741e+01 
       1.075037110174e+00       6.173519683404e+01 
       1.158653485707e+00       5.187809491977e+01 
       1.250099157308e+00       4.343917014538e+01 
       1.349432401273e+00       3.628810084759e+01 
       1.456947457397e+00       3.026645502972e+01 
       1.573135111331e+00       2.521293381569e+01 
       1.698621895592e+00       2.098033117094e+01 
       1.834127512934e+00       1.744049353776e+01 
       1.980444934528e+00       1.448360115611e+01 
       2.138435191726e+00       1.201668814122e+01 
       2.309029199186e+00       9.960661076742e+00 
       2.493232377687e+00       8.249153504216e+00 
       2.692130395285e+00       6.825728093347e+00 
       2.906895534573e+00       5.643120433955e+00 
       3.138793597714e+00       4.661545318258e+00 
       3.389191366484e+00       3.847488402418e+00 
       3.659564657905e+00       3.173059375261e+00 
       3.951507022538e+00       2.614710936345e+00 
       4.266739136701e+00       2.152889023154e+00 
       4.607118943941e+00       1.771157660586e+00 
       4.974652605557e+00       1.455884970129e+00 
       5.371506324689e+00       1.195682666899e+00 
       5.800019113685e+00       9.810761396821e-01 
       6.262716579983e+00       8.041748301288e-01 
       6.762325811764e+00       6.584522310576e-01 
       7.301791451110e+00       5.384757082537e-01 
       7.884293049406e+00       4.397460172831e-01 
       8.513263807261e+00       3.585338080815e-01 
       9.192410809424e+00       2.917651442533e-01 
       9.925736873929e+00       2.368916449798e-01 
       1.071756414427e+01       1.918107754665e-01 
       1.157255956364e+01       1.547865583636e-01 
       1.249576238137e+01       1.243968136830e-01 
       1.349261385375e+01       9.946457289201e-02 
       1.456898931416e+01       7.902697625029e-02 
       1.573123280165e+01       6.229381248992e-02 
       1.698619445202e+01       4.861706148257e-02 
       1.834127087176e+01       3.747087188993e-02 
       1.980444873285e+01       2.842334298676e-02 
       2.138435184532e+01       2.112536987394e-02 
       2.309029198506e+01       1.529279633369e-02 
       2.493232377636e+01       1.069301072804e-02 
       2.692130395282e+01       7.136101662943e-03 
       2.906895534573e+01       4.462923147098e-03 
       3.138793597714e+01       2.537321907547e-03 
       3.389191366484e+01       1.238771409478e-03 
       3.659564657905e+01       4.552894826385e-04 
       3.951507022538e+01       7.912243919016e-05 
       4.266739136701e+01       3.998207376062e-06 
       4.607118943941e+01       1.252279796757e-04 
       4.974652605557e+01       3.429162408759e-04 
       5.371506324689e+01       5.679661517054e-04 
       5.800019113685e+01       7.303623764702e-04 
       6.262716579983e+01       7.874947912382e-04 
       6.762325811764e+01       7.294818455550e-04 
