# Matter power spectrum P(k) at redshift z=99
# for k=1.04775e-05 to 67.6233 h/Mpc,
# number of wavenumbers equal to 246
#    1:k (h/Mpc)              2:P (Mpc/h)^3        
       1.047750691338e-05       7.261927673119e-03 
       1.131335172818e-05       7.820331745737e-03 
       1.221587619877e-05       8.421675986488e-03 
       1.319039970550e-05       9.069258192194e-03 
       1.424266598317e-05       9.766638404421e-03 
       1.537887697396e-05       1.051764069682e-02 
       1.660572938097e-05       1.132639105520e-02 
       1.793045413791e-05       1.219733231416e-02 
       1.936085902737e-05       1.313524224380e-02 
       2.090537469909e-05       1.414527121893e-02 
       2.257310435923e-05       1.523296272192e-02 
       2.437387742372e-05       1.640429444530e-02 
       2.631830745176e-05       1.766569582177e-02 
       2.841785470091e-05       1.902408601793e-02 
       3.068489367268e-05       2.048692970591e-02 
       3.313278604643e-05       2.206225513594e-02 
       3.577595943165e-05       2.375870704909e-02 
       3.862999240274e-05       2.558560727479e-02 
       4.171170631739e-05       2.755297763344e-02 
       4.503926445983e-05       2.967161927315e-02 
       4.863227909323e-05       3.195316450832e-02 
       5.251192705226e-05       3.441013519284e-02 
       5.670107455699e-05       3.705601722525e-02 
       6.122441198393e-05       3.990533413562e-02 
       6.610859938837e-05       4.297372168203e-02 
       7.138242363583e-05       4.627802141688e-02 
       7.707696806873e-05       4.983636194159e-02 
       8.322579570814e-05       5.366826847231e-02 
       8.986514707061e-05       5.779476394569e-02 
       9.703415376577e-05       6.223848243885e-02 
       1.047750691338e-04       6.702379865640e-02 
       1.131335172818e-04       7.217695153381e-02 
       1.221587619877e-04       7.772619073571e-02 
       1.319039970550e-04       8.370193432377e-02 
       1.424266598317e-04       9.013692507550e-02 
       1.537887697396e-04       9.706641242570e-02 
       1.660572938097e-04       1.045283354271e-01 
       1.793045413791e-04       1.125635349068e-01 
       1.936085902737e-04       1.212159614968e-01 
       2.090537469909e-04       1.305329132714e-01 
       2.257310435923e-04       1.405652846215e-01 
       2.437387742372e-04       1.513678302540e-01 
       2.631830745176e-04       1.629994504871e-01 
       2.841785470091e-04       1.755234921224e-01 
       3.068489367268e-04       1.890080670413e-01 
       3.313278604643e-04       2.035264002435e-01 
       3.577595943165e-04       2.191571803681e-01 
       3.862999240274e-04       2.359849437592e-01 
       4.171170631739e-04       2.541004741539e-01 
       4.503926445983e-04       2.736012080277e-01 
       4.863227909323e-04       2.945916790965e-01 
       5.251192705226e-04       3.171839525183e-01 
       5.670107455699e-04       3.414980764002e-01 
       6.122441198393e-04       3.676625413100e-01 
       6.610859938837e-04       3.958147252304e-01 
       7.138242363583e-04       4.261013284912e-01 
       7.707696806873e-04       4.586787792351e-01 
       8.322579570814e-04       4.937136001366e-01 
       8.986514707061e-04       5.313826801402e-01 
       9.703415376577e-04       5.718734972157e-01 
       1.047750691338e-03       6.153841629505e-01 
       1.131335172818e-03       6.621233239466e-01 
       1.221587619877e-03       7.123098220418e-01 
       1.319039970550e-03       7.661720584804e-01 
       1.424266598317e-03       8.239546297728e-01 
       1.537887697396e-03       8.859011173466e-01 
       1.660572938097e-03       9.522588006417e-01 
       1.793045413791e-03       1.023280099819e+00 
       1.936085902737e-03       1.099216304579e+00 
       2.090537469909e-03       1.180312990453e+00 
       2.257310435923e-03       1.266804115852e+00 
       2.437387742372e-03       1.358904853407e+00 
       2.631830745176e-03       1.456802683156e+00 
       2.841785470091e-03       1.560646890522e+00 
       3.068489367268e-03       1.670536062500e+00 
       3.313278604643e-03       1.786503852158e+00 
       3.577595943165e-03       1.908502930788e+00 
       3.862999240274e-03       2.036387730709e+00 
       4.171170631739e-03       2.169896176779e+00 
       4.503926445983e-03       2.308631878994e+00 
       4.863227909323e-03       2.452047290962e+00 
       5.251192705226e-03       2.599430628088e+00 
       5.670107455699e-03       2.749896931802e+00 
       6.122441198393e-03       2.902386513385e+00 
       6.610859938837e-03       3.055668709260e+00 
       7.138242363583e-03       3.208356461544e+00 
       7.707696806873e-03       3.358923892544e+00 
       8.322579570814e-03       3.505725595112e+00 
       8.986514707061e-03       3.647009371150e+00 
       9.703415376577e-03       3.780923304319e+00 
       1.047750691338e-02       3.905490743464e+00 
       1.131335172818e-02       4.018588533975e+00 
       1.221587619877e-02       4.117901588107e+00 
       1.319039970550e-02       4.200915452519e+00 
       1.424266598317e-02       4.264942402673e+00 
       1.537887697392e-02       4.307217616896e+00 
       1.660572938023e-02       4.325063611544e+00 
       1.793045412706e-02       4.316057979655e+00 
       1.936085890181e-02       4.278229811786e+00 
       2.090537352463e-02       4.210201518363e+00 
       2.257309535333e-02       4.111416386175e+00 
       2.437382002918e-02       3.982415299489e+00 
       2.631799944462e-02       3.825178522659e+00 
       2.841644545389e-02       3.643289198292e+00 
       3.067933355377e-02       3.442198848285e+00 
       3.311368470740e-02       3.229241116532e+00 
       3.571840443502e-02       3.013511408700e+00 
       3.847720348444e-02       2.805284392975e+00 
       4.135335538431e-02       2.614413403934e+00 
       4.429361667738e-02       2.448141409018e+00 
       4.724366439141e-02       2.309235759821e+00 
       5.016480835311e-02       2.196114709894e+00 
       5.303989620246e-02       2.104364571740e+00 
       5.586870669566e-02       2.028464243532e+00 
       5.866042680613e-02       1.963154462250e+00 
       6.142798932958e-02       1.903780650303e+00 
       6.418496440164e-02       1.846479929169e+00 
       6.694418833788e-02       1.788196500120e+00 
       6.971731106057e-02       1.726717105675e+00 
       7.251476155766e-02       1.660653547673e+00 
       7.534587671527e-02       1.589470331459e+00 
       7.821907666265e-02       1.513437958429e+00 
       8.114203772912e-02       1.433566396300e+00 
       8.412184535029e-02       1.351490965158e+00 
       8.716512279304e-02       1.269274733740e+00 
       9.027813695930e-02       1.189193636275e+00 
       9.346688431697e-02       1.113502401376e+00 
       9.673716028276e-02       1.044172865885e+00 
       1.000946150830e-01       9.827073631485e-01 
       1.035447986537e-01       9.299382406590e-01 
       1.070931966762e-01       8.859579144054e-01 
       1.107452594425e-01       8.500711835005e-01 
       1.145064249153e-01       8.208046404737e-01 
       1.183821370918e-01       7.960254162116e-01 
       1.223778605862e-01       7.731477036786e-01 
       1.264990921987e-01       7.494521083934e-01 
       1.307513701367e-01       7.225563906763e-01 
       1.351402814784e-01       6.909090543458e-01 
       1.396714684203e-01       6.541825544239e-01 
       1.443506338194e-01       6.134277147156e-01 
       1.491835465229e-01       5.708685163369e-01 
       1.541760469708e-01       5.293634287494e-01 
       1.593340535561e-01       4.917113434966e-01 
       1.646635702297e-01       4.599201087668e-01 
       1.701706958456e-01       4.347294493887e-01 
       1.758616357459e-01       4.154081905884e-01 
       1.817427160982e-01       3.999370067039e-01 
       1.878204015065e-01       3.856824250438e-01 
       1.941013164283e-01       3.698101683065e-01 
       2.005922709503e-01       3.505466403114e-01 
       2.073002914972e-01       3.280435345580e-01 
       2.142326570816e-01       3.042139662541e-01 
       2.213969417533e-01       2.816126432995e-01 
       2.288010639706e-01       2.622574048998e-01 
       2.364533437147e-01       2.469616707397e-01 
       2.443625682930e-01       2.350131992849e-01 
       2.525380679504e-01       2.244177875513e-01 
       2.609898026346e-01       2.130934282059e-01 
       2.697284615565e-01       2.001016228083e-01 
       2.787655775689e-01       1.860200350291e-01 
       2.881136588829e-01       1.725172369173e-01 
       2.977863412677e-01       1.610659990053e-01 
       3.077985646929e-01       1.517611934416e-01 
       3.181667794071e-01       1.435595585311e-01 
       3.289091877812e-01       1.351815805028e-01 
       3.400460299658e-01       1.261644367747e-01 
       3.515999236474e-01       1.172021119625e-01 
       3.635962711085e-01       1.091770384654e-01 
       3.760637506334e-01       1.023094931201e-01 
       3.890349143879e-01       9.593767502446e-02 
       4.025469216825e-01       8.950792999514e-02 
       4.166424456376e-01       8.311152814484e-02 
       4.313708035863e-01       7.721544332798e-02 
       4.467893782977e-01       7.190082358306e-02 
       4.629654199664e-01       6.686912910253e-02 
       4.799783501994e-01       6.191757074541e-02 
       4.979227319373e-01       5.722238372594e-02 
       5.169121270864e-01       5.290298064570e-02 
       5.370841404489e-01       4.876971403032e-02 
       5.586070464571e-01       4.479090739705e-02 
       5.816885094930e-01       4.105200311583e-02 
       6.065870144995e-01       3.749007706993e-02 
       6.336266468475e-01       3.407637524290e-02 
       6.632156059511e-01       3.083456838456e-02 
       6.958678639263e-01       2.772839576741e-02 
       7.322247985589e-01       2.476711773759e-02 
       7.730680195114e-01       2.193958280909e-02 
       8.193049553677e-01       1.925618567177e-02 
       8.718988016039e-01       1.672929183268e-02 
       9.317218031082e-01       1.438418175576e-02 
       9.993660908989e-01       1.225068969642e-02 
       1.075037110174e+00       1.035262156176e-02 
       1.158653485707e+00       8.699766161417e-03 
       1.250099157308e+00       7.284585831616e-03 
       1.349432401273e+00       6.085451407399e-03 
       1.456947457397e+00       5.075719743729e-03 
       1.573135111331e+00       4.228285589414e-03 
       1.698621895592e+00       3.518539873180e-03 
       1.834127512934e+00       2.924984051702e-03 
       1.980444934528e+00       2.429150842182e-03 
       2.138435191726e+00       2.015498739000e-03 
       2.309029199186e+00       1.670753949757e-03 
       2.493232377687e+00       1.383767061526e-03 
       2.692130395285e+00       1.145114304417e-03 
       2.906895534573e+00       9.468411664376e-04 
       3.138793597714e+00       7.822675367920e-04 
       3.389191366484e+00       6.458000298596e-04 
       3.659564657905e+00       5.327422675429e-04 
       3.951507022538e+00       4.391572135268e-04 
       4.266739136701e+00       3.617572317901e-04 
       4.607118943941e+00       2.977966196628e-04 
       4.974652605557e+00       2.449780963990e-04 
       5.371506324689e+00       2.013978466649e-04 
       5.800019113685e+00       1.654660749376e-04 
       6.262716579983e+00       1.358607505731e-04 
       6.762325811764e+00       1.114842004280e-04 
       7.301791451110e+00       9.142741607142e-05 
       7.884293049406e+00       7.493398257698e-05 
       8.513263807261e+00       6.138031596419e-05 
       9.192410809424e+00       5.024891014983e-05 
       9.925736873929e+00       4.111210900932e-05 
       1.071756414427e+01       3.361600845451e-05 
       1.157255956364e+01       2.746970175813e-05 
       1.249576238137e+01       2.243284631282e-05 
       1.349261385375e+01       1.830685583925e-05 
       1.456898931416e+01       1.492863946912e-05 
       1.573123280165e+01       1.216377257527e-05 
       1.698619445202e+01       9.901958809065e-06 
       1.834127087176e+01       8.052156244845e-06 
       1.980444873285e+01       6.539906072364e-06 
       2.138435184532e+01       5.303969537868e-06 
       2.309029198506e+01       4.294117623638e-06 
       2.493232377636e+01       3.469226654082e-06 
       2.692130395282e+01       2.795522592769e-06 
       2.906895534573e+01       2.245510483651e-06 
       3.138793597714e+01       1.796611077193e-06 
       3.389191366484e+01       1.430379297509e-06 
       3.659564657905e+01       1.131814684847e-06 
       3.951507022538e+01       8.886576148744e-07 
       4.266739136701e+01       6.909706570074e-07 
       4.607118943941e+01       5.306735024884e-07 
       4.974652605557e+01       4.012119245575e-07 
       5.371506324689e+01       2.972735773162e-07 
       5.800019113685e+01       2.145818377147e-07 
       6.262716579983e+01       1.496501453505e-07 
       6.762325811764e+01       9.963677101470e-08 
