# Matter power spectrum P(k) at redshift z=0
# for k=1.04775e-05 to 67.6233 h/Mpc,
# number of wavenumbers equal to 246
#    1:k (h/Mpc)              2:P (Mpc/h)^3        
       1.047750691338e-05       5.020964806750e+01 
       1.131335172818e-05       5.407048206553e+01 
       1.221587619877e-05       5.822819064042e+01 
       1.319039970550e-05       6.270562589684e+01 
       1.424266598317e-05       6.752731788102e+01 
       1.537887697396e-05       7.271977200258e+01 
       1.660572938097e-05       7.831147241542e+01 
       1.793045413791e-05       8.433311815128e+01 
       1.936085902737e-05       9.081778242446e+01 
       2.090537469909e-05       9.780108061339e+01 
       2.257310435923e-05       1.053213197032e+02 
       2.437387742372e-05       1.134197377001e+02 
       2.631830745176e-05       1.221408202816e+02 
       2.841785470091e-05       1.315324720916e+02 
       3.068489367268e-05       1.416462093730e+02 
       3.313278604643e-05       1.525374500691e+02 
       3.577595943165e-05       1.642660687078e+02 
       3.862999240274e-05       1.768963504868e+02 
       4.171170631739e-05       1.904975992461e+02 
       4.503926445983e-05       2.051444490305e+02 
       4.863227909323e-05       2.209171463752e+02 
       5.251192705226e-05       2.379022222314e+02 
       5.670107455699e-05       2.561927926003e+02 
       6.122441198393e-05       2.758890441791e+02 
       6.610859938837e-05       2.970989225466e+02 
       7.138242363583e-05       3.199385558200e+02 
       7.707696806873e-05       3.445329780878e+02 
       8.322579570814e-05       3.710167315928e+02 
       8.986514707061e-05       3.995346440954e+02 
       9.703415376577e-05       4.302425403884e+02 
       1.047750691338e-04       4.633080762974e+02 
       1.131335172818e-04       4.989116267507e+02 
       1.221587619877e-04       5.372471946561e+02 
       1.319039970550e-04       5.785234124638e+02 
       1.424266598317e-04       6.229645930980e+02 
       1.537887697396e-04       6.708118484951e+02 
       1.660572938097e-04       7.223242660220e+02 
       1.793045413791e-04       7.777801557710e+02 
       1.936085902737e-04       8.374783607333e+02 
       2.090537469909e-04       9.017396264495e+02 
       2.257310435923e-04       9.709080260152e+02 
       2.437387742372e-04       1.045352448644e+03 
       2.631830745176e-04       1.125468122835e+03 
       2.841785470091e-04       1.211678179511e+03 
       3.068489367268e-04       1.304435249091e+03 
       3.313278604643e-04       1.404223052541e+03 
       3.577595943165e-04       1.511558013390e+03 
       3.862999240274e-04       1.626990836509e+03 
       4.171170631739e-04       1.751108027371e+03 
       4.503926445983e-04       1.884533381345e+03 
       4.863227909323e-04       2.027929376470e+03 
       5.251192705226e-04       2.181998446367e+03 
       5.670107455699e-04       2.347484100857e+03 
       6.122441198393e-04       2.525171869337e+03 
       6.610859938837e-04       2.715889981401e+03 
       7.138242363583e-04       2.920509686092e+03 
       7.707696806873e-04       3.139945097711e+03 
       8.322579570814e-04       3.375152334395e+03 
       8.986514707061e-04       3.627127828231e+03 
       9.703415376577e-04       3.896905450016e+03 
       1.047750691338e-03       4.185552170958e+03 
       1.131335172818e-03       4.494162426791e+03 
       1.221587619877e-03       4.823850702665e+03 
       1.319039970550e-03       5.175742738904e+03 
       1.424266598317e-03       5.551019592515e+03 
       1.537887697396e-03       5.950788335879e+03 
       1.660572938097e-03       6.376123046806e+03 
       1.793045413791e-03       6.828073896132e+03 
       1.936085902737e-03       7.307625375386e+03 
       2.090537469909e-03       7.815671860095e+03 
       2.257310435923e-03       8.352990369398e+03 
       2.437387742372e-03       8.920211057529e+03 
       2.631830745176e-03       9.517783061889e+03 
       2.841785470091e-03       1.014593703671e+04 
       3.068489367268e-03       1.080464505744e+04 
       3.313278604643e-03       1.149357459438e+04 
       3.577595943165e-03       1.221203620826e+04 
       3.862999240274e-03       1.295892538505e+04 
       4.171170631739e-03       1.373266002276e+04 
       4.503926445983e-03       1.453111834595e+04 
       4.863227909323e-03       1.535154984215e+04 
       5.251192705226e-03       1.619063613367e+04 
       5.670107455699e-03       1.704431256602e+04 
       6.122441198393e-03       1.790755938498e+04 
       6.610859938837e-03       1.877460409980e+04 
       7.138242363583e-03       1.963872429227e+04 
       7.707696806873e-03       2.049215713396e+04 
       8.322579570814e-03       2.132606808009e+04 
       8.986514707061e-03       2.213055077084e+04 
       9.703415376577e-03       2.289445471307e+04 
       1.047750691338e-02       2.360548541288e+04 
       1.131335172818e-02       2.425022939254e+04 
       1.221587619877e-02       2.481423921407e+04 
       1.319039970550e-02       2.528218655379e+04 
       1.424266598317e-02       2.563814315586e+04 
       1.537887697392e-02       2.586607648225e+04 
       1.660572938023e-02       2.595026917032e+04 
       1.793045412706e-02       2.587633858974e+04 
       1.936085890181e-02       2.563218558151e+04 
       2.090537352463e-02       2.520933512495e+04 
       2.257309535333e-02       2.460444552960e+04 
       2.437382002918e-02       2.382090065777e+04 
       2.631799944462e-02       2.287046338493e+04 
       2.841644545389e-02       2.177453919200e+04 
       3.067933355377e-02       2.056562138348e+04 
       3.311368470740e-02       1.928728646836e+04 
       3.571840443502e-02       1.799403593214e+04 
       3.847720348444e-02       1.674676621812e+04 
       4.135335538431e-02       1.560460336191e+04 
       4.429361667738e-02       1.461039574677e+04 
       4.724366439141e-02       1.378048776620e+04 
       5.016480835311e-02       1.310509348446e+04 
       5.303989620246e-02       1.255716450407e+04 
       5.586870669566e-02       1.210429260773e+04 
       5.866042680613e-02       1.171466379818e+04 
       6.142798932958e-02       1.136045027994e+04 
       6.418496440164e-02       1.101856161553e+04 
       6.694418833788e-02       1.067067258543e+04 
       6.971731106057e-02       1.030356213422e+04 
       7.251476155766e-02       9.908995944612e+03 
       7.534587671527e-02       9.483751654878e+03 
       7.821907666265e-02       9.029532276093e+03 
       8.114203772912e-02       8.552287947612e+03 
       8.412184535029e-02       8.061948893725e+03 
       8.716512279304e-02       7.570776642834e+03 
       9.027813695930e-02       7.092460456421e+03 
       9.346688431697e-02       6.640488184193e+03 
       9.673716028276e-02       6.226692204216e+03 
       1.000946150830e-01       5.859961645670e+03 
       1.035447986537e-01       5.545250890732e+03 
       1.070931966762e-01       5.283161707719e+03 
       1.107452594425e-01       5.069434178593e+03 
       1.145064249153e-01       4.895234760312e+03 
       1.183821370918e-01       4.747833058675e+03 
       1.223778605862e-01       4.611730891302e+03 
       1.264990921987e-01       4.470627797380e+03 
       1.307513701367e-01       4.310262947204e+03 
       1.351402814784e-01       4.121388886974e+03 
       1.396714684203e-01       3.902072974424e+03 
       1.443506338194e-01       3.658645833440e+03 
       1.491835465229e-01       3.404488802961e+03 
       1.541760469708e-01       3.156676930887e+03 
       1.593340535561e-01       2.931975735664e+03 
       1.646635702297e-01       2.742378281070e+03 
       1.701706958456e-01       2.592263359319e+03 
       1.758616357459e-01       2.477238052043e+03 
       1.817427160982e-01       2.385183009118e+03 
       1.878204015065e-01       2.300358839073e+03 
       1.941013164283e-01       2.205759847270e+03 
       2.005922709503e-01       2.090814756562e+03 
       2.073002914972e-01       1.956467927194e+03 
       2.142326570816e-01       1.814191204185e+03 
       2.213969417533e-01       1.679290716864e+03 
       2.288010639706e-01       1.563843319103e+03 
       2.364533437147e-01       1.472682591854e+03 
       2.443625682930e-01       1.401512887150e+03 
       2.525380679504e-01       1.338415838705e+03 
       2.609898026346e-01       1.270903465409e+03 
       2.697284615565e-01       1.193382820552e+03 
       2.787655775689e-01       1.109336888953e+03 
       2.881136588829e-01       1.028767423874e+03 
       2.977863412677e-01       9.604786548768e+02 
       3.077985646929e-01       9.050216778570e+02 
       3.181667794071e-01       8.561450030950e+02 
       3.289091877812e-01       8.061869507517e+02 
       3.400460299658e-01       7.523910136959e+02 
       3.515999236474e-01       6.989228905252e+02 
       3.635962711085e-01       6.510608140740e+02 
       3.760637506334e-01       6.101214292802e+02 
       3.890349143879e-01       5.721299169828e+02 
       4.025469216825e-01       5.337812587740e+02 
       4.166424456376e-01       4.956319282455e+02 
       4.313708035863e-01       4.604669029605e+02 
       4.467893782977e-01       4.287765465944e+02 
       4.629654199664e-01       3.987696983906e+02 
       4.799783501994e-01       3.692399338427e+02 
       4.979227319373e-01       3.412378602232e+02 
       5.169121270864e-01       3.154809802390e+02 
       5.370841404489e-01       2.908322871974e+02 
       5.586070464571e-01       2.671029020499e+02 
       5.816885094930e-01       2.448052151487e+02 
       6.065870144995e-01       2.235641609701e+02 
       6.336266468475e-01       2.032066282336e+02 
       6.632156059511e-01       1.838748036590e+02 
       6.958678639263e-01       1.653507065943e+02 
       7.322247985589e-01       1.476910749731e+02 
       7.730680195114e-01       1.308289297776e+02 
       8.193049553677e-01       1.148258659307e+02 
       8.718988016039e-01       9.975700977995e+01 
       9.317218031082e-01       8.577203758565e+01 
       9.993660908989e-01       7.304794674089e+01 
       1.075037110174e+00       6.172833527266e+01 
       1.158653485707e+00       5.187116349142e+01 
       1.250099157308e+00       4.343125568828e+01 
       1.349432401273e+00       3.627960684900e+01 
       1.456947457397e+00       3.025710905569e+01 
       1.573135111331e+00       2.520282122710e+01 
       1.698621895592e+00       2.096932524733e+01 
       1.834127512934e+00       1.742864403773e+01 
       1.980444934528e+00       1.447085827612e+01 
       2.138435191726e+00       1.200284488947e+01 
       2.309029199186e+00       9.945882569807e+00 
       2.493232377687e+00       8.233194279544e+00 
       2.692130395285e+00       6.808605076355e+00 
       2.906895534573e+00       5.624796678753e+00 
       3.138793597714e+00       4.641931415221e+00 
       3.389191366484e+00       3.826554991167e+00 
       3.659564657905e+00       3.150758186761e+00 
       3.951507022538e+00       2.590982070157e+00 
       4.266739136701e+00       2.127682090591e+00 
       4.607118943941e+00       1.744458274099e+00 
       4.974652605557e+00       1.427669140715e+00 
       5.371506324689e+00       1.165942594843e+00 
       5.800019113685e+00       9.498152550909e-01 
       6.262716579983e+00       7.714317895604e-01 
       6.762325811764e+00       6.242771421281e-01 
       7.301791451110e+00       5.029544859098e-01 
       7.884293049406e+00       4.029966890703e-01 
       8.513263807261e+00       3.207213125863e-01 
       9.192410809424e+00       2.530944299135e-01 
       9.925736873929e+00       1.976275078040e-01 
       1.071756414427e+01       1.522688367430e-01 
       1.157255956364e+01       1.153508380099e-01 
       1.249576238137e+01       8.551279251558e-02 
       1.349261385375e+01       6.163737489341e-02 
       1.456898931416e+01       4.281386603138e-02 
       1.573123280165e+01       2.828635636083e-02 
       1.698619445202e+01       1.742024862263e-02 
       1.834127087176e+01       9.663221572133e-03 
       1.980444873285e+01       4.516538168967e-03 
       2.138435184532e+01       1.509917694120e-03 
       2.309029198506e+01       1.821058225679e-04 
       2.493232377636e+01       7.365728755529e-05 
       2.692130395282e+01       7.305111142398e-04 
       2.906895534573e+01       1.722118588602e-03 
       3.138793597714e+01       2.671209077623e-03 
       3.389191366484e+01       3.292593060818e-03 
       3.659564657905e+01       3.428182404342e-03 
       3.951507022538e+01       3.067926582184e-03 
       4.266739136701e+01       2.340729059258e-03 
       4.607118943941e+01       1.469619233715e-03 
       4.974652605557e+01       6.954544913920e-04 
       5.371506324689e+01       1.918432802297e-04 
       5.800019113685e+01       5.029190141667e-06 
       6.262716579983e+01       5.007792364812e-05 
       6.762325811764e+01       1.705285330001e-04 
