# Matter power spectrum P(k) at redshift z=0
# for k=1.04775e-05 to 67.6233 h/Mpc,
# number of wavenumbers equal to 246
#    1:k (h/Mpc)              2:P (Mpc/h)^3        
       1.047750691338e-05       5.020964806749e+01 
       1.131335172818e-05       5.407048206553e+01 
       1.221587619877e-05       5.822819064059e+01 
       1.319039970550e-05       6.270562589680e+01 
       1.424266598317e-05       6.752731788102e+01 
       1.537887697396e-05       7.271977200258e+01 
       1.660572938097e-05       7.831147241542e+01 
       1.793045413791e-05       8.433311815128e+01 
       1.936085902737e-05       9.081778242446e+01 
       2.090537469909e-05       9.780108061339e+01 
       2.257310435923e-05       1.053213197032e+02 
       2.437387742372e-05       1.134197377001e+02 
       2.631830745176e-05       1.221408202815e+02 
       2.841785470091e-05       1.315324720916e+02 
       3.068489367268e-05       1.416462093730e+02 
       3.313278604643e-05       1.525374500691e+02 
       3.577595943165e-05       1.642660687078e+02 
       3.862999240274e-05       1.768963504868e+02 
       4.171170631739e-05       1.904975992460e+02 
       4.503926445983e-05       2.051444490305e+02 
       4.863227909323e-05       2.209171463752e+02 
       5.251192705226e-05       2.379022222314e+02 
       5.670107455699e-05       2.561927925825e+02 
       6.122441198393e-05       2.758890441790e+02 
       6.610859938837e-05       2.970989225465e+02 
       7.138242363583e-05       3.199385558200e+02 
       7.707696806873e-05       3.445329780878e+02 
       8.322579570814e-05       3.710167315928e+02 
       8.986514707061e-05       3.995346440954e+02 
       9.703415376577e-05       4.302425403884e+02 
       1.047750691338e-04       4.633080762974e+02 
       1.131335172818e-04       4.989116267507e+02 
       1.221587619877e-04       5.372471946561e+02 
       1.319039970550e-04       5.785234124629e+02 
       1.424266598317e-04       6.229645929806e+02 
       1.537887697396e-04       6.708118484951e+02 
       1.660572938097e-04       7.223242660220e+02 
       1.793045413791e-04       7.777801553484e+02 
       1.936085902737e-04       8.374783607333e+02 
       2.090537469909e-04       9.017396264495e+02 
       2.257310435923e-04       9.709080260152e+02 
       2.437387742372e-04       1.045352448644e+03 
       2.631830745176e-04       1.125468122836e+03 
       2.841785470091e-04       1.211678179511e+03 
       3.068489367268e-04       1.304435249091e+03 
       3.313278604643e-04       1.404223052541e+03 
       3.577595943165e-04       1.511558013390e+03 
       3.862999240274e-04       1.626990836435e+03 
       4.171170631739e-04       1.751108027370e+03 
       4.503926445983e-04       1.884533381345e+03 
       4.863227909323e-04       2.027929376470e+03 
       5.251192705226e-04       2.181998446368e+03 
       5.670107455699e-04       2.347484100857e+03 
       6.122441198393e-04       2.525171869337e+03 
       6.610859938837e-04       2.715889981401e+03 
       7.138242363583e-04       2.920509686077e+03 
       7.707696806873e-04       3.139945097710e+03 
       8.322579570814e-04       3.375152334394e+03 
       8.986514707061e-04       3.627127828231e+03 
       9.703415376577e-04       3.896905450016e+03 
       1.047750691338e-03       4.185552170961e+03 
       1.131335172818e-03       4.494162426791e+03 
       1.221587619877e-03       4.823850702668e+03 
       1.319039970550e-03       5.175742737617e+03 
       1.424266598317e-03       5.551019592529e+03 
       1.537887697396e-03       5.950788335878e+03 
       1.660572938097e-03       6.376123046807e+03 
       1.793045413791e-03       6.828073896113e+03 
       1.936085902737e-03       7.307625375386e+03 
       2.090537469909e-03       7.815671897506e+03 
       2.257310435923e-03       8.352990369392e+03 
       2.437387742372e-03       8.920211057535e+03 
       2.631830745176e-03       9.517783061889e+03 
       2.841785470091e-03       1.014593703671e+04 
       3.068489367268e-03       1.080464505732e+04 
       3.313278604643e-03       1.149357459433e+04 
       3.577595943165e-03       1.221203620826e+04 
       3.862999240274e-03       1.295892538505e+04 
       4.171170631739e-03       1.373266002383e+04 
       4.503926445983e-03       1.453111834594e+04 
       4.863227909323e-03       1.535154984210e+04 
       5.251192705226e-03       1.619063613335e+04 
       5.670107455699e-03       1.704431256591e+04 
       6.122441198393e-03       1.790755938513e+04 
       6.610859938837e-03       1.877460416751e+04 
       7.138242363583e-03       1.963872429283e+04 
       7.707696806873e-03       2.049215713388e+04 
       8.322579570814e-03       2.132606961544e+04 
       8.986514707061e-03       2.213055096259e+04 
       9.703415376577e-03       2.289445471546e+04 
       1.047750691338e-02       2.360548766399e+04 
       1.131335172818e-02       2.425022855247e+04 
       1.221587619877e-02       2.481423923416e+04 
       1.319039970550e-02       2.528218621849e+04 
       1.424266598317e-02       2.563813568933e+04 
       1.537887697392e-02       2.586607108747e+04 
       1.660572938023e-02       2.595028339560e+04 
       1.793045412706e-02       2.587637493820e+04 
       1.936085890181e-02       2.563220733632e+04 
       2.090537352463e-02       2.520934670963e+04 
       2.257309535333e-02       2.460448155882e+04 
       2.437382002918e-02       2.382088753384e+04 
       2.631799944462e-02       2.287048416295e+04 
       2.841644545389e-02       2.177450903019e+04 
       3.067933355377e-02       2.056554885621e+04 
       3.311368470740e-02       1.928728842698e+04 
       3.571840443502e-02       1.799401334994e+04 
       3.847720348444e-02       1.674685053421e+04 
       4.135335538431e-02       1.560456330219e+04 
       4.429361667738e-02       1.461037425647e+04 
       4.724366439141e-02       1.378054946313e+04 
       5.016480835311e-02       1.310509606517e+04 
       5.303989620246e-02       1.255716877537e+04 
       5.586870669566e-02       1.210427011777e+04 
       5.866042680613e-02       1.171465722181e+04 
       6.142798932958e-02       1.136047360650e+04 
       6.418496440164e-02       1.101857186442e+04 
       6.694418833788e-02       1.067066431241e+04 
       6.971731106057e-02       1.030360620943e+04 
       7.251476155766e-02       9.908982337551e+03 
       7.534587671527e-02       9.483736081408e+03 
       7.821907666265e-02       9.029497810566e+03 
       8.114203772912e-02       8.552311012721e+03 
       8.412184535029e-02       8.061905519162e+03 
       8.716512279304e-02       7.570759101066e+03 
       9.027813695930e-02       7.092460703555e+03 
       9.346688431697e-02       6.640472625410e+03 
       9.673716028276e-02       6.226688646229e+03 
       1.000946150830e-01       5.859940030397e+03 
       1.035447986537e-01       5.545239833494e+03 
       1.070931966762e-01       5.283122069630e+03 
       1.107452594425e-01       5.069420325813e+03 
       1.145064249153e-01       4.895258124603e+03 
       1.183821370918e-01       4.747834463366e+03 
       1.223778605862e-01       4.611715708427e+03 
       1.264990921987e-01       4.470622491200e+03 
       1.307513701367e-01       4.310272919882e+03 
       1.351402814784e-01       4.121383055017e+03 
       1.396714684203e-01       3.902074175202e+03 
       1.443506338194e-01       3.658650601727e+03 
       1.491835465229e-01       3.404465172881e+03 
       1.541760469708e-01       3.156675710865e+03 
       1.593340535561e-01       2.931982491970e+03 
       1.646635702297e-01       2.742376483588e+03 
       1.701706958456e-01       2.592257759553e+03 
       1.758616357459e-01       2.477231027113e+03 
       1.817427160982e-01       2.385183494362e+03 
       1.878204015065e-01       2.300356847583e+03 
       1.941013164283e-01       2.205758105112e+03 
       2.005922709503e-01       2.090817008301e+03 
       2.073002914972e-01       1.956468603474e+03 
       2.142326570816e-01       1.814187816902e+03 
       2.213969417533e-01       1.679292700583e+03 
       2.288010639706e-01       1.563844007965e+03 
       2.364533437147e-01       1.472684535172e+03 
       2.443625682930e-01       1.401509377701e+03 
       2.525380679504e-01       1.338406399955e+03 
       2.609898026346e-01       1.270894773966e+03 
       2.697284615565e-01       1.193382254571e+03 
       2.787655775689e-01       1.109336309507e+03 
       2.881136588829e-01       1.028764954253e+03 
       2.977863412677e-01       9.604779472622e+02 
       3.077985646929e-01       9.050172876297e+02 
       3.181667794071e-01       8.561412267275e+02 
       3.289091877812e-01       8.061826386935e+02 
       3.400460299658e-01       7.523851140118e+02 
       3.515999236474e-01       6.989159391309e+02 
       3.635962711085e-01       6.510556687202e+02 
       3.760637506334e-01       6.101151039701e+02 
       3.890349143879e-01       5.721248884023e+02 
       4.025469216825e-01       5.337756571746e+02 
       4.166424456376e-01       4.956220716273e+02 
       4.313708035863e-01       4.604610748253e+02 
       4.467893782977e-01       4.287680166594e+02 
       4.629654199664e-01       3.987628091578e+02 
       4.799783501994e-01       3.692324695747e+02 
       4.979227319373e-01       3.412290087139e+02 
       5.169121270864e-01       3.154731260029e+02 
       5.370841404489e-01       2.908241702338e+02 
       5.586070464571e-01       2.670938337649e+02 
       5.816885094930e-01       2.447969844529e+02 
       6.065870144995e-01       2.235531379281e+02 
       6.336266468475e-01       2.031957345442e+02 
       6.632156059511e-01       1.838635598383e+02 
       6.958678639263e-01       1.653384107487e+02 
       7.322247985589e-01       1.476779831070e+02 
       7.730680195114e-01       1.308144394362e+02 
       8.193049553677e-01       1.148107466287e+02 
       8.718988016039e-01       9.974064355672e+01 
       9.317218031082e-01       8.575428669418e+01 
       9.993660908989e-01       7.302934383488e+01 
       1.075037110174e+00       6.170815135896e+01 
       1.158653485707e+00       5.184891406168e+01 
       1.250099157308e+00       4.340738652489e+01 
       1.349432401273e+00       3.625364728235e+01 
       1.456947457397e+00       3.022930676038e+01 
       1.573135111331e+00       2.517271663375e+01 
       1.698621895592e+00       2.093682535802e+01 
       1.834127512934e+00       1.739361570639e+01 
       1.980444934528e+00       1.443322901452e+01 
       2.138435191726e+00       1.196252732667e+01 
       2.309029199186e+00       9.902658290304e+00 
       2.493232377687e+00       8.186992026346e+00 
       2.692130395285e+00       6.759347829203e+00 
       2.906895534573e+00       5.572365885164e+00 
       3.138793597714e+00       4.586226820217e+00 
       3.389191366484e+00       3.767577906560e+00 
       3.659564657905e+00       3.088422107601e+00 
       3.951507022538e+00       2.525374612284e+00 
       4.266739136701e+00       2.058854030355e+00 
       4.607118943941e+00       1.672522093798e+00 
       4.974652605557e+00       1.352818291590e+00 
       5.371506324689e+00       1.088450757552e+00 
       5.800019113685e+00       8.700458759355e-01 
       6.262716579983e+00       6.898554768576e-01 
       6.762325811764e+00       5.414818930305e-01 
       7.301791451110e+00       4.196675732906e-01 
       7.884293049406e+00       3.200880993088e-01 
       8.513263807261e+00       2.391980581748e-01 
       9.192410809424e+00       1.741020932976e-01 
       9.925736873929e+00       1.224195376042e-01 
       1.071756414427e+01       8.218261404292e-02 
       1.157255956364e+01       5.173827564478e-02 
       1.249576238137e+01       2.965507999122e-02 
       1.349261385375e+01       1.464455344151e-02 
       1.456898931416e+01       5.494422089102e-03 
       1.573123280165e+01       1.018041168859e-03 
       1.698619445202e+01       2.661769299775e-05 
       1.834127087176e+01       1.333317986325e-03 
       1.980444873285e+01       3.792299100308e-03 
       2.138435184532e+01       6.372657311749e-03 
       2.309029198506e+01       8.256503460649e-03 
       2.493232377636e+01       8.939464172926e-03 
       2.692130395282e+01       8.297461113279e-03 
       2.906895534573e+01       6.586803866093e-03 
       3.138793597714e+01       4.348322701777e-03 
       3.389191366484e+01       2.222508757881e-03 
       3.659564657905e+01       7.235583574725e-04 
       3.951507022538e+01       5.746101972026e-05 
       4.266739136701e+01       7.238939680507e-05 
       4.607118943941e+01       3.805175735654e-04 
       4.974652605557e+01       5.949027854672e-04 
       5.371506324689e+01       5.405975334610e-04 
       5.800019113685e+01       3.018176663616e-04 
       6.262716579983e+01       8.104418227965e-05 
       6.762325811764e+01       6.256625434358e-07 
