# Matter power spectrum P(k) at redshift z=99
# for k=1.04775e-05 to 67.6233 h/Mpc,
# number of wavenumbers equal to 246
#    1:k (h/Mpc)              2:P (Mpc/h)^3        
       1.047750691338e-05       7.261927673119e-03 
       1.131335172818e-05       7.820331745737e-03 
       1.221587619877e-05       8.421675986489e-03 
       1.319039970550e-05       9.069258192195e-03 
       1.424266598317e-05       9.766638404421e-03 
       1.537887697396e-05       1.051764069682e-02 
       1.660572938097e-05       1.132639105520e-02 
       1.793045413791e-05       1.219733231417e-02 
       1.936085902737e-05       1.313524224381e-02 
       2.090537469909e-05       1.414527121893e-02 
       2.257310435923e-05       1.523296272192e-02 
       2.437387742372e-05       1.640429444530e-02 
       2.631830745176e-05       1.766569582178e-02 
       2.841785470091e-05       1.902408601793e-02 
       3.068489367268e-05       2.048692970592e-02 
       3.313278604643e-05       2.206225513594e-02 
       3.577595943165e-05       2.375870704909e-02 
       3.862999240274e-05       2.558560727479e-02 
       4.171170631739e-05       2.755297763344e-02 
       4.503926445983e-05       2.967161927315e-02 
       4.863227909323e-05       3.195316450832e-02 
       5.251192705226e-05       3.441013519284e-02 
       5.670107455699e-05       3.705601722526e-02 
       6.122441198393e-05       3.990533413562e-02 
       6.610859938837e-05       4.297372168203e-02 
       7.138242363583e-05       4.627802141688e-02 
       7.707696806873e-05       4.983636194159e-02 
       8.322579570814e-05       5.366826847231e-02 
       8.986514707061e-05       5.779476394569e-02 
       9.703415376577e-05       6.223848243885e-02 
       1.047750691338e-04       6.702379865640e-02 
       1.131335172818e-04       7.217695153381e-02 
       1.221587619877e-04       7.772619073573e-02 
       1.319039970550e-04       8.370193432376e-02 
       1.424266598317e-04       9.013692507547e-02 
       1.537887697396e-04       9.706641242571e-02 
       1.660572938097e-04       1.045283354271e-01 
       1.793045413791e-04       1.125635349068e-01 
       1.936085902737e-04       1.212159614968e-01 
       2.090537469909e-04       1.305329132714e-01 
       2.257310435923e-04       1.405652846215e-01 
       2.437387742372e-04       1.513678302540e-01 
       2.631830745176e-04       1.629994504870e-01 
       2.841785470091e-04       1.755234921224e-01 
       3.068489367268e-04       1.890080670413e-01 
       3.313278604643e-04       2.035264002435e-01 
       3.577595943165e-04       2.191571803681e-01 
       3.862999240274e-04       2.359849437593e-01 
       4.171170631739e-04       2.541004741539e-01 
       4.503926445983e-04       2.736012080277e-01 
       4.863227909323e-04       2.945916790965e-01 
       5.251192705226e-04       3.171839525183e-01 
       5.670107455699e-04       3.414980764002e-01 
       6.122441198393e-04       3.676625413101e-01 
       6.610859938837e-04       3.958147252304e-01 
       7.138242363583e-04       4.261013284911e-01 
       7.707696806873e-04       4.586787792349e-01 
       8.322579570814e-04       4.937136001357e-01 
       8.986514707061e-04       5.313826801402e-01 
       9.703415376577e-04       5.718734972158e-01 
       1.047750691338e-03       6.153841629505e-01 
       1.131335172818e-03       6.621233239466e-01 
       1.221587619877e-03       7.123098220417e-01 
       1.319039970550e-03       7.661720584563e-01 
       1.424266598317e-03       8.239546297731e-01 
       1.537887697396e-03       8.859011173466e-01 
       1.660572938097e-03       9.522588006391e-01 
       1.793045413791e-03       1.023280099819e+00 
       1.936085902737e-03       1.099216304579e+00 
       2.090537469909e-03       1.180312990453e+00 
       2.257310435923e-03       1.266804115850e+00 
       2.437387742372e-03       1.358904853408e+00 
       2.631830745176e-03       1.456802683156e+00 
       2.841785470091e-03       1.560646890521e+00 
       3.068489367268e-03       1.670536062500e+00 
       3.313278604643e-03       1.786503852158e+00 
       3.577595943165e-03       1.908502930787e+00 
       3.862999240274e-03       2.036387730708e+00 
       4.171170631739e-03       2.169896178755e+00 
       4.503926445983e-03       2.308631878993e+00 
       4.863227909323e-03       2.452047290961e+00 
       5.251192705226e-03       2.599430628086e+00 
       5.670107455699e-03       2.749896931858e+00 
       6.122441198393e-03       2.902386513382e+00 
       6.610859938837e-03       3.055668706433e+00 
       7.138242363583e-03       3.208356461543e+00 
       7.707696806873e-03       3.358923892308e+00 
       8.322579570814e-03       3.505725595310e+00 
       8.986514707061e-03       3.647009252127e+00 
       9.703415376577e-03       3.780923304288e+00 
       1.047750691338e-02       3.905491219102e+00 
       1.131335172818e-02       4.018587641266e+00 
       1.221587619877e-02       4.117901585259e+00 
       1.319039970550e-02       4.200915458098e+00 
       1.424266598317e-02       4.264942456986e+00 
       1.537887697392e-02       4.307217744674e+00 
       1.660572938023e-02       4.325062795842e+00 
       1.793045412706e-02       4.316059949755e+00 
       1.936085890181e-02       4.278229122820e+00 
       2.090537352463e-02       4.210200707572e+00 
       2.257309535333e-02       4.111420902702e+00 
       2.437382002918e-02       3.982422824181e+00 
       2.631799944462e-02       3.825168176362e+00 
       2.841644545389e-02       3.643278225718e+00 
       3.067933355377e-02       3.442193929836e+00 
       3.311368470740e-02       3.229244006904e+00 
       3.571840443502e-02       3.013511472649e+00 
       3.847720348444e-02       2.805290956562e+00 
       4.135335538431e-02       2.614408784970e+00 
       4.429361667738e-02       2.448128838316e+00 
       4.724366439141e-02       2.309234957075e+00 
       5.016480835311e-02       2.196115022906e+00 
       5.303989620246e-02       2.104361507177e+00 
       5.586870669566e-02       2.028462803701e+00 
       5.866042680613e-02       1.963156042195e+00 
       6.142798932958e-02       1.903779928143e+00 
       6.418496440164e-02       1.846478391473e+00 
       6.694418833788e-02       1.788197462174e+00 
       6.971731106057e-02       1.726714625372e+00 
       7.251476155766e-02       1.660654398090e+00 
       7.534587671527e-02       1.589469955624e+00 
       7.821907666265e-02       1.513436688878e+00 
       8.114203772912e-02       1.433569555733e+00 
       8.412184535029e-02       1.351492584155e+00 
       8.716512279304e-02       1.269272547528e+00 
       9.027813695930e-02       1.189194679358e+00 
       9.346688431697e-02       1.113501624370e+00 
       9.673716028276e-02       1.044176795966e+00 
       1.000946150830e-01       9.827065916853e-01 
       1.035447986537e-01       9.299367722729e-01 
       1.070931966762e-01       8.859578397605e-01 
       1.107452594425e-01       8.500716497481e-01 
       1.145064249153e-01       8.208028586246e-01 
       1.183821370918e-01       7.960271514435e-01 
       1.223778605862e-01       7.731473846482e-01 
       1.264990921987e-01       7.494512756621e-01 
       1.307513701367e-01       7.225574248607e-01 
       1.351402814784e-01       6.909087841405e-01 
       1.396714684203e-01       6.541814385978e-01 
       1.443506338194e-01       6.134271950139e-01 
       1.491835465229e-01       5.708686282951e-01 
       1.541760469708e-01       5.293650831309e-01 
       1.593340535561e-01       4.917111586837e-01 
       1.646635702297e-01       4.599190064047e-01 
       1.701706958456e-01       4.347278079078e-01 
       1.758616357459e-01       4.154083633047e-01 
       1.817427160982e-01       3.999377076574e-01 
       1.878204015065e-01       3.856826490095e-01 
       1.941013164283e-01       3.698097916810e-01 
       2.005922709503e-01       3.505463033295e-01 
       2.073002914972e-01       3.280424988534e-01 
       2.142326570816e-01       3.042134548483e-01 
       2.213969417533e-01       2.816116668346e-01 
       2.288010639706e-01       2.622572219551e-01 
       2.364533437147e-01       2.469618660372e-01 
       2.443625682930e-01       2.350128731417e-01 
       2.525380679504e-01       2.244177475392e-01 
       2.609898026346e-01       2.130936570329e-01 
       2.697284615565e-01       2.001016272794e-01 
       2.787655775689e-01       1.860196263281e-01 
       2.881136588829e-01       1.725173760445e-01 
       2.977863412677e-01       1.610655227418e-01 
       3.077985646929e-01       1.517607591031e-01 
       3.181667794071e-01       1.435594651535e-01 
       3.289091877812e-01       1.351819750837e-01 
       3.400460299658e-01       1.261647305402e-01 
       3.515999236474e-01       1.172017748521e-01 
       3.635962711085e-01       1.091765830985e-01 
       3.760637506334e-01       1.023095060789e-01 
       3.890349143879e-01       9.593808546631e-02 
       4.025469216825e-01       8.950774692239e-02 
       4.166424456376e-01       8.311169242533e-02 
       4.313708035863e-01       7.721554753797e-02 
       4.467893782977e-01       7.190068424533e-02 
       4.629654199664e-01       6.686909862786e-02 
       4.799783501994e-01       6.191743963895e-02 
       4.979227319373e-01       5.722215797239e-02 
       5.169121270864e-01       5.290283879565e-02 
       5.370841404489e-01       4.876979299401e-02 
       5.586070464571e-01       4.479085064306e-02 
       5.816885094930e-01       4.105185626805e-02 
       6.065870144995e-01       3.748979535581e-02 
       6.336266468475e-01       3.407627704280e-02 
       6.632156059511e-01       3.083457186622e-02 
       6.958678639263e-01       2.772830263088e-02 
       7.322247985589e-01       2.476711067924e-02 
       7.730680195114e-01       2.193952194736e-02 
       8.193049553677e-01       1.925613892321e-02 
       8.718988016039e-01       1.672929220385e-02 
       9.317218031082e-01       1.438422718075e-02 
       9.993660908989e-01       1.225063761883e-02 
       1.075037110174e+00       1.035263253378e-02 
       1.158653485707e+00       8.699670801628e-03 
       1.250099157308e+00       7.284615537100e-03 
       1.349432401273e+00       6.085450597818e-03 
       1.456947457397e+00       5.075690380905e-03 
       1.573135111331e+00       4.228290884300e-03 
       1.698621895592e+00       3.518546077223e-03 
       1.834127512934e+00       2.924970302180e-03 
       1.980444934528e+00       2.429152972852e-03 
       2.138435191726e+00       2.015508770059e-03 
       2.309029199186e+00       1.670773727927e-03 
       2.493232377687e+00       1.383789296221e-03 
       2.692130395285e+00       1.145127130189e-03 
       2.906895534573e+00       9.468511292497e-04 
       3.138793597714e+00       7.822867337367e-04 
       3.389191366484e+00       6.458178853736e-04 
       3.659564657905e+00       5.327661473138e-04 
       3.951507022538e+00       4.391830855153e-04 
       4.266739136701e+00       3.617863423203e-04 
       4.607118943941e+00       2.978236955837e-04 
       4.974652605557e+00       2.450112126411e-04 
       5.371506324689e+00       2.014319959786e-04 
       5.800019113685e+00       1.655034245796e-04 
       6.262716579983e+00       1.359002802971e-04 
       6.762325811764e+00       1.115273102785e-04 
       7.301791451110e+00       9.147288237355e-05 
       7.884293049406e+00       7.498394870478e-05 
       8.513263807261e+00       6.143365844495e-05 
       9.192410809424e+00       5.030572407599e-05 
       9.925736873929e+00       4.117264525222e-05 
       1.071756414427e+01       3.368114518562e-05 
       1.157255956364e+01       2.753918694714e-05 
       1.249576238137e+01       2.250678484965e-05 
       1.349261385375e+01       1.838555520507e-05 
       1.456898931416e+01       1.501204012184e-05 
       1.573123280165e+01       1.225240585505e-05 
       1.698619445202e+01       9.995668879761e-06 
       1.834127087176e+01       8.151192251628e-06 
       1.980444873285e+01       6.644314796816e-06 
       2.138435184532e+01       5.413880954030e-06 
       2.309029198506e+01       4.409532983830e-06 
       2.493232377636e+01       3.590133945071e-06 
       2.692130395282e+01       2.921838879342e-06 
       2.906895534573e+01       2.377073421490e-06 
       3.138793597714e+01       1.933139638589e-06 
       3.389191366484e+01       1.571503118705e-06 
       3.659564657905e+01       1.277059491933e-06 
       3.951507022538e+01       1.037371855864e-06 
       4.266739136701e+01       8.423510704171e-07 
       4.607118943941e+01       6.837084088033e-07 
       4.974652605557e+01       5.547275650729e-07 
       5.371506324689e+01       4.498836591139e-07 
       5.800019113685e+01       3.646844450442e-07 
       6.262716579983e+01       2.954763386710e-07 
       6.762325811764e+01       2.392775944642e-07 
