# Matter power spectrum P(k) at redshift z=0
# for k=1.04775e-05 to 134.926 h/Mpc,
# number of wavenumbers equal to 255
#    1:k (h/Mpc)              2:P (Mpc/h)^3        
       1.047750691338e-05       5.020963906805e+01 
       1.131335172818e-05       5.407048937148e+01 
       1.221587619877e-05       5.822820724031e+01 
       1.319039970550e-05       6.270562047254e+01 
       1.424266598317e-05       6.752731476100e+01 
       1.537887697396e-05       7.271975715396e+01 
       1.660572938097e-05       7.831147101248e+01 
       1.793045413791e-05       8.433312302137e+01 
       1.936085902737e-05       9.081780130647e+01 
       2.090537469909e-05       9.780107448576e+01 
       2.257310435923e-05       1.053212938596e+02 
       2.437387742372e-05       1.134197268469e+02 
       2.631830745176e-05       1.221408285622e+02 
       2.841785470091e-05       1.315324590474e+02 
       3.068489367268e-05       1.416461671361e+02 
       3.313278604643e-05       1.525374478885e+02 
       3.577595943165e-05       1.642660517263e+02 
       3.862999240274e-05       1.768963429377e+02 
       4.171170631739e-05       1.904975997820e+02 
       4.503926445983e-05       2.051444243232e+02 
       4.863227909323e-05       2.209171412047e+02 
       5.251192705226e-05       2.379022266151e+02 
       5.670107455699e-05       2.561927841252e+02 
       6.122441198393e-05       2.758890480161e+02 
       6.610859938837e-05       2.970989214021e+02 
       7.138242363583e-05       3.199385559923e+02 
       7.707696806873e-05       3.445329726996e+02 
       8.322579570814e-05       3.710167323990e+02 
       8.986514707061e-05       3.995346444109e+02 
       9.703415376577e-05       4.302425389330e+02 
       1.047750691338e-04       4.633080773433e+02 
       1.131335172818e-04       4.989116269103e+02 
       1.221587619877e-04       5.372471938755e+02 
       1.319039970550e-04       5.785234116842e+02 
       1.424266598317e-04       6.229645933061e+02 
       1.537887697396e-04       6.708118487433e+02 
       1.660572938097e-04       7.223242657662e+02 
       1.793045413791e-04       7.777801571154e+02 
       1.936085902737e-04       8.374783638204e+02 
       2.090537469909e-04       9.017396276733e+02 
       2.257310435923e-04       9.709080297396e+02 
       2.437387742372e-04       1.045352453345e+03 
       2.631830745176e-04       1.125468127680e+03 
       2.841785470091e-04       1.211678185878e+03 
       3.068489367268e-04       1.304435256002e+03 
       3.313278604643e-04       1.404223062841e+03 
       3.577595943165e-04       1.511558029477e+03 
       3.862999240274e-04       1.626990852429e+03 
       4.171170631739e-04       1.751108045444e+03 
       4.503926445983e-04       1.884533404556e+03 
       4.863227909323e-04       2.027929406706e+03 
       5.251192705226e-04       2.181998483599e+03 
       5.670107455699e-04       2.347484145671e+03 
       6.122441198393e-04       2.525171924700e+03 
       6.610859938837e-04       2.715890054357e+03 
       7.138242363583e-04       2.920509778539e+03 
       7.707696806873e-04       3.139945207071e+03 
       8.322579570814e-04       3.375152475788e+03 
       8.986514707061e-04       3.627128018917e+03 
       9.703415376577e-04       3.896905667565e+03 
       1.047750691338e-03       4.185552450180e+03 
       1.131335172818e-03       4.494162772517e+03 
       1.221587619877e-03       4.823851146762e+03 
       1.319039970550e-03       5.175743273904e+03 
       1.424266598317e-03       5.551020292509e+03 
       1.537887697396e-03       5.950789177444e+03 
       1.660572938097e-03       6.376124139748e+03 
       1.793045413791e-03       6.828075223332e+03 
       1.936085902737e-03       7.307627034043e+03 
       2.090537469909e-03       7.815673937282e+03 
       2.257310435923e-03       8.352992895181e+03 
       2.437387742372e-03       8.920214270931e+03 
       2.631830745176e-03       9.517787121661e+03 
       2.841785470091e-03       1.014594124957e+04 
       3.068489367268e-03       1.080465129243e+04 
       3.313278604643e-03       1.149358230364e+04 
       3.577595943165e-03       1.221204575319e+04 
       3.862999240274e-03       1.295893651964e+04 
       4.171170631739e-03       1.373267320359e+04 
       4.503926445983e-03       1.453113477130e+04 
       4.863227909323e-03       1.535156196557e+04 
       5.251192705226e-03       1.619060627707e+04 
       5.670107455699e-03       1.704432026937e+04 
       6.122441198393e-03       1.790759499464e+04 
       6.610859938837e-03       1.877464526223e+04 
       7.138242363583e-03       1.963872270348e+04 
       7.707696806873e-03       2.049202125184e+04 
       8.322579570814e-03       2.132607927462e+04 
       8.986514707061e-03       2.213062879037e+04 
       9.703415376577e-03       2.289444206686e+04 
       1.047750691338e-02       2.360542323995e+04 
       1.131335172818e-02       2.425021382906e+04 
       1.221587619877e-02       2.481360214905e+04 
       1.319039970550e-02       2.528218081519e+04 
       1.424266598317e-02       2.563807334384e+04 
       1.537887697392e-02       2.586564844754e+04 
       1.660572938023e-02       2.595009125430e+04 
       1.793045412706e-02       2.587587302317e+04 
       1.936085890181e-02       2.563210080198e+04 
       2.090537352463e-02       2.520922422632e+04 
       2.257309535333e-02       2.460422987634e+04 
       2.437382002918e-02       2.382066342693e+04 
       2.631799944462e-02       2.287016763225e+04 
       2.841644545389e-02       2.177428669892e+04 
       3.067933355377e-02       2.056535441383e+04 
       3.311368470740e-02       1.928704323470e+04 
       3.571840443502e-02       1.799385596739e+04 
       3.847720348444e-02       1.674678235894e+04 
       4.135335538431e-02       1.560447184816e+04 
       4.429361667738e-02       1.461023560711e+04 
       4.724366439141e-02       1.378042778861e+04 
       5.016480835311e-02       1.310492418777e+04 
       5.303989620246e-02       1.255709895924e+04 
       5.586870669566e-02       1.210415826562e+04 
       5.866042680613e-02       1.171426573810e+04 
       6.142798932958e-02       1.136003387713e+04 
       6.418496440164e-02       1.101851556088e+04 
       6.694418833788e-02       1.067056841754e+04 
       6.971731106057e-02       1.030333456636e+04 
       7.251476155766e-02       9.908954092381e+03 
       7.534587671527e-02       9.483481932617e+03 
       7.821907666265e-02       9.029172917920e+03 
       8.114203772912e-02       8.551992745894e+03 
       8.412184535029e-02       8.061796625445e+03 
       8.716512279304e-02       7.570606394870e+03 
       9.027813695930e-02       7.092315975833e+03 
       9.346688431697e-02       6.640365867417e+03 
       9.673716028276e-02       6.226547757210e+03 
       1.000946150830e-01       5.859762495791e+03 
       1.035447986537e-01       5.545057019577e+03 
       1.070931966762e-01       5.282963532587e+03 
       1.107452594425e-01       5.069253890108e+03 
       1.145064249153e-01       4.895065377700e+03 
       1.183821370918e-01       4.747623781327e+03 
       1.223778605862e-01       4.611499213736e+03 
       1.264990921987e-01       4.470378981547e+03 
       1.307513701367e-01       4.310030721554e+03 
       1.351402814784e-01       4.121136049150e+03 
       1.396714684203e-01       3.901783965156e+03 
       1.443506338194e-01       3.658372428084e+03 
       1.491835465229e-01       3.404181740036e+03 
       1.541760469708e-01       3.156345743515e+03 
       1.593340535561e-01       2.931628648472e+03 
       1.646635702297e-01       2.742045353287e+03 
       1.701706958456e-01       2.591913167240e+03 
       1.758616357459e-01       2.476881982599e+03 
       1.817427160982e-01       2.384815560607e+03 
       1.878204015065e-01       2.299983808079e+03 
       1.941013164283e-01       2.205398705722e+03 
       2.005922709503e-01       2.090454592256e+03 
       2.073002914972e-01       1.956059457423e+03 
       2.142326570816e-01       1.813767033387e+03 
       2.213969417533e-01       1.678857955533e+03 
       2.288010639706e-01       1.563419231180e+03 
       2.364533437147e-01       1.472228913252e+03 
       2.443625682930e-01       1.401058014394e+03 
       2.525380679504e-01       1.337947998390e+03 
       2.609898026346e-01       1.270410725862e+03 
       2.697284615565e-01       1.192856628688e+03 
       2.787655775689e-01       1.108819241787e+03 
       2.881136588829e-01       1.028238274722e+03 
       2.977863412677e-01       9.599389581294e+02 
       3.077985646929e-01       9.044629424946e+02 
       3.181667794071e-01       8.555651995938e+02 
       3.289091877812e-01       8.055930816499e+02 
       3.400460299658e-01       7.517796370092e+02 
       3.515999236474e-01       6.982977849553e+02 
       3.635962711085e-01       6.504261839162e+02 
       3.760637506334e-01       6.094690459144e+02 
       3.890349143879e-01       5.714589576755e+02 
       4.025469216825e-01       5.330892855094e+02 
       4.166424456376e-01       4.949206054328e+02 
       4.313708035863e-01       4.597431527897e+02 
       4.467893782977e-01       4.280287230564e+02 
       4.629654199664e-01       3.980069515271e+02 
       4.799783501994e-01       3.684528678395e+02 
       4.979227319373e-01       3.404332711516e+02 
       5.169121270864e-01       3.146513235827e+02 
       5.370841404489e-01       2.899796723145e+02 
       5.586070464571e-01       2.662265779976e+02 
       5.816885094930e-01       2.439032970158e+02 
       6.065870144995e-01       2.226350897869e+02 
       6.336266468475e-01       2.022477334009e+02 
       6.632156059511e-01       1.828834752603e+02 
       6.958678639263e-01       1.643235518196e+02 
       7.322247985589e-01       1.466253220042e+02 
       7.730680195114e-01       1.297212887685e+02 
       8.193049553677e-01       1.136695783868e+02 
       8.718988016039e-01       9.854664020467e+01 
       9.317218031082e-01       8.450087199893e+01 
       9.993660908989e-01       7.171086783028e+01 
       1.075037110174e+00       6.031804931048e+01 
       1.158653485707e+00       5.038237186628e+01 
       1.250099157308e+00       4.185994703675e+01 
       1.349432401273e+00       3.462246208912e+01 
       1.456947457397e+00       2.851065550864e+01 
       1.573135111331e+00       2.336568158379e+01 
       1.698621895592e+00       1.904032147980e+01 
       1.834127512934e+00       1.540938608666e+01 
       1.980444934528e+00       1.236575283371e+01 
       2.138435191726e+00       9.816938018549e+00 
       2.309029199186e+00       7.690259650042e+00 
       2.493232377687e+00       5.921564574953e+00 
       2.692130395285e+00       4.459838186862e+00 
       2.906895534573e+00       3.264124343169e+00 
       3.138793597714e+00       2.299207120541e+00 
       3.389191366484e+00       1.535526345213e+00 
       3.659564657905e+00       9.523630699672e-01 
       3.951507022538e+00       5.291027589062e-01 
       4.266739136701e+00       2.437663243221e-01 
       4.607118943941e+00       7.782478372212e-02 
       4.974652605557e+00       7.236534786635e-03 
       5.371506324689e+00       6.929624618000e-03 
       5.800019113685e+00       4.899424110628e-02 
       6.262716579983e+00       1.056870908991e-01 
       6.762325811764e+00       1.519024317616e-01 
       7.301791451110e+00       1.709664592312e-01 
       7.884293049406e+00       1.577509126377e-01 
       8.513263807261e+00       1.190150429563e-01 
       9.192410809424e+00       7.026182140261e-02 
       9.925736873929e+00       2.900046201657e-02 
       1.071756414427e+01       5.921103601035e-03 
       1.157255956364e+01       1.701989225520e-07 
       1.249576238137e+01       2.351598922370e-03 
       1.349261385375e+01       4.092935836172e-03 
       1.456898931416e+01       2.699449326590e-03 
       1.573123280165e+01       6.389793986475e-04 
       1.698619445202e+01       4.542445859968e-07 
       1.834127087176e+01       9.986199582873e-05 
       1.980444873285e+01       3.281921040212e-05 
       2.138435184532e+01       1.882022033105e-05 
       2.309029198506e+01       8.835773418019e-05 
       2.493232377636e+01       3.740026539912e-05 
       2.692130395282e+01       8.943839199265e-07 
       2.906895534573e+01       4.230390949271e-06 
       3.138793597714e+01       6.382564292174e-09 
       3.389191366484e+01       1.173417073585e-06 
       3.659564657905e+01       2.310597427892e-08 
       3.951507022538e+01       3.861994077743e-07 
       4.266739136701e+01       6.949994149678e-08 
       4.607118943941e+01       4.410400241676e-08 
       4.974652605557e+01       1.022834999717e-08 
       5.371506324689e+01       4.636571373969e-09 
       5.800019113685e+01       9.644499262741e-08 
       6.262716579983e+01       4.706143707653e-09 
       6.762325811764e+01       1.429790715406e-08 
       7.301791451110e+01       2.092237505611e-08 
       7.884293049406e+01       1.243426145674e-09 
       8.513263807261e+01       1.061492973529e-09 
       9.192410809424e+01       2.334622230272e-09 
       9.925736873929e+01       9.262065522237e-09 
       1.071756414427e+02       4.618802934623e-10 
       1.157255956364e+02       3.784377894069e-09 
       1.249576238137e+02       1.482554157802e-09 
       1.349261385375e+02       4.014766359842e-09 
