# Matter power spectrum P(k) at redshift z=0
# for k=1.04775e-05 to 67.6233 h/Mpc,
# number of wavenumbers equal to 246
#    1:k (h/Mpc)              2:P (Mpc/h)^3        
       1.047750691338e-05       5.020964806755e+01 
       1.131335172818e-05       5.407048206553e+01 
       1.221587619877e-05       5.822819063943e+01 
       1.319039970550e-05       6.270562589677e+01 
       1.424266598317e-05       6.752731788102e+01 
       1.537887697396e-05       7.271977200258e+01 
       1.660572938097e-05       7.831147241542e+01 
       1.793045413791e-05       8.433311815128e+01 
       1.936085902737e-05       9.081778242446e+01 
       2.090537469909e-05       9.780108061340e+01 
       2.257310435923e-05       1.053213197032e+02 
       2.437387742372e-05       1.134197377001e+02 
       2.631830745176e-05       1.221408202816e+02 
       2.841785470091e-05       1.315324720917e+02 
       3.068489367268e-05       1.416462093730e+02 
       3.313278604643e-05       1.525374500691e+02 
       3.577595943165e-05       1.642660687078e+02 
       3.862999240274e-05       1.768963504868e+02 
       4.171170631739e-05       1.904975992460e+02 
       4.503926445983e-05       2.051444490305e+02 
       4.863227909323e-05       2.209171463752e+02 
       5.251192705226e-05       2.379022222314e+02 
       5.670107455699e-05       2.561927926130e+02 
       6.122441198393e-05       2.758890441792e+02 
       6.610859938837e-05       2.970989225465e+02 
       7.138242363583e-05       3.199385558200e+02 
       7.707696806873e-05       3.445329780878e+02 
       8.322579570814e-05       3.710167315928e+02 
       8.986514707061e-05       3.995346440954e+02 
       9.703415376577e-05       4.302425403884e+02 
       1.047750691338e-04       4.633080762974e+02 
       1.131335172818e-04       4.989116267507e+02 
       1.221587619877e-04       5.372471946561e+02 
       1.319039970550e-04       5.785234124631e+02 
       1.424266598317e-04       6.229645930980e+02 
       1.537887697396e-04       6.708118484951e+02 
       1.660572938097e-04       7.223242660219e+02 
       1.793045413791e-04       7.777801553403e+02 
       1.936085902737e-04       8.374783607333e+02 
       2.090537469909e-04       9.017396264495e+02 
       2.257310435923e-04       9.709080260152e+02 
       2.437387742372e-04       1.045352448644e+03 
       2.631830745176e-04       1.125468122836e+03 
       2.841785470091e-04       1.211678179510e+03 
       3.068489367268e-04       1.304435249091e+03 
       3.313278604643e-04       1.404223052541e+03 
       3.577595943165e-04       1.511558013390e+03 
       3.862999240274e-04       1.626990836398e+03 
       4.171170631739e-04       1.751108027370e+03 
       4.503926445983e-04       1.884533381345e+03 
       4.863227909323e-04       2.027929376470e+03 
       5.251192705226e-04       2.181998446367e+03 
       5.670107455699e-04       2.347484100857e+03 
       6.122441198393e-04       2.525171869336e+03 
       6.610859938837e-04       2.715889981401e+03 
       7.138242363583e-04       2.920509686086e+03 
       7.707696806873e-04       3.139945097710e+03 
       8.322579570814e-04       3.375152334396e+03 
       8.986514707061e-04       3.627127828230e+03 
       9.703415376577e-04       3.896905450014e+03 
       1.047750691338e-03       4.185552170945e+03 
       1.131335172818e-03       4.494162426789e+03 
       1.221587619877e-03       4.823850702657e+03 
       1.319039970550e-03       5.175742734724e+03 
       1.424266598317e-03       5.551019592512e+03 
       1.537887697396e-03       5.950788335871e+03 
       1.660572938097e-03       6.376123046775e+03 
       1.793045413791e-03       6.828073896107e+03 
       1.936085902737e-03       7.307625375374e+03 
       2.090537469909e-03       7.815671900126e+03 
       2.257310435923e-03       8.352990369365e+03 
       2.437387742372e-03       8.920211057512e+03 
       2.631830745176e-03       9.517783061859e+03 
       2.841785470091e-03       1.014593703667e+04 
       3.068489367268e-03       1.080464505741e+04 
       3.313278604643e-03       1.149357459479e+04 
       3.577595943165e-03       1.221203620818e+04 
       3.862999240274e-03       1.295892538495e+04 
       4.171170631739e-03       1.373266002383e+04 
       4.503926445983e-03       1.453111834579e+04 
       4.863227909323e-03       1.535154983654e+04 
       5.251192705226e-03       1.619063610044e+04 
       5.670107455699e-03       1.704431256392e+04 
       6.122441198393e-03       1.790755940429e+04 
       6.610859938837e-03       1.877460397488e+04 
       7.138242363583e-03       1.963872435565e+04 
       7.707696806873e-03       2.049215713457e+04 
       8.322579570814e-03       2.132606811631e+04 
       8.986514707061e-03       2.213055005550e+04 
       9.703415376577e-03       2.289445496274e+04 
       1.047750691338e-02       2.360548814151e+04 
       1.131335172818e-02       2.425022895479e+04 
       1.221587619877e-02       2.481423930796e+04 
       1.319039970550e-02       2.528218804466e+04 
       1.424266598317e-02       2.563813760454e+04 
       1.537887697392e-02       2.586607241413e+04 
       1.660572938023e-02       2.595028833916e+04 
       1.793045412706e-02       2.587634110258e+04 
       1.936085890181e-02       2.563218425788e+04 
       2.090537352463e-02       2.520937160802e+04 
       2.257309535333e-02       2.460445400178e+04 
       2.437382002918e-02       2.382084780064e+04 
       2.631799944462e-02       2.287041182832e+04 
       2.841644545389e-02       2.177446137078e+04 
       3.067933355377e-02       2.056554749899e+04 
       3.311368470740e-02       1.928729424275e+04 
       3.571840443502e-02       1.799395390034e+04 
       3.847720348444e-02       1.674679966406e+04 
       4.135335538431e-02       1.560459288781e+04 
       4.429361667738e-02       1.461039982506e+04 
       4.724366439141e-02       1.378054870140e+04 
       5.016480835311e-02       1.310502149691e+04 
       5.303989620246e-02       1.255717752346e+04 
       5.586870669566e-02       1.210427663192e+04 
       5.866042680613e-02       1.171471766950e+04 
       6.142798932958e-02       1.136052315928e+04 
       6.418496440164e-02       1.101860487262e+04 
       6.694418833788e-02       1.067073839170e+04 
       6.971731106057e-02       1.030361692205e+04 
       7.251476155766e-02       9.909072046305e+03 
       7.534587671527e-02       9.483771766974e+03 
       7.821907666265e-02       9.029511737776e+03 
       8.114203772912e-02       8.552325744370e+03 
       8.412184535029e-02       8.062014199686e+03 
       8.716512279304e-02       7.570807135500e+03 
       9.027813695930e-02       7.092496057444e+03 
       9.346688431697e-02       6.640540428954e+03 
       9.673716028276e-02       6.226752494696e+03 
       1.000946150830e-01       5.859971869296e+03 
       1.035447986537e-01       5.545293520065e+03 
       1.070931966762e-01       5.283150231011e+03 
       1.107452594425e-01       5.069439088610e+03 
       1.145064249153e-01       4.895252430638e+03 
       1.183821370918e-01       4.747849097511e+03 
       1.223778605862e-01       4.611734712569e+03 
       1.264990921987e-01       4.470617923284e+03 
       1.307513701367e-01       4.310266449213e+03 
       1.351402814784e-01       4.121375388561e+03 
       1.396714684203e-01       3.901977914803e+03 
       1.443506338194e-01       3.658608854140e+03 
       1.491835465229e-01       3.404484226717e+03 
       1.541760469708e-01       3.156659602232e+03 
       1.593340535561e-01       2.931938060863e+03 
       1.646635702297e-01       2.742356921606e+03 
       1.701706958456e-01       2.592234930990e+03 
       1.758616357459e-01       2.477220087810e+03 
       1.817427160982e-01       2.385162787089e+03 
       1.878204015065e-01       2.300349481950e+03 
       1.941013164283e-01       2.205765044727e+03 
       2.005922709503e-01       2.090831007520e+03 
       2.073002914972e-01       1.956464737885e+03 
       2.142326570816e-01       1.814176326796e+03 
       2.213969417533e-01       1.679272313152e+03 
       2.288010639706e-01       1.563833329300e+03 
       2.364533437147e-01       1.472672485412e+03 
       2.443625682930e-01       1.401504812366e+03 
       2.525380679504e-01       1.338419664690e+03 
       2.609898026346e-01       1.270898345361e+03 
       2.697284615565e-01       1.193356316937e+03 
       2.787655775689e-01       1.109332598931e+03 
       2.881136588829e-01       1.028763332794e+03 
       2.977863412677e-01       9.604773391793e+02 
       3.077985646929e-01       9.050149348840e+02 
       3.181667794071e-01       8.561361252567e+02 
       3.289091877812e-01       8.061819132321e+02 
       3.400460299658e-01       7.523849420477e+02 
       3.515999236474e-01       6.989156795120e+02 
       3.635962711085e-01       6.510579153012e+02 
       3.760637506334e-01       6.101185832150e+02 
       3.890349143879e-01       5.721270134199e+02 
       4.025469216825e-01       5.337770423452e+02 
       4.166424456376e-01       4.956240003018e+02 
       4.313708035863e-01       4.604634865618e+02 
       4.467893782977e-01       4.287705623508e+02 
       4.629654199664e-01       3.987691314526e+02 
       4.799783501994e-01       3.692353927644e+02 
       4.979227319373e-01       3.412361153135e+02 
       5.169121270864e-01       3.154781761734e+02 
       5.370841404489e-01       2.908294438078e+02 
       5.586070464571e-01       2.671012626005e+02 
       5.816885094930e-01       2.448039462692e+02 
       6.065870144995e-01       2.235625867754e+02 
       6.336266468475e-01       2.032064474155e+02 
       6.632156059511e-01       1.838760304719e+02 
       6.958678639263e-01       1.653517212238e+02 
       7.322247985589e-01       1.476916174829e+02 
       7.730680195114e-01       1.308307821278e+02 
       8.193049553677e-01       1.148282727754e+02 
       8.718988016039e-01       9.975926160192e+01 
       9.317218031082e-01       8.577466620207e+01 
       9.993660908989e-01       7.305128754633e+01 
       1.075037110174e+00       6.173245126863e+01 
       1.158653485707e+00       5.187506894329e+01 
       1.250099157308e+00       4.343581394844e+01 
       1.349432401273e+00       3.628452034548e+01 
       1.456947457397e+00       3.026284684050e+01 
       1.573135111331e+00       2.520880298877e+01 
       1.698621895592e+00       2.097576020507e+01 
       1.834127512934e+00       1.743563705516e+01 
       1.980444934528e+00       1.447825319760e+01 
       2.138435191726e+00       1.201074190250e+01 
       2.309029199186e+00       9.954213968337e+00 
       2.493232377687e+00       8.242039375952e+00 
       2.692130395285e+00       6.817944684401e+00 
       2.906895534573e+00       5.634573977940e+00 
       3.138793597714e+00       4.652111611721e+00 
       3.389191366484e+00       3.837206482118e+00 
       3.659564657905e+00       3.161778255414e+00 
       3.951507022538e+00       2.602379872691e+00 
       4.266739136701e+00       2.139385976335e+00 
       4.607118943941e+00       1.756440406070e+00 
       4.974652605557e+00       1.439860375911e+00 
       5.371506324689e+00       1.178255347981e+00 
       5.800019113685e+00       9.621783009677e-01 
       6.262716579983e+00       7.837305109151e-01 
       6.762325811764e+00       6.364076828603e-01 
       7.301791451110e+00       5.147807131558e-01 
       7.884293049406e+00       4.143847539463e-01 
       8.513263807261e+00       3.315270984317e-01 
       9.192410809424e+00       2.631630038906e-01 
       9.925736873929e+00       2.068029285753e-01 
       1.071756414427e+01       1.604118021758e-01 
       1.157255956364e+01       1.223334833577e-01 
       1.249576238137e+01       9.123455118654e-02 
       1.349261385375e+01       6.604734038026e-02 
       1.456898931416e+01       4.591613532105e-02 
       1.573123280165e+01       3.016347566574e-02 
       1.698619445202e+01       1.823881780117e-02 
       1.834127087176e+01       9.680580931724e-03 
       1.980444873285e+01       4.071331887957e-03 
       2.138435184532e+01       9.960834213078e-04 
       2.309029198506e+01       4.262338805431e-06 
       2.493232377636e+01       5.820576397615e-04 
       2.692130395282e+01       2.146197641223e-03 
       2.906895534573e+01       4.067938868363e-03 
       3.138793597714e+01       5.733990142187e-03 
       3.389191366484e+01       6.643148384927e-03 
       3.659564657905e+01       6.517509314289e-03 
       3.951507022538e+01       5.391589700570e-03 
       4.266739136701e+01       3.625183006479e-03 
       4.607118943941e+01       1.797977360561e-03 
       4.974652605557e+01       4.871054048217e-04 
       5.371506324689e+01       3.577556916084e-06 
       5.800019113685e+01       2.303898271927e-04 
       6.262716579983e+01       6.992432146337e-04 
       6.762325811764e+01       9.090422541568e-04 
