# Matter power spectrum P(k) at redshift z=0
# for k=1.04775e-05 to 134.926 h/Mpc,
# number of wavenumbers equal to 255
#    1:k (h/Mpc)              2:P (Mpc/h)^3        
       1.047750691338e-05       5.020963906805e+01 
       1.131335172818e-05       5.407048937148e+01 
       1.221587619877e-05       5.822820724030e+01 
       1.319039970550e-05       6.270562047249e+01 
       1.424266598317e-05       6.752731476099e+01 
       1.537887697396e-05       7.271975715396e+01 
       1.660572938097e-05       7.831147101248e+01 
       1.793045413791e-05       8.433312302136e+01 
       1.936085902737e-05       9.081780130647e+01 
       2.090537469909e-05       9.780107448671e+01 
       2.257310435923e-05       1.053212938596e+02 
       2.437387742372e-05       1.134197268469e+02 
       2.631830745176e-05       1.221408285622e+02 
       2.841785470091e-05       1.315324590474e+02 
       3.068489367268e-05       1.416461671361e+02 
       3.313278604643e-05       1.525374478884e+02 
       3.577595943165e-05       1.642660517268e+02 
       3.862999240274e-05       1.768963429380e+02 
       4.171170631739e-05       1.904975997820e+02 
       4.503926445983e-05       2.051444243233e+02 
       4.863227909323e-05       2.209171412048e+02 
       5.251192705226e-05       2.379022266148e+02 
       5.670107455699e-05       2.561927841246e+02 
       6.122441198393e-05       2.758890479860e+02 
       6.610859938837e-05       2.970989214001e+02 
       7.138242363583e-05       3.199385559926e+02 
       7.707696806873e-05       3.445329727000e+02 
       8.322579570814e-05       3.710167324000e+02 
       8.986514707061e-05       3.995346444114e+02 
       9.703415376577e-05       4.302425389338e+02 
       1.047750691338e-04       4.633080773443e+02 
       1.131335172818e-04       4.989116277196e+02 
       1.221587619877e-04       5.372471938771e+02 
       1.319039970550e-04       5.785234116861e+02 
       1.424266598317e-04       6.229645933088e+02 
       1.537887697396e-04       6.708118487466e+02 
       1.660572938097e-04       7.223242657705e+02 
       1.793045413791e-04       7.777801571205e+02 
       1.936085902737e-04       8.374783638271e+02 
       2.090537469909e-04       9.017396276767e+02 
       2.257310435923e-04       9.709080297502e+02 
       2.437387742372e-04       1.045352453358e+03 
       2.631830745176e-04       1.125468127697e+03 
       2.841785470091e-04       1.211678185899e+03 
       3.068489367268e-04       1.304435256028e+03 
       3.313278604643e-04       1.404223062875e+03 
       3.577595943165e-04       1.511558029519e+03 
       3.862999240274e-04       1.626990852481e+03 
       4.171170631739e-04       1.751108045510e+03 
       4.503926445983e-04       1.884533404638e+03 
       4.863227909323e-04       2.027929406810e+03 
       5.251192705226e-04       2.181998483730e+03 
       5.670107455699e-04       2.347484145835e+03 
       6.122441198393e-04       2.525171924906e+03 
       6.610859938837e-04       2.715890054615e+03 
       7.138242363583e-04       2.920509778864e+03 
       7.707696806873e-04       3.139945207478e+03 
       8.322579570814e-04       3.375152476299e+03 
       8.986514707061e-04       3.627128019559e+03 
       9.703415376577e-04       3.896905668372e+03 
       1.047750691338e-03       4.185552451192e+03 
       1.131335172818e-03       4.494162773787e+03 
       1.221587619877e-03       4.823851148355e+03 
       1.319039970550e-03       5.175743275902e+03 
       1.424266598317e-03       5.551020295075e+03 
       1.537887697396e-03       5.950789180766e+03 
       1.660572938097e-03       6.376124144036e+03 
       1.793045413791e-03       6.828075228850e+03 
       1.936085902737e-03       7.307627041127e+03 
       2.090537469909e-03       7.815673946353e+03 
       2.257310435923e-03       8.352992906770e+03 
       2.437387742372e-03       8.920214285706e+03 
       2.631830745176e-03       9.517787140452e+03 
       2.841785470091e-03       1.014594127343e+04 
       3.068489367268e-03       1.080465132265e+04 
       3.313278604643e-03       1.149358234185e+04 
       3.577595943165e-03       1.221204580142e+04 
       3.862999240274e-03       1.295893658041e+04 
       4.171170631739e-03       1.373267328001e+04 
       4.503926445983e-03       1.453113486723e+04 
       4.863227909323e-03       1.535156602472e+04 
       5.251192705226e-03       1.619062078669e+04 
       5.670107455699e-03       1.704432822132e+04 
       6.122441198393e-03       1.790758811549e+04 
       6.610859938837e-03       1.877464024017e+04 
       7.138242363583e-03       1.963873202816e+04 
       7.707696806873e-03       2.049210634136e+04 
       8.322579570814e-03       2.132606801990e+04 
       8.986514707061e-03       2.213062441395e+04 
       9.703415376577e-03       2.289443486317e+04 
       1.047750691338e-02       2.360541554465e+04 
       1.131335172818e-02       2.424956101940e+04 
       1.221587619877e-02       2.481365778312e+04 
       1.319039970550e-02       2.528218268161e+04 
       1.424266598317e-02       2.563807620571e+04 
       1.537887697392e-02       2.586570213421e+04 
       1.660572938023e-02       2.595034459707e+04 
       1.793045412706e-02       2.587590547837e+04 
       1.936085890181e-02       2.563210584453e+04 
       2.090537352463e-02       2.520922980147e+04 
       2.257309535333e-02       2.460423688844e+04 
       2.437382002918e-02       2.382068387978e+04 
       2.631799944462e-02       2.287020052462e+04 
       2.841644545389e-02       2.177430292764e+04 
       3.067933355377e-02       2.056536694418e+04 
       3.311368470740e-02       1.928705020898e+04 
       3.571840443502e-02       1.799387066957e+04 
       3.847720348444e-02       1.674679998437e+04 
       4.135335538431e-02       1.560449046489e+04 
       4.429361667738e-02       1.461025724835e+04 
       4.724366439141e-02       1.378045241557e+04 
       5.016480835311e-02       1.310495155727e+04 
       5.303989620246e-02       1.255712884377e+04 
       5.586870669566e-02       1.210419098802e+04 
       5.866042680613e-02       1.171430201223e+04 
       6.142798932958e-02       1.136007290309e+04 
       6.418496440164e-02       1.101855741033e+04 
       6.694418833788e-02       1.067061346098e+04 
       6.971731106057e-02       1.030338290535e+04 
       7.251476155766e-02       9.909005622263e+03 
       7.534587671527e-02       9.483536709020e+03 
       7.821907666265e-02       9.029230882639e+03 
       8.114203772912e-02       8.552053818625e+03 
       8.412184535029e-02       8.061860787931e+03 
       8.716512279304e-02       7.570673594911e+03 
       9.027813695930e-02       7.092386209967e+03 
       9.346688431697e-02       6.640440998321e+03 
       9.673716028276e-02       6.226624243277e+03 
       1.000946150830e-01       5.859842168788e+03 
       1.035447986537e-01       5.545147909472e+03 
       1.070931966762e-01       5.283050865624e+03 
       1.107452594425e-01       5.069347907304e+03 
       1.145064249153e-01       4.895161919541e+03 
       1.183821370918e-01       4.747725516734e+03 
       1.223778605862e-01       4.611606489905e+03 
       1.264990921987e-01       4.470486457689e+03 
       1.307513701367e-01       4.310149084757e+03 
       1.351402814784e-01       4.121260508316e+03 
       1.396714684203e-01       3.901913382020e+03 
       1.443506338194e-01       3.658506317260e+03 
       1.491835465229e-01       3.404319501943e+03 
       1.541760469708e-01       3.156487688831e+03 
       1.593340535561e-01       2.931776247904e+03 
       1.646635702297e-01       2.742195818899e+03 
       1.701706958456e-01       2.592069240778e+03 
       1.758616357459e-01       2.477044016521e+03 
       1.817427160982e-01       2.384985159865e+03 
       1.878204015065e-01       2.300161315947e+03 
       1.941013164283e-01       2.205584205504e+03 
       2.005922709503e-01       2.090646747577e+03 
       2.073002914972e-01       1.956261631748e+03 
       2.142326570816e-01       1.813971222456e+03 
       2.213969417533e-01       1.679067472049e+03 
       2.288010639706e-01       1.563634926645e+03 
       2.364533437147e-01       1.472452598607e+03 
       2.443625682930e-01       1.401289318239e+03 
       2.525380679504e-01       1.338189220710e+03 
       2.609898026346e-01       1.270662600004e+03 
       2.697284615565e-01       1.193115408389e+03 
       2.787655775689e-01       1.109084116791e+03 
       2.881136588829e-01       1.028511273442e+03 
       2.977863412677e-01       9.602198041369e+02 
       3.077985646929e-01       9.047547055940e+02 
       3.181667794071e-01       8.558681525398e+02 
       3.289091877812e-01       8.059056699152e+02 
       3.400460299658e-01       7.521027674011e+02 
       3.515999236474e-01       6.986299978646e+02 
       3.635962711085e-01       6.507636086224e+02 
       3.760637506334e-01       6.098241859444e+02 
       3.890349143879e-01       5.718260845203e+02 
       4.025469216825e-01       5.334693661261e+02 
       4.166424456376e-01       4.953109257113e+02 
       4.313708035863e-01       4.601470724986e+02 
       4.467893782977e-01       4.284463087095e+02 
       4.629654199664e-01       3.984395174916e+02 
       4.799783501994e-01       3.689006586555e+02 
       4.979227319373e-01       3.408956661744e+02 
       5.169121270864e-01       3.151309444117e+02 
       5.370841404489e-01       2.904767881577e+02 
       5.586070464571e-01       2.667422867716e+02 
       5.816885094930e-01       2.444391779413e+02 
       6.065870144995e-01       2.231927529679e+02 
       6.336266468475e-01       2.028283440485e+02 
       6.632156059511e-01       1.834897239030e+02 
       6.958678639263e-01       1.649577140825e+02 
       7.322247985589e-01       1.472902641328e+02 
       7.730680195114e-01       1.304201227252e+02 
       8.193049553677e-01       1.144081512593e+02 
       8.718988016039e-01       9.932842295177e+01 
       9.317218031082e-01       8.533196016309e+01 
       9.993660908989e-01       7.259639976793e+01 
       1.075037110174e+00       6.126464354318e+01 
       1.158653485707e+00       5.139385129089e+01 
       1.250099157308e+00       4.294053846334e+01 
       1.349432401273e+00       3.577468570310e+01 
       1.456947457397e+00       2.973761214539e+01 
       1.573135111331e+00       2.466796681350e+01 
       1.698621895592e+00       2.041898602042e+01 
       1.834127512934e+00       1.686193274100e+01 
       1.980444934528e+00       1.388779682280e+01 
       2.138435191726e+00       1.140305656267e+01 
       2.309029199186e+00       9.329010178488e+00 
       2.493232377687e+00       7.599586414227e+00 
       2.692130395285e+00       6.158778633227e+00 
       2.906895534573e+00       4.959783510329e+00 
       3.138793597714e+00       3.962979389348e+00 
       3.389191366484e+00       3.135851461719e+00 
       3.659564657905e+00       2.451628417607e+00 
       3.951507022538e+00       1.887175086280e+00 
       4.266739136701e+00       1.424347425506e+00 
       4.607118943941e+00       1.048268518815e+00 
       4.974652605557e+00       7.463782553575e-01 
       5.371506324689e+00       5.084239963861e-01 
       5.800019113685e+00       3.261864172976e-01 
       6.262716579983e+00       1.919380860136e-01 
       6.762325811764e+00       9.897878595655e-02 
       7.301791451110e+00       4.071253307443e-02 
       7.884293049406e+00       1.013434387891e-02 
       8.513263807261e+00       2.008608644730e-04 
       9.192410809424e+00       3.210017389619e-03 
       9.925736873929e+00       1.204939068025e-02 
       1.071756414427e+01       2.055084891952e-02 
       1.157255956364e+01       2.467898511210e-02 
       1.249576238137e+01       2.300282208828e-02 
       1.349261385375e+01       1.701907671860e-02 
       1.456898931416e+01       9.517164663726e-03 
       1.573123280165e+01       3.641310220781e-03 
       1.698619445202e+01       6.706649775512e-04 
       1.834127087176e+01       6.637527887736e-08 
       1.980444873285e+01       1.327760229698e-04 
       2.138435184532e+01       1.213172068230e-04 
       2.309029198506e+01       4.800910798582e-06 
       2.493232377636e+01       3.709923286581e-05 
       2.692130395282e+01       1.398329563134e-04 
       2.906895534573e+01       7.016280982089e-05 
       3.138793597714e+01       1.957248841898e-06 
       3.389191366484e+01       8.769369413026e-06 
       3.659564657905e+01       6.707506085230e-06 
       3.951507022538e+01       8.925726412552e-08 
       4.266739136701e+01       1.234856219001e-06 
       4.607118943941e+01       4.080242497503e-08 
       4.974652605557e+01       6.906798767768e-07 
       5.371506324689e+01       9.204062354605e-09 
       5.800019113685e+01       2.253543490621e-08 
       6.262716579983e+01       5.900555683055e-08 
       6.762325811764e+01       7.288820167389e-09 
       7.301791451110e+01       2.952372325714e-09 
       7.884293049406e+01       1.968793472332e-08 
       8.513263807261e+01       2.955807051229e-08 
       9.192410809424e+01       2.106835638546e-09 
       9.925736873929e+01       7.162471361891e-09 
       1.071756414427e+02       4.964841323310e-09 
       1.157255956364e+02       1.069584315455e-07 
       1.249576238137e+02       7.000736512399e-10 
       1.349261385375e+02       4.007482522907e-09 
