# Matter power spectrum P(k) at redshift z=99
# for k=1.04775e-05 to 213.844 h/Mpc,
# number of wavenumbers equal to 261
#    1:k (h/Mpc)              2:P (Mpc/h)^3        
       1.047750691338e-05       7.261927095295e-03 
       1.131335172818e-05       7.820332150766e-03 
       1.221587619877e-05       8.421675382341e-03 
       1.319039970550e-05       9.069257738015e-03 
       1.424266598317e-05       9.766636451139e-03 
       1.537887697396e-05       1.051763973642e-02 
       1.660572938097e-05       1.132639250753e-02 
       1.793045413791e-05       1.219733201510e-02 
       1.936085902737e-05       1.313524187205e-02 
       2.090537469909e-05       1.414527084980e-02 
       2.257310435923e-05       1.523296544495e-02 
       2.437387742372e-05       1.640429654644e-02 
       2.631830745176e-05       1.766569603290e-02 
       2.841785470091e-05       1.902408711167e-02 
       3.068489367268e-05       2.048692967450e-02 
       3.313278604643e-05       2.206225467555e-02 
       3.577595943165e-05       2.375870883859e-02 
       3.862999240274e-05       2.558560669830e-02 
       4.171170631739e-05       2.755297672516e-02 
       4.503926445983e-05       2.967161933423e-02 
       4.863227909323e-05       3.195316455666e-02 
       5.251192705226e-05       3.441013466146e-02 
       5.670107455699e-05       3.705601741715e-02 
       6.122441198393e-05       3.990533412849e-02 
       6.610859938837e-05       4.297372242545e-02 
       7.138242363583e-05       4.627802054865e-02 
       7.707696806873e-05       4.983636159903e-02 
       8.322579570814e-05       5.366826786951e-02 
       8.986514707061e-05       5.779476319752e-02 
       9.703415376577e-05       6.223848221856e-02 
       1.047750691338e-04       6.702379825043e-02 
       1.131335172818e-04       7.217695031104e-02 
       1.221587619877e-04       7.772619030388e-02 
       1.319039970550e-04       8.370193380069e-02 
       1.424266598317e-04       9.013692506699e-02 
       1.537887697396e-04       9.706641130434e-02 
       1.660572938097e-04       1.045283343115e-01 
       1.793045413791e-04       1.125635329190e-01 
       1.936085902737e-04       1.212159592314e-01 
       2.090537469909e-04       1.305329107441e-01 
       2.257310435923e-04       1.405652819367e-01 
       2.437387742372e-04       1.513678275083e-01 
       2.631830745176e-04       1.629994475141e-01 
       2.841785470091e-04       1.755234890487e-01 
       3.068489367268e-04       1.890080645309e-01 
       3.313278604643e-04       2.035263977442e-01 
       3.577595943165e-04       2.191571778056e-01 
       3.862999240274e-04       2.359849423273e-01 
       4.171170631739e-04       2.541004713016e-01 
       4.503926445983e-04       2.736012061175e-01 
       4.863227909323e-04       2.945916774660e-01 
       5.251192705226e-04       3.171839507882e-01 
       5.670107455699e-04       3.414980769127e-01 
       6.122441198393e-04       3.676625416321e-01 
       6.610859938837e-04       3.958147272886e-01 
       7.138242363583e-04       4.261013332087e-01 
       7.707696806873e-04       4.586787880873e-01 
       8.322579570814e-04       4.937136112846e-01 
       8.986514707061e-04       5.313826962102e-01 
       9.703415376577e-04       5.718735176829e-01 
       1.047750691338e-03       6.153841926275e-01 
       1.131335172818e-03       6.621233623146e-01 
       1.221587619877e-03       7.123098743674e-01 
       1.319039970550e-03       7.661721263804e-01 
       1.424266598317e-03       8.239547181311e-01 
       1.537887697396e-03       8.859012282814e-01 
       1.660572938097e-03       9.522589495732e-01 
       1.793045413791e-03       1.023280284732e+00 
       1.936085902737e-03       1.099216542120e+00 
       2.090537469909e-03       1.180313285049e+00 
       2.257310435923e-03       1.266804486818e+00 
       2.437387742372e-03       1.358905328469e+00 
       2.631830745176e-03       1.456803285951e+00 
       2.841785470091e-03       1.560647663030e+00 
       3.068489367268e-03       1.670537010560e+00 
       3.313278604643e-03       1.786505039609e+00 
       3.577595943165e-03       1.908504410070e+00 
       3.862999240274e-03       2.036389468687e+00 
       4.171170631739e-03       2.169898252700e+00 
       4.503926445983e-03       2.308634491826e+00 
       4.863227909323e-03       2.452050674580e+00 
       5.251192705226e-03       2.599434680871e+00 
       5.670107455699e-03       2.749901126119e+00 
       6.122441198393e-03       2.902390057880e+00 
       6.610859938837e-03       3.055671269254e+00 
       7.138242363583e-03       3.208360122121e+00 
       7.707696806873e-03       3.358926650459e+00 
       8.322579570814e-03       3.505726888760e+00 
       8.986514707061e-03       3.647012436520e+00 
       9.703415376577e-03       3.780926177767e+00 
       1.047750691338e-02       3.905492878845e+00 
       1.131335172818e-02       4.018589823917e+00 
       1.221587619877e-02       4.117902886367e+00 
       1.319039970550e-02       4.200917697658e+00 
       1.424266598317e-02       4.264943735959e+00 
       1.537887697392e-02       4.307219666458e+00 
       1.660572938023e-02       4.325062454443e+00 
       1.793045412706e-02       4.316060388543e+00 
       1.936085890181e-02       4.278228928223e+00 
       2.090537352463e-02       4.210204468625e+00 
       2.257309535333e-02       4.111418742757e+00 
       2.437382002918e-02       3.982420929239e+00 
       2.631799944462e-02       3.825168675819e+00 
       2.841644545389e-02       3.643282233932e+00 
       3.067933355377e-02       3.442198689890e+00 
       3.311368470740e-02       3.229237580946e+00 
       3.571840443502e-02       3.013516305130e+00 
       3.847720348444e-02       2.805285370779e+00 
       4.135335538431e-02       2.614410769977e+00 
       4.429361667738e-02       2.448132168650e+00 
       4.724366439141e-02       2.309240633116e+00 
       5.016480835311e-02       2.196115183102e+00 
       5.303989620246e-02       2.104369851907e+00 
       5.586870669566e-02       2.028462594696e+00 
       5.866042680613e-02       1.963155322890e+00 
       6.142798932958e-02       1.903779731786e+00 
       6.418496440164e-02       1.846479241239e+00 
       6.694418833788e-02       1.788197518699e+00 
       6.971731106057e-02       1.726715728735e+00 
       7.251476155766e-02       1.660654447474e+00 
       7.534587671527e-02       1.589470038956e+00 
       7.821907666265e-02       1.513436646897e+00 
       8.114203772912e-02       1.433568843739e+00 
       8.412184535029e-02       1.351492122911e+00 
       8.716512279304e-02       1.269273816197e+00 
       9.027813695930e-02       1.189193276843e+00 
       9.346688431697e-02       1.113501223942e+00 
       9.673716028276e-02       1.044174570795e+00 
       1.000946150830e-01       9.827061071609e-01 
       1.035447986537e-01       9.299351586366e-01 
       1.070931966762e-01       8.859586196702e-01 
       1.107452594425e-01       8.500712017483e-01 
       1.145064249153e-01       8.208034328973e-01 
       1.183821370918e-01       7.960257009997e-01 
       1.223778605862e-01       7.731458732857e-01 
       1.264990921987e-01       7.494521598541e-01 
       1.307513701367e-01       7.225576314220e-01 
       1.351402814784e-01       6.909096808894e-01 
       1.396714684203e-01       6.541824939723e-01 
       1.443506338194e-01       6.134279624907e-01 
       1.491835465229e-01       5.708686423070e-01 
       1.541760469708e-01       5.293639435514e-01 
       1.593340535561e-01       4.917104859448e-01 
       1.646635702297e-01       4.599195820412e-01 
       1.701706958456e-01       4.347275160763e-01 
       1.758616357459e-01       4.154074000382e-01 
       1.817427160982e-01       3.999357961529e-01 
       1.878204015065e-01       3.856853551157e-01 
       1.941013164283e-01       3.698136438643e-01 
       2.005922709503e-01       3.505510419192e-01 
       2.073002914972e-01       3.280459758205e-01 
       2.142326570816e-01       3.042129009865e-01 
       2.213969417533e-01       2.816110634138e-01 
       2.288010639706e-01       2.622562681323e-01 
       2.364533437147e-01       2.469612121466e-01 
       2.443625682930e-01       2.350123547525e-01 
       2.525380679504e-01       2.244197648252e-01 
       2.609898026346e-01       2.130954927216e-01 
       2.697284615565e-01       2.001019697980e-01 
       2.787655775689e-01       1.860191971510e-01 
       2.881136588829e-01       1.725164341478e-01 
       2.977863412677e-01       1.610652930292e-01 
       3.077985646929e-01       1.517600203917e-01 
       3.181667794071e-01       1.435588433147e-01 
       3.289091877812e-01       1.351810472907e-01 
       3.400460299658e-01       1.261634313709e-01 
       3.515999236474e-01       1.172011199404e-01 
       3.635962711085e-01       1.091760442674e-01 
       3.760637506334e-01       1.023086299279e-01 
       3.890349143879e-01       9.593682598210e-02 
       4.025469216825e-01       8.950685804019e-02 
       4.166424456376e-01       8.311089355567e-02 
       4.313708035863e-01       7.721466493497e-02 
       4.467893782977e-01       7.189972636607e-02 
       4.629654199664e-01       6.686816554335e-02 
       4.799783501994e-01       6.191665093664e-02 
       4.979227319373e-01       5.722132874720e-02 
       5.169121270864e-01       5.290198656323e-02 
       5.370841404489e-01       4.876888195441e-02 
       5.586070464571e-01       4.478982325560e-02 
       5.816885094930e-01       4.105099596017e-02 
       6.065870144995e-01       3.748901012210e-02 
       6.336266468475e-01       3.407529853209e-02 
       6.632156059511e-01       3.083361973509e-02 
       6.958678639263e-01       2.772744940246e-02 
       7.322247985589e-01       2.476622391940e-02 
       7.730680195114e-01       2.193868949372e-02 
       8.193049553677e-01       1.925522505758e-02 
       8.718988016039e-01       1.672839185289e-02 
       9.317218031082e-01       1.438325284307e-02 
       9.993660908989e-01       1.224973546478e-02 
       1.075037110174e+00       1.035166421112e-02 
       1.158653485707e+00       8.698738087540e-03 
       1.250099157308e+00       7.283644612827e-03 
       1.349432401273e+00       6.084515046286e-03 
       1.456947457397e+00       5.074789898981e-03 
       1.573135111331e+00       4.227362629061e-03 
       1.698621895592e+00       3.517602823961e-03 
       1.834127512934e+00       2.924041537610e-03 
       1.980444934528e+00       2.428227622700e-03 
       2.138435191726e+00       2.014579980946e-03 
       2.309029199186e+00       1.669851224534e-03 
       2.493232377687e+00       1.382876055546e-03 
       2.692130395285e+00       1.144222876033e-03 
       2.906895534573e+00       9.459565688995e-04 
       3.138793597714e+00       7.813989668306e-04 
       3.389191366484e+00       6.449412947154e-04 
       3.659564657905e+00       5.318995624325e-04 
       3.951507022538e+00       4.383260851220e-04 
       4.266739136701e+00       3.609461557979e-04 
       4.607118943941e+00       2.969961543936e-04 
       4.974652605557e+00       2.441950255110e-04 
       5.371506324689e+00       2.006328352063e-04 
       5.800019113685e+00       1.647160741608e-04 
       6.262716579983e+00       1.351276931101e-04 
       6.762325811764e+00       1.107695353251e-04 
       7.301791451110e+00       9.073054749306e-05 
       7.884293049406e+00       7.425726851485e-05 
       8.513263807261e+00       6.072301426113e-05 
       9.192410809424e+00       4.961159346167e-05 
       9.925736873929e+00       4.049511828927e-05 
       1.071756414427e+01       3.302050990466e-05 
       1.157255956364e+01       2.689567803844e-05 
       1.249576238137e+01       2.188035614323e-05 
       1.349261385375e+01       1.777631494224e-05 
       1.456898931416e+01       1.442072388308e-05 
       1.573123280165e+01       1.167860270845e-05 
       1.698619445202e+01       9.439783662634e-06 
       1.834127087176e+01       7.613387735287e-06 
       1.980444873285e+01       6.124818664191e-06 
       2.138435184532e+01       4.912728352410e-06 
       2.309029198506e+01       3.927018962831e-06 
       2.493232377636e+01       3.126503786893e-06 
       2.692130395282e+01       2.477399517005e-06 
       2.906895534573e+01       1.952093956580e-06 
       3.138793597714e+01       1.527991032117e-06 
       3.389191366484e+01       1.186577057980e-06 
       3.659564657905e+01       9.127389939155e-07 
       3.951507022538e+01       6.941414146999e-07 
       4.266739136701e+01       5.206300818733e-07 
       4.607118943941e+01       3.839861803942e-07 
       4.974652605557e+01       2.774220896529e-07 
       5.371506324689e+01       1.953740234314e-07 
       5.800019113685e+01       1.332546594436e-07 
       6.262716579983e+01       8.724769266573e-08 
       6.762325811764e+01       5.416475580453e-08 
       7.301791451110e+01       3.130397984954e-08 
       7.884293049406e+01       1.635570913098e-08 
       8.513263807261e+01       7.331006325606e-09 
       9.192410809424e+01       2.519030016738e-09 
       9.925736873929e+01       4.695819558643e-10 
       1.071756414427e+02       6.247147335276e-15 
       1.157255956364e+02       2.156840464186e-10 
       1.249576238137e+02       5.269693593829e-10 
       1.349261385375e+02       6.433273640523e-10 
       1.456898931416e+02       5.281035194767e-10 
       1.573123280165e+02       2.950877110921e-10 
       1.698619445202e+02       9.564773298707e-11 
       1.834127087176e+02       6.904532176886e-12 
       1.980444873285e+02       6.565186518983e-12 
       2.138435184532e+02       2.340969635713e-11 
