# Matter power spectrum P(k) at redshift z=0
# for k=1.04775e-05 to 67.6233 h/Mpc,
# number of wavenumbers equal to 246
#    1:k (h/Mpc)              2:P (Mpc/h)^3        
       1.047750691338e-05       5.020964806751e+01 
       1.131335172818e-05       5.407048206553e+01 
       1.221587619877e-05       5.822819064006e+01 
       1.319039970550e-05       6.270562589677e+01 
       1.424266598317e-05       6.752731788102e+01 
       1.537887697396e-05       7.271977200258e+01 
       1.660572938097e-05       7.831147241542e+01 
       1.793045413791e-05       8.433311815128e+01 
       1.936085902737e-05       9.081778242446e+01 
       2.090537469909e-05       9.780108061339e+01 
       2.257310435923e-05       1.053213197032e+02 
       2.437387742372e-05       1.134197377001e+02 
       2.631830745176e-05       1.221408202816e+02 
       2.841785470091e-05       1.315324720917e+02 
       3.068489367268e-05       1.416462093728e+02 
       3.313278604643e-05       1.525374500691e+02 
       3.577595943165e-05       1.642660687078e+02 
       3.862999240274e-05       1.768963504868e+02 
       4.171170631739e-05       1.904975992460e+02 
       4.503926445983e-05       2.051444490305e+02 
       4.863227909323e-05       2.209171463752e+02 
       5.251192705226e-05       2.379022222314e+02 
       5.670107455699e-05       2.561927925545e+02 
       6.122441198393e-05       2.758890441791e+02 
       6.610859938837e-05       2.970989225467e+02 
       7.138242363583e-05       3.199385558200e+02 
       7.707696806873e-05       3.445329780878e+02 
       8.322579570814e-05       3.710167315928e+02 
       8.986514707061e-05       3.995346440954e+02 
       9.703415376577e-05       4.302425403883e+02 
       1.047750691338e-04       4.633080762974e+02 
       1.131335172818e-04       4.989116267507e+02 
       1.221587619877e-04       5.372471946561e+02 
       1.319039970550e-04       5.785234124633e+02 
       1.424266598317e-04       6.229645930980e+02 
       1.537887697396e-04       6.708118484951e+02 
       1.660572938097e-04       7.223242660220e+02 
       1.793045413791e-04       7.777801553435e+02 
       1.936085902737e-04       8.374783607333e+02 
       2.090537469909e-04       9.017396264495e+02 
       2.257310435923e-04       9.709080260152e+02 
       2.437387742372e-04       1.045352448644e+03 
       2.631830745176e-04       1.125468122836e+03 
       2.841785470091e-04       1.211678179511e+03 
       3.068489367268e-04       1.304435249091e+03 
       3.313278604643e-04       1.404223052541e+03 
       3.577595943165e-04       1.511558013390e+03 
       3.862999240274e-04       1.626990836452e+03 
       4.171170631739e-04       1.751108027370e+03 
       4.503926445983e-04       1.884533381345e+03 
       4.863227909323e-04       2.027929376471e+03 
       5.251192705226e-04       2.181998446367e+03 
       5.670107455699e-04       2.347484100857e+03 
       6.122441198393e-04       2.525171869336e+03 
       6.610859938837e-04       2.715889981400e+03 
       7.138242363583e-04       2.920509686087e+03 
       7.707696806873e-04       3.139945097709e+03 
       8.322579570814e-04       3.375152334396e+03 
       8.986514707061e-04       3.627127828231e+03 
       9.703415376577e-04       3.896905450015e+03 
       1.047750691338e-03       4.185552170951e+03 
       1.131335172818e-03       4.494162426790e+03 
       1.221587619877e-03       4.823850702662e+03 
       1.319039970550e-03       5.175742738805e+03 
       1.424266598317e-03       5.551019592517e+03 
       1.537887697396e-03       5.950788335876e+03 
       1.660572938097e-03       6.376123046812e+03 
       1.793045413791e-03       6.828073896104e+03 
       1.936085902737e-03       7.307625375377e+03 
       2.090537469909e-03       7.815671860151e+03 
       2.257310435923e-03       8.352990369371e+03 
       2.437387742372e-03       8.920211057502e+03 
       2.631830745176e-03       9.517783061839e+03 
       2.841785470091e-03       1.014593703663e+04 
       3.068489367268e-03       1.080464505731e+04 
       3.313278604643e-03       1.149357459441e+04 
       3.577595943165e-03       1.221203620799e+04 
       3.862999240274e-03       1.295892538465e+04 
       4.171170631739e-03       1.373266002337e+04 
       4.503926445983e-03       1.453111834505e+04 
       4.863227909323e-03       1.535154984020e+04 
       5.251192705226e-03       1.619063612789e+04 
       5.670107455699e-03       1.704431256290e+04 
       6.122441198393e-03       1.790755938297e+04 
       6.610859938837e-03       1.877460419610e+04 
       7.138242363583e-03       1.963872429054e+04 
       7.707696806873e-03       2.049215711842e+04 
       8.322579570814e-03       2.132607232069e+04 
       8.986514707061e-03       2.213055229205e+04 
       9.703415376577e-03       2.289445470286e+04 
       1.047750691338e-02       2.360548256067e+04 
       1.131335172818e-02       2.425022925781e+04 
       1.221587619877e-02       2.481423909129e+04 
       1.319039970550e-02       2.528218584758e+04 
       1.424266598317e-02       2.563814302254e+04 
       1.537887697392e-02       2.586606125458e+04 
       1.660572938023e-02       2.595024697391e+04 
       1.793045412706e-02       2.587633313668e+04 
       1.936085890181e-02       2.563219830508e+04 
       2.090537352463e-02       2.520936947659e+04 
       2.257309535333e-02       2.460446160286e+04 
       2.437382002918e-02       2.382093585133e+04 
       2.631799944462e-02       2.287046490204e+04 
       2.841644545389e-02       2.177448315140e+04 
       3.067933355377e-02       2.056553581434e+04 
       3.311368470740e-02       1.928734553565e+04 
       3.571840443502e-02       1.799403537778e+04 
       3.847720348444e-02       1.674679448392e+04 
       4.135335538431e-02       1.560456748129e+04 
       4.429361667738e-02       1.461037067883e+04 
       4.724366439141e-02       1.378049038660e+04 
       5.016480835311e-02       1.310504996333e+04 
       5.303989620246e-02       1.255712585045e+04 
       5.586870669566e-02       1.210424954754e+04 
       5.866042680613e-02       1.171463140804e+04 
       6.142798932958e-02       1.136042675001e+04 
       6.418496440164e-02       1.101851571934e+04 
       6.694418833788e-02       1.067062881266e+04 
       6.971731106057e-02       1.030348959079e+04 
       7.251476155766e-02       9.908922063996e+03 
       7.534587671527e-02       9.483689620466e+03 
       7.821907666265e-02       9.029436459495e+03 
       8.114203772912e-02       8.552246271409e+03 
       8.412184535029e-02       8.061838992623e+03 
       8.716512279304e-02       7.570664926216e+03 
       9.027813695930e-02       7.092378626568e+03 
       9.346688431697e-02       6.640405112607e+03 
       9.673716028276e-02       6.226580972397e+03 
       1.000946150830e-01       5.859802060351e+03 
       1.035447986537e-01       5.545086724351e+03 
       1.070931966762e-01       5.282960063011e+03 
       1.107452594425e-01       5.069246990833e+03 
       1.145064249153e-01       4.895062742513e+03 
       1.183821370918e-01       4.747669955504e+03 
       1.223778605862e-01       4.611523426867e+03 
       1.264990921987e-01       4.470389810290e+03 
       1.307513701367e-01       4.310022525753e+03 
       1.351402814784e-01       4.121122091497e+03 
       1.396714684203e-01       3.901785580459e+03 
       1.443506338194e-01       3.658333834882e+03 
       1.491835465229e-01       3.404163334357e+03 
       1.541760469708e-01       3.156334086678e+03 
       1.593340535561e-01       2.931629134735e+03 
       1.646635702297e-01       2.742004291877e+03 
       1.701706958456e-01       2.591876065540e+03 
       1.758616357459e-01       2.476822043531e+03 
       1.817427160982e-01       2.384739180070e+03 
       1.878204015065e-01       2.299893400792e+03 
       1.941013164283e-01       2.205257761332e+03 
       2.005922709503e-01       2.090283408978e+03 
       2.073002914972e-01       1.955907476305e+03 
       2.142326570816e-01       1.813613364795e+03 
       2.213969417533e-01       1.678686610135e+03 
       2.288010639706e-01       1.563209154829e+03 
       2.364533437147e-01       1.472015664215e+03 
       2.443625682930e-01       1.400802328971e+03 
       2.525380679504e-01       1.337663029738e+03 
       2.609898026346e-01       1.270103940962e+03 
       2.697284615565e-01       1.192547437534e+03 
       2.787655775689e-01       1.108468690165e+03 
       2.881136588829e-01       1.027863678306e+03 
       2.977863412677e-01       9.595333059863e+02 
       3.077985646929e-01       9.040288205187e+02 
       3.181667794071e-01       8.550963499469e+02 
       3.289091877812e-01       8.050896857533e+02 
       3.400460299658e-01       7.512407361162e+02 
       3.515999236474e-01       6.977224738861e+02 
       3.635962711085e-01       6.498082014993e+02 
       3.760637506334e-01       6.088100990539e+02 
       3.890349143879e-01       5.707559154983e+02 
       4.025469216825e-01       5.323434635450e+02 
       4.166424456376e-01       4.941295834119e+02 
       4.313708035863e-01       4.589001287978e+02 
       4.467893782977e-01       4.271382227277e+02 
       4.629654199664e-01       3.970575815344e+02 
       4.799783501994e-01       3.674496031111e+02 
       4.979227319373e-01       3.393687101937e+02 
       5.169121270864e-01       3.135267248165e+02 
       5.370841404489e-01       2.887877160619e+02 
       5.586070464571e-01       2.649633413597e+02 
       5.816885094930e-01       2.425642799327e+02 
       6.065870144995e-01       2.212155319914e+02 
       6.336266468475e-01       2.007435987924e+02 
       6.632156059511e-01       1.812871082550e+02 
       6.958678639263e-01       1.626284119536e+02 
       7.322247985589e-01       1.448225395500e+02 
       7.730680195114e-01       1.278007401474e+02 
       8.193049553677e-01       1.116221793317e+02 
       8.718988016039e-01       9.636107488931e+01 
       9.317218031082e-01       8.216774763489e+01 
       9.993660908989e-01       6.922178688447e+01 
       1.075037110174e+00       5.767090556920e+01 
       1.158653485707e+00       4.757957744819e+01 
       1.250099157308e+00       3.891032624698e+01 
       1.349432401273e+00       3.154069994189e+01 
       1.456947457397e+00       2.531872445380e+01 
       1.573135111331e+00       2.009123836424e+01 
       1.698621895592e+00       1.571908659450e+01 
       1.834127512934e+00       1.208317128276e+01 
       1.980444934528e+00       9.082671326895e+00 
       2.138435191726e+00       6.634125866296e+00 
       2.309029199186e+00       4.667119677534e+00 
       2.493232377687e+00       3.122029252295e+00 
       2.692130395285e+00       1.946954892787e+00 
       2.906895534573e+00       1.094759403101e+00 
       3.138793597714e+00       5.205126499133e-01 
       3.389191366484e+00       1.791509908307e-01 
       3.659564657905e+00       2.402768127486e-02 
       3.951507022538e+00       6.300730535189e-03 
       4.266739136701e+00       7.595730816953e-02 
       4.607118943941e+00       1.843872265207e-01 
       4.974652605557e+00       2.884590330415e-01 
       5.371506324689e+00       3.554685290565e-01 
       5.800019113685e+00       3.676454674883e-01 
       6.262716579983e+00       3.246512900129e-01 
       6.762325811764e+00       2.422541648676e-01 
       7.301791451110e+00       1.465947441570e-01 
       7.884293049406e+00       6.478990309242e-02 
       8.513263807261e+00       1.498659452256e-02 
       9.192410809424e+00       6.855162024704e-06 
       9.925736873929e+00       8.144109215516e-03 
       1.071756414427e+01       2.122781263546e-02 
       1.157255956364e+01       2.556406256771e-02 
       1.249576238137e+01       1.876281730115e-02 
       1.349261385375e+01       7.880782470422e-03 
       1.456898931416e+01       1.030408409342e-03 
       1.573123280165e+01       2.489332846448e-04 
       1.698619445202e+01       1.803096830973e-03 
       1.834127087176e+01       1.979932687408e-03 
       1.980444873285e+01       7.903032135774e-04 
       2.138435184532e+01       3.370812523690e-05 
       2.309029198506e+01       1.025239298718e-04 
       2.493232377636e+01       1.888567538253e-04 
       2.692130395282e+01       5.806138841508e-05 
       2.906895534573e+01       2.772804822009e-07 
       3.138793597714e+01       1.810457269590e-05 
       3.389191366484e+01       7.631645926788e-06 
       3.659564657905e+01       5.430948374559e-08 
       3.951507022538e+01       1.684262490542e-06 
       4.266739136701e+01       1.804529372794e-07 
       4.607118943941e+01       1.509595039661e-07 
       4.974652605557e+01       6.614409741371e-08 
       5.371506324689e+01       6.849586777310e-09 
       5.800019113685e+01       3.703277136204e-09 
       6.262716579983e+01       2.334113889030e-09 
       6.762325811764e+01       5.648153393294e-10 
