# Matter power spectrum P(k) at redshift z=99
# for k=1.04775e-05 to 134.926 h/Mpc,
# number of wavenumbers equal to 255
#    1:k (h/Mpc)              2:P (Mpc/h)^3        
       1.047750691338e-05       7.261927095304e-03 
       1.131335172818e-05       7.820332150776e-03 
       1.221587619877e-05       8.421675382352e-03 
       1.319039970550e-05       9.069257738027e-03 
       1.424266598317e-05       9.766636451151e-03 
       1.537887697396e-05       1.051763973644e-02 
       1.660572938097e-05       1.132639250755e-02 
       1.793045413791e-05       1.219733201512e-02 
       1.936085902737e-05       1.313524187207e-02 
       2.090537469909e-05       1.414527084982e-02 
       2.257310435923e-05       1.523296544497e-02 
       2.437387742372e-05       1.640429654646e-02 
       2.631830745176e-05       1.766569603293e-02 
       2.841785470091e-05       1.902408711170e-02 
       3.068489367268e-05       2.048692967452e-02 
       3.313278604643e-05       2.206225467558e-02 
       3.577595943165e-05       2.375870883862e-02 
       3.862999240274e-05       2.558560669834e-02 
       4.171170631739e-05       2.755297672520e-02 
       4.503926445983e-05       2.967161933426e-02 
       4.863227909323e-05       3.195316455670e-02 
       5.251192705226e-05       3.441013466150e-02 
       5.670107455699e-05       3.705601741719e-02 
       6.122441198393e-05       3.990533412854e-02 
       6.610859938837e-05       4.297372242551e-02 
       7.138242363583e-05       4.627802054871e-02 
       7.707696806873e-05       4.983636159910e-02 
       8.322579570814e-05       5.366826786957e-02 
       8.986514707061e-05       5.779476319759e-02 
       9.703415376577e-05       6.223848221864e-02 
       1.047750691338e-04       6.702379825052e-02 
       1.131335172818e-04       7.217695031113e-02 
       1.221587619877e-04       7.772619030398e-02 
       1.319039970550e-04       8.370193380080e-02 
       1.424266598317e-04       9.013692506710e-02 
       1.537887697396e-04       9.706641130446e-02 
       1.660572938097e-04       1.045283343116e-01 
       1.793045413791e-04       1.125635329191e-01 
       1.936085902737e-04       1.212159592316e-01 
       2.090537469909e-04       1.305329107443e-01 
       2.257310435923e-04       1.405652819369e-01 
       2.437387742372e-04       1.513678275085e-01 
       2.631830745176e-04       1.629994475143e-01 
       2.841785470091e-04       1.755234890489e-01 
       3.068489367268e-04       1.890080645311e-01 
       3.313278604643e-04       2.035263977445e-01 
       3.577595943165e-04       2.191571778059e-01 
       3.862999240274e-04       2.359849423276e-01 
       4.171170631739e-04       2.541004713019e-01 
       4.503926445983e-04       2.736012061178e-01 
       4.863227909323e-04       2.945916774663e-01 
       5.251192705226e-04       3.171839507885e-01 
       5.670107455699e-04       3.414980769131e-01 
       6.122441198393e-04       3.676625416325e-01 
       6.610859938837e-04       3.958147272890e-01 
       7.138242363583e-04       4.261013332092e-01 
       7.707696806873e-04       4.586787880878e-01 
       8.322579570814e-04       4.937136112850e-01 
       8.986514707061e-04       5.313826962106e-01 
       9.703415376577e-04       5.718735176834e-01 
       1.047750691338e-03       6.153841926279e-01 
       1.131335172818e-03       6.621233623150e-01 
       1.221587619877e-03       7.123098743678e-01 
       1.319039970550e-03       7.661721263806e-01 
       1.424266598317e-03       8.239547181313e-01 
       1.537887697396e-03       8.859012282813e-01 
       1.660572938097e-03       9.522589495729e-01 
       1.793045413791e-03       1.023280284732e+00 
       1.936085902737e-03       1.099216542119e+00 
       2.090537469909e-03       1.180313285047e+00 
       2.257310435923e-03       1.266804486816e+00 
       2.437387742372e-03       1.358905328466e+00 
       2.631830745176e-03       1.456803285946e+00 
       2.841785470091e-03       1.560647663024e+00 
       3.068489367268e-03       1.670537010551e+00 
       3.313278604643e-03       1.786505039597e+00 
       3.577595943165e-03       1.908504410055e+00 
       3.862999240274e-03       2.036389468667e+00 
       4.171170631739e-03       2.169898252674e+00 
       4.503926445983e-03       2.308634491793e+00 
       4.863227909323e-03       2.452050674538e+00 
       5.251192705226e-03       2.599434680817e+00 
       5.670107455699e-03       2.749901126051e+00 
       6.122441198393e-03       2.902390057793e+00 
       6.610859938837e-03       3.055671269146e+00 
       7.138242363583e-03       3.208360121987e+00 
       7.707696806873e-03       3.358926650291e+00 
       8.322579570814e-03       3.505726888551e+00 
       8.986514707061e-03       3.647012436260e+00 
       9.703415376577e-03       3.780926177446e+00 
       1.047750691338e-02       3.905492878449e+00 
       1.131335172818e-02       4.018589823429e+00 
       1.221587619877e-02       4.117902885770e+00 
       1.319039970550e-02       4.200917696931e+00 
       1.424266598317e-02       4.264943735074e+00 
       1.537887697392e-02       4.307219665388e+00 
       1.660572938023e-02       4.325062453153e+00 
       1.793045412706e-02       4.316060386992e+00 
       1.936085890181e-02       4.278228926354e+00 
       2.090537352463e-02       4.210204466422e+00 
       2.257309535333e-02       4.111418740148e+00 
       2.437382002918e-02       3.982420926255e+00 
       2.631799944462e-02       3.825168672228e+00 
       2.841644545389e-02       3.643282229545e+00 
       3.067933355377e-02       3.442198685049e+00 
       3.311368470740e-02       3.229241574323e+00 
       3.571840443502e-02       3.013516307089e+00 
       3.847720348444e-02       2.805283914498e+00 
       4.135335538431e-02       2.614410637383e+00 
       4.429361667738e-02       2.448132154570e+00 
       4.724366439141e-02       2.309240621212e+00 
       5.016480835311e-02       2.196115171172e+00 
       5.303989620246e-02       2.104369840131e+00 
       5.586870669566e-02       2.028462580379e+00 
       5.866042680613e-02       1.963155306112e+00 
       6.142798932958e-02       1.903779712326e+00 
       6.418496440164e-02       1.846479221310e+00 
       6.694418833788e-02       1.788197496882e+00 
       6.971731106057e-02       1.726715705807e+00 
       7.251476155766e-02       1.660654421239e+00 
       7.534587671527e-02       1.589469889158e+00 
       7.821907666265e-02       1.513436615840e+00 
       8.114203772912e-02       1.433568809726e+00 
       8.412184535029e-02       1.351492312251e+00 
       8.716512279304e-02       1.269273792888e+00 
       9.027813695930e-02       1.189193234037e+00 
       9.346688431697e-02       1.113501177192e+00 
       9.673716028276e-02       1.044174520504e+00 
       1.000946150830e-01       9.827060518017e-01 
       1.035447986537e-01       9.299368873947e-01 
       1.070931966762e-01       8.859585529675e-01 
       1.107452594425e-01       8.500711225016e-01 
       1.145064249153e-01       8.208033514655e-01 
       1.183821370918e-01       7.960242487971e-01 
       1.223778605862e-01       7.731456414571e-01 
       1.264990921987e-01       7.494520411648e-01 
       1.307513701367e-01       7.225575038987e-01 
       1.351402814784e-01       6.909095381628e-01 
       1.396714684203e-01       6.541823346295e-01 
       1.443506338194e-01       6.134277852172e-01 
       1.491835465229e-01       5.708684455015e-01 
       1.541760469708e-01       5.293637265017e-01 
       1.593340535561e-01       4.917102494226e-01 
       1.646635702297e-01       4.599193172528e-01 
       1.701706958456e-01       4.347272276303e-01 
       1.758616357459e-01       4.154070774156e-01 
       1.817427160982e-01       3.999354280277e-01 
       1.878204015065e-01       3.856849423354e-01 
       1.941013164283e-01       3.698131852599e-01 
       2.005922709503e-01       3.505505913122e-01 
       2.073002914972e-01       3.280454205979e-01 
       2.142326570816e-01       3.042125932844e-01 
       2.213969417533e-01       2.816104119567e-01 
       2.288010639706e-01       2.622555355721e-01 
       2.364533437147e-01       2.469604407112e-01 
       2.443625682930e-01       2.350114838529e-01 
       2.525380679504e-01       2.244188075113e-01 
       2.609898026346e-01       2.130944442103e-01 
       2.697284615565e-01       2.001008776807e-01 
       2.787655775689e-01       1.860175057983e-01 
       2.881136588829e-01       1.725152462805e-01 
       2.977863412677e-01       1.610639974005e-01 
       3.077985646929e-01       1.517586933294e-01 
       3.181667794071e-01       1.435573927829e-01 
       3.289091877812e-01       1.351795592643e-01 
       3.400460299658e-01       1.261617859596e-01 
       3.515999236474e-01       1.171994001130e-01 
       3.635962711085e-01       1.091742493932e-01 
       3.760637506334e-01       1.023067116684e-01 
       3.890349143879e-01       9.593475545131e-02 
       4.025469216825e-01       8.950476690739e-02 
       4.166424456376e-01       8.310862371550e-02 
       4.313708035863e-01       7.721227832982e-02 
       4.467893782977e-01       7.189711764060e-02 
       4.629654199664e-01       6.686550606022e-02 
       4.799783501994e-01       6.191378609835e-02 
       4.979227319373e-01       5.721844333244e-02 
       5.169121270864e-01       5.289888658797e-02 
       5.370841404489e-01       4.876553294978e-02 
       5.586070464571e-01       4.478642527893e-02 
       5.816885094930e-01       4.104727993737e-02 
       6.065870144995e-01       3.748498521920e-02 
       6.336266468475e-01       3.407124372654e-02 
       6.632156059511e-01       3.082924014296e-02 
       6.958678639263e-01       2.772267190046e-02 
       7.322247985589e-01       2.476110540684e-02 
       7.730680195114e-01       2.193317144948e-02 
       8.193049553677e-01       1.924925766131e-02 
       8.718988016039e-01       1.672186134798e-02 
       9.317218031082e-01       1.437617980314e-02 
       9.993660908989e-01       1.224193474797e-02 
       1.075037110174e+00       1.034306459634e-02 
       1.158653485707e+00       8.689279673030e-03 
       1.250099157308e+00       7.273179737432e-03 
       1.349432401273e+00       6.072973421451e-03 
       1.456947457397e+00       5.062060516738e-03 
       1.573135111331e+00       4.213374068276e-03 
       1.698621895592e+00       3.502231096298e-03 
       1.834127512934e+00       2.907177992346e-03 
       1.980444934528e+00       2.409743737098e-03 
       2.138435191726e+00       1.994369552627e-03 
       2.309029199186e+00       1.647784186990e-03 
       2.493232377687e+00       1.358835294195e-03 
       2.692130395285e+00       1.118080884673e-03 
       2.906895534573e+00       9.176052231006e-04 
       3.138793597714e+00       7.507366528728e-04 
       3.389191366484e+00       6.118897422996e-04 
       3.659564657905e+00       4.963863221357e-04 
       3.951507022538e+00       4.003427973473e-04 
       4.266739136701e+00       3.204859355958e-04 
       4.607118943941e+00       2.541871564633e-04 
       4.974652605557e+00       1.991508950232e-04 
       5.371506324689e+00       1.536380495610e-04 
       5.800019113685e+00       1.161303852125e-04 
       6.262716579983e+00       8.544444335992e-05 
       6.762325811764e+00       6.061448734264e-05 
       7.301791451110e+00       4.093579673524e-05 
       7.884293049406e+00       2.570957771061e-05 
       8.513263807261e+00       1.448335363662e-05 
       9.192410809424e+00       6.784889213049e-06 
       9.925736873929e+00       2.177600311889e-06 
       1.071756414427e+01       1.872102164275e-07 
       1.157255956364e+01       2.568076693338e-07 
       1.249576238137e+01       1.738224831767e-06 
       1.349261385375e+01       3.908620230436e-06 
       1.456898931416e+01       6.019156770626e-06 
       1.573123280165e+01       7.435694739061e-06 
       1.698619445202e+01       7.709289167222e-06 
       1.834127087176e+01       6.750831264321e-06 
       1.980444873285e+01       4.861161022059e-06 
       2.138435184532e+01       2.676098336054e-06 
       2.309029198506e+01       9.123067374266e-07 
       2.493232377636e+01       6.295625979165e-08 
       2.692130395282e+01       1.414158486277e-07 
       2.906895534573e+01       6.724919860398e-07 
       3.138793597714e+01       1.033994836485e-06 
       3.389191366484e+01       8.833356525403e-07 
       3.659564657905e+01       4.109314294212e-07 
       3.951507022538e+01       5.196146025294e-08 
       4.266739136701e+01       2.322753880454e-08 
       4.607118943941e+01       1.386542735789e-07 
       4.974652605557e+01       1.333335856316e-07 
       5.371506324689e+01       3.870252680822e-08 
       5.800019113685e+01       4.135201306000e-10 
       6.262716579983e+01       2.221313421139e-08 
       6.762325811764e+01       1.570385932852e-08 
       7.301791451110e+01       6.840233901249e-10 
       7.884293049406e+01       2.359514950731e-09 
       8.513263807261e+01       2.326048224915e-09 
       9.192410809424e+01       3.809921894146e-11 
       9.925736873929e+01       3.346080514794e-10 
       1.071756414427e+02       1.769500375980e-11 
       1.157255956364e+02       9.389817371040e-11 
       1.249576238137e+02       2.108921651219e-11 
       1.349261385375e+02       2.433253257598e-11 
