# Matter power spectrum P(k) at redshift z=99
# for k=1.04775e-05 to 67.6233 h/Mpc,
# number of wavenumbers equal to 246
#    1:k (h/Mpc)              2:P (Mpc/h)^3        
       1.047750691338e-05       7.261927673119e-03 
       1.131335172818e-05       7.820331745737e-03 
       1.221587619877e-05       8.421675986489e-03 
       1.319039970550e-05       9.069258192194e-03 
       1.424266598317e-05       9.766638404421e-03 
       1.537887697396e-05       1.051764069682e-02 
       1.660572938097e-05       1.132639105520e-02 
       1.793045413791e-05       1.219733231416e-02 
       1.936085902737e-05       1.313524224380e-02 
       2.090537469909e-05       1.414527121893e-02 
       2.257310435923e-05       1.523296272192e-02 
       2.437387742372e-05       1.640429444530e-02 
       2.631830745176e-05       1.766569582178e-02 
       2.841785470091e-05       1.902408601793e-02 
       3.068489367268e-05       2.048692970591e-02 
       3.313278604643e-05       2.206225513594e-02 
       3.577595943165e-05       2.375870704909e-02 
       3.862999240274e-05       2.558560727479e-02 
       4.171170631739e-05       2.755297763344e-02 
       4.503926445983e-05       2.967161927315e-02 
       4.863227909323e-05       3.195316450832e-02 
       5.251192705226e-05       3.441013519284e-02 
       5.670107455699e-05       3.705601722526e-02 
       6.122441198393e-05       3.990533413563e-02 
       6.610859938837e-05       4.297372168203e-02 
       7.138242363583e-05       4.627802141688e-02 
       7.707696806873e-05       4.983636194159e-02 
       8.322579570814e-05       5.366826847231e-02 
       8.986514707061e-05       5.779476394569e-02 
       9.703415376577e-05       6.223848243885e-02 
       1.047750691338e-04       6.702379865640e-02 
       1.131335172818e-04       7.217695153381e-02 
       1.221587619877e-04       7.772619073572e-02 
       1.319039970550e-04       8.370193432376e-02 
       1.424266598317e-04       9.013692507549e-02 
       1.537887697396e-04       9.706641242570e-02 
       1.660572938097e-04       1.045283354271e-01 
       1.793045413791e-04       1.125635349068e-01 
       1.936085902737e-04       1.212159614968e-01 
       2.090537469909e-04       1.305329132714e-01 
       2.257310435923e-04       1.405652846215e-01 
       2.437387742372e-04       1.513678302540e-01 
       2.631830745176e-04       1.629994504870e-01 
       2.841785470091e-04       1.755234921224e-01 
       3.068489367268e-04       1.890080670413e-01 
       3.313278604643e-04       2.035264002435e-01 
       3.577595943165e-04       2.191571803681e-01 
       3.862999240274e-04       2.359849437593e-01 
       4.171170631739e-04       2.541004741539e-01 
       4.503926445983e-04       2.736012080277e-01 
       4.863227909323e-04       2.945916790965e-01 
       5.251192705226e-04       3.171839525183e-01 
       5.670107455699e-04       3.414980764002e-01 
       6.122441198393e-04       3.676625413100e-01 
       6.610859938837e-04       3.958147252304e-01 
       7.138242363583e-04       4.261013284911e-01 
       7.707696806873e-04       4.586787792351e-01 
       8.322579570814e-04       4.937136001358e-01 
       8.986514707061e-04       5.313826801402e-01 
       9.703415376577e-04       5.718734972157e-01 
       1.047750691338e-03       6.153841629505e-01 
       1.131335172818e-03       6.621233239466e-01 
       1.221587619877e-03       7.123098220423e-01 
       1.319039970550e-03       7.661720584438e-01 
       1.424266598317e-03       8.239546297727e-01 
       1.537887697396e-03       8.859011173466e-01 
       1.660572938097e-03       9.522588006424e-01 
       1.793045413791e-03       1.023280099819e+00 
       1.936085902737e-03       1.099216304579e+00 
       2.090537469909e-03       1.180312990454e+00 
       2.257310435923e-03       1.266804115853e+00 
       2.437387742372e-03       1.358904853406e+00 
       2.631830745176e-03       1.456802683156e+00 
       2.841785470091e-03       1.560646890522e+00 
       3.068489367268e-03       1.670536062500e+00 
       3.313278604643e-03       1.786503852161e+00 
       3.577595943165e-03       1.908502930788e+00 
       3.862999240274e-03       2.036387730709e+00 
       4.171170631739e-03       2.169896178702e+00 
       4.503926445983e-03       2.308631878994e+00 
       4.863227909323e-03       2.452047290962e+00 
       5.251192705226e-03       2.599430628088e+00 
       5.670107455699e-03       2.749896931813e+00 
       6.122441198393e-03       2.902386513384e+00 
       6.610859938837e-03       3.055668703261e+00 
       7.138242363583e-03       3.208356461547e+00 
       7.707696806873e-03       3.358923892462e+00 
       8.322579570814e-03       3.505725162135e+00 
       8.986514707061e-03       3.647009593047e+00 
       9.703415376577e-03       3.780923304285e+00 
       1.047750691338e-02       3.905491027276e+00 
       1.131335172818e-02       4.018587959273e+00 
       1.221587619877e-02       4.117901588263e+00 
       1.319039970550e-02       4.200915376299e+00 
       1.424266598317e-02       4.264942384935e+00 
       1.537887697392e-02       4.307220260466e+00 
       1.660572938023e-02       4.325062235574e+00 
       1.793045412706e-02       4.316059517375e+00 
       1.936085890181e-02       4.278228656173e+00 
       2.090537352463e-02       4.210202270946e+00 
       2.257309535333e-02       4.111423691282e+00 
       2.437382002918e-02       3.982423795420e+00 
       2.631799944462e-02       3.825163262568e+00 
       2.841644545389e-02       3.643279362726e+00 
       3.067933355377e-02       3.442202111412e+00 
       3.311368470740e-02       3.229240881954e+00 
       3.571840443502e-02       3.013518370109e+00 
       3.847720348444e-02       2.805287025647e+00 
       4.135335538431e-02       2.614406450305e+00 
       4.429361667738e-02       2.448137841834e+00 
       4.724366439141e-02       2.309236569223e+00 
       5.016480835311e-02       2.196112527470e+00 
       5.303989620246e-02       2.104363656421e+00 
       5.586870669566e-02       2.028466230309e+00 
       5.866042680613e-02       1.963152092547e+00 
       6.142798932958e-02       1.903774744342e+00 
       6.418496440164e-02       1.846483059300e+00 
       6.694418833788e-02       1.788195974597e+00 
       6.971731106057e-02       1.726716058922e+00 
       7.251476155766e-02       1.660654574253e+00 
       7.534587671527e-02       1.589469951142e+00 
       7.821907666265e-02       1.513437270919e+00 
       8.114203772912e-02       1.433567980956e+00 
       8.412184535029e-02       1.351494039009e+00 
       8.716512279304e-02       1.269275907594e+00 
       9.027813695930e-02       1.189190477196e+00 
       9.346688431697e-02       1.113500975329e+00 
       9.673716028276e-02       1.044173951574e+00 
       1.000946150830e-01       9.827060923647e-01 
       1.035447986537e-01       9.299372385053e-01 
       1.070931966762e-01       8.859602934738e-01 
       1.107452594425e-01       8.500699475652e-01 
       1.145064249153e-01       8.208047149446e-01 
       1.183821370918e-01       7.960262444766e-01 
       1.223778605862e-01       7.731468213106e-01 
       1.264990921987e-01       7.494511600991e-01 
       1.307513701367e-01       7.225595535972e-01 
       1.351402814784e-01       6.909082220121e-01 
       1.396714684203e-01       6.541814984360e-01 
       1.443506338194e-01       6.134264081444e-01 
       1.491835465229e-01       5.708669370714e-01 
       1.541760469708e-01       5.293642041730e-01 
       1.593340535561e-01       4.917102485256e-01 
       1.646635702297e-01       4.599201602061e-01 
       1.701706958456e-01       4.347294304094e-01 
       1.758616357459e-01       4.154080934274e-01 
       1.817427160982e-01       3.999373813373e-01 
       1.878204015065e-01       3.856822911878e-01 
       1.941013164283e-01       3.698097475820e-01 
       2.005922709503e-01       3.505460772550e-01 
       2.073002914972e-01       3.280434333788e-01 
       2.142326570816e-01       3.042145634287e-01 
       2.213969417533e-01       2.816119788136e-01 
       2.288010639706e-01       2.622570258644e-01 
       2.364533437147e-01       2.469622354990e-01 
       2.443625682930e-01       2.350128556191e-01 
       2.525380679504e-01       2.244181077026e-01 
       2.609898026346e-01       2.130938023627e-01 
       2.697284615565e-01       2.001020465175e-01 
       2.787655775689e-01       1.860197186378e-01 
       2.881136588829e-01       1.725175754936e-01 
       2.977863412677e-01       1.610661339838e-01 
       3.077985646929e-01       1.517614780286e-01 
       3.181667794071e-01       1.435592577296e-01 
       3.289091877812e-01       1.351813716462e-01 
       3.400460299658e-01       1.261645447325e-01 
       3.515999236474e-01       1.172019358410e-01 
       3.635962711085e-01       1.091767260018e-01 
       3.760637506334e-01       1.023096267017e-01 
       3.890349143879e-01       9.593767770180e-02 
       4.025469216825e-01       8.950754702154e-02 
       4.166424456376e-01       8.311180531385e-02 
       4.313708035863e-01       7.721565629258e-02 
       4.467893782977e-01       7.190075347161e-02 
       4.629654199664e-01       6.686893400469e-02 
       4.799783501994e-01       6.191743720427e-02 
       4.979227319373e-01       5.722228520102e-02 
       5.169121270864e-01       5.290291241361e-02 
       5.370841404489e-01       4.876972848124e-02 
       5.586070464571e-01       4.479084787657e-02 
       5.816885094930e-01       4.105183724785e-02 
       6.065870144995e-01       3.748980890840e-02 
       6.336266468475e-01       3.407621639393e-02 
       6.632156059511e-01       3.083465832963e-02 
       6.958678639263e-01       2.772821753455e-02 
       7.322247985589e-01       2.476701537430e-02 
       7.730680195114e-01       2.193950408681e-02 
       8.193049553677e-01       1.925601129280e-02 
       8.718988016039e-01       1.672917032506e-02 
       9.317218031082e-01       1.438415560722e-02 
       9.993660908989e-01       1.225058035491e-02 
       1.075037110174e+00       1.035251176734e-02 
       1.158653485707e+00       8.699646116609e-03 
       1.250099157308e+00       7.284468984066e-03 
       1.349432401273e+00       6.085319593145e-03 
       1.456947457397e+00       5.075549488289e-03 
       1.573135111331e+00       4.228121181896e-03 
       1.698621895592e+00       3.518363896712e-03 
       1.834127512934e+00       2.924779247289e-03 
       1.980444934528e+00       2.428944265960e-03 
       2.138435191726e+00       2.015266296118e-03 
       2.309029199186e+00       1.670508302177e-03 
       2.493232377687e+00       1.383506108400e-03 
       2.692130395285e+00       1.144823102321e-03 
       2.906895534573e+00       9.465290635531e-04 
       3.138793597714e+00       7.819294509114e-04 
       3.389191366484e+00       6.454361234637e-04 
       3.659564657905e+00       5.323544830276e-04 
       3.951507022538e+00       4.387425676072e-04 
       4.266739136701e+00       3.613105964436e-04 
       4.607118943941e+00       2.973190821005e-04 
       4.974652605557e+00       2.444686111749e-04 
       5.371506324689e+00       2.008525422130e-04 
       5.800019113685e+00       1.648850331754e-04 
       6.262716579983e+00       1.352419818259e-04 
       6.762325811764e+00       1.108261873951e-04 
       7.301791451110e+00       9.072841826770e-05 
       7.884293049406e+00       7.419303760261e-05 
       8.513263807261e+00       6.059652425409e-05 
       9.192410809424e+00       4.942171928452e-05 
       9.925736873929e+00       4.024035573594e-05 
       1.071756414427e+01       3.270023149985e-05 
       1.157255956364e+01       2.651010540703e-05 
       1.249576238137e+01       2.143000623530e-05 
       1.349261385375e+01       1.726266070477e-05 
       1.456898931416e+01       1.384534639985e-05 
       1.573123280165e+01       1.104484544161e-05 
       1.698619445202e+01       8.751826955984e-06 
       1.834127087176e+01       6.876736883053e-06 
       1.980444873285e+01       5.346517028580e-06 
       2.138435184532e+01       4.101567902204e-06 
       2.309029198506e+01       3.093420937357e-06 
       2.493232377636e+01       2.282594822883e-06 
       2.692130395282e+01       1.637099975749e-06 
       2.906895534573e+01       1.130808893572e-06 
       3.138793597714e+01       7.422541546648e-07 
       3.389191366484e+01       4.533667680776e-07 
       3.659564657905e+01       2.486191101090e-07 
       3.951507022538e+01       1.140526707418e-07 
       4.266739136701e+01       3.663276738631e-08 
       4.607118943941e+01       3.698112459406e-09 
       4.974652605557e+01       2.758242540486e-09 
       5.371506324689e+01       2.157644483869e-08 
       5.800019113685e+01       4.865162874822e-08 
       6.262716579983e+01       7.399851014632e-08 
       6.762325811764e+01       9.016033335244e-08 
