# Matter power spectrum P(k) at redshift z=99
# for k=1.04775e-05 to 67.6233 h/Mpc,
# number of wavenumbers equal to 246
#    1:k (h/Mpc)              2:P (Mpc/h)^3        
       1.047750691338e-05       7.261927673119e-03 
       1.131335172818e-05       7.820331745737e-03 
       1.221587619877e-05       8.421675986489e-03 
       1.319039970550e-05       9.069258192194e-03 
       1.424266598317e-05       9.766638404421e-03 
       1.537887697396e-05       1.051764069681e-02 
       1.660572938097e-05       1.132639105520e-02 
       1.793045413791e-05       1.219733231416e-02 
       1.936085902737e-05       1.313524224380e-02 
       2.090537469909e-05       1.414527121893e-02 
       2.257310435923e-05       1.523296272192e-02 
       2.437387742372e-05       1.640429444530e-02 
       2.631830745176e-05       1.766569582177e-02 
       2.841785470091e-05       1.902408601793e-02 
       3.068489367268e-05       2.048692970591e-02 
       3.313278604643e-05       2.206225513594e-02 
       3.577595943165e-05       2.375870704909e-02 
       3.862999240274e-05       2.558560727479e-02 
       4.171170631739e-05       2.755297763344e-02 
       4.503926445983e-05       2.967161927315e-02 
       4.863227909323e-05       3.195316450832e-02 
       5.251192705226e-05       3.441013519284e-02 
       5.670107455699e-05       3.705601722526e-02 
       6.122441198393e-05       3.990533413562e-02 
       6.610859938837e-05       4.297372168203e-02 
       7.138242363583e-05       4.627802141688e-02 
       7.707696806873e-05       4.983636194159e-02 
       8.322579570814e-05       5.366826847231e-02 
       8.986514707061e-05       5.779476394569e-02 
       9.703415376577e-05       6.223848243885e-02 
       1.047750691338e-04       6.702379865640e-02 
       1.131335172818e-04       7.217695153381e-02 
       1.221587619877e-04       7.772619073572e-02 
       1.319039970550e-04       8.370193432376e-02 
       1.424266598317e-04       9.013692507548e-02 
       1.537887697396e-04       9.706641242570e-02 
       1.660572938097e-04       1.045283354271e-01 
       1.793045413791e-04       1.125635349068e-01 
       1.936085902737e-04       1.212159614968e-01 
       2.090537469909e-04       1.305329132714e-01 
       2.257310435923e-04       1.405652846215e-01 
       2.437387742372e-04       1.513678302540e-01 
       2.631830745176e-04       1.629994504871e-01 
       2.841785470091e-04       1.755234921224e-01 
       3.068489367268e-04       1.890080670413e-01 
       3.313278604643e-04       2.035264002435e-01 
       3.577595943165e-04       2.191571803681e-01 
       3.862999240274e-04       2.359849437592e-01 
       4.171170631739e-04       2.541004741539e-01 
       4.503926445983e-04       2.736012080277e-01 
       4.863227909323e-04       2.945916790965e-01 
       5.251192705226e-04       3.171839525183e-01 
       5.670107455699e-04       3.414980764002e-01 
       6.122441198393e-04       3.676625413100e-01 
       6.610859938837e-04       3.958147252304e-01 
       7.138242363583e-04       4.261013284918e-01 
       7.707696806873e-04       4.586787792354e-01 
       8.322579570814e-04       4.937136001349e-01 
       8.986514707061e-04       5.313826801402e-01 
       9.703415376577e-04       5.718734972157e-01 
       1.047750691338e-03       6.153841629505e-01 
       1.131335172818e-03       6.621233239465e-01 
       1.221587619877e-03       7.123098220422e-01 
       1.319039970550e-03       7.661720584626e-01 
       1.424266598317e-03       8.239546297725e-01 
       1.537887697396e-03       8.859011173466e-01 
       1.660572938097e-03       9.522588006421e-01 
       1.793045413791e-03       1.023280099819e+00 
       1.936085902737e-03       1.099216304579e+00 
       2.090537469909e-03       1.180312990453e+00 
       2.257310435923e-03       1.266804115853e+00 
       2.437387742372e-03       1.358904853407e+00 
       2.631830745176e-03       1.456802683156e+00 
       2.841785470091e-03       1.560646890522e+00 
       3.068489367268e-03       1.670536062499e+00 
       3.313278604643e-03       1.786503852160e+00 
       3.577595943165e-03       1.908502930790e+00 
       3.862999240274e-03       2.036387730709e+00 
       4.171170631739e-03       2.169896177314e+00 
       4.503926445983e-03       2.308631878994e+00 
       4.863227909323e-03       2.452047290962e+00 
       5.251192705226e-03       2.599430628088e+00 
       5.670107455699e-03       2.749896931821e+00 
       6.122441198393e-03       2.902386513386e+00 
       6.610859938837e-03       3.055668702500e+00 
       7.138242363583e-03       3.208356461546e+00 
       7.707696806873e-03       3.358923892725e+00 
       8.322579570814e-03       3.505725083305e+00 
       8.986514707061e-03       3.647009351753e+00 
       9.703415376577e-03       3.780923304296e+00 
       1.047750691338e-02       3.905491765711e+00 
       1.131335172818e-02       4.018587348616e+00 
       1.221587619877e-02       4.117901586658e+00 
       1.319039970550e-02       4.200915357460e+00 
       1.424266598317e-02       4.264942467208e+00 
       1.537887697392e-02       4.307218509109e+00 
       1.660572938023e-02       4.325063069289e+00 
       1.793045412706e-02       4.316058639987e+00 
       1.936085890181e-02       4.278226671843e+00 
       2.090537352463e-02       4.210200491294e+00 
       2.257309535333e-02       4.111419157915e+00 
       2.437382002918e-02       3.982428241598e+00 
       2.631799944462e-02       3.825174491636e+00 
       2.841644545389e-02       3.643279651556e+00 
       3.067933355377e-02       3.442190525008e+00 
       3.311368470740e-02       3.229235485847e+00 
       3.571840443502e-02       3.013521800097e+00 
       3.847720348444e-02       2.805281668316e+00 
       4.135335538431e-02       2.614409596507e+00 
       4.429361667738e-02       2.448130615119e+00 
       4.724366439141e-02       2.309234105125e+00 
       5.016480835311e-02       2.196110175790e+00 
       5.303989620246e-02       2.104367565780e+00 
       5.586870669566e-02       2.028463868298e+00 
       5.866042680613e-02       1.963154192502e+00 
       6.142798932958e-02       1.903779612325e+00 
       6.418496440164e-02       1.846479370277e+00 
       6.694418833788e-02       1.788196102781e+00 
       6.971731106057e-02       1.726715173758e+00 
       7.251476155766e-02       1.660653843551e+00 
       7.534587671527e-02       1.589472375281e+00 
       7.821907666265e-02       1.513439383679e+00 
       8.114203772912e-02       1.433569232954e+00 
       8.412184535029e-02       1.351492894397e+00 
       8.716512279304e-02       1.269275171415e+00 
       9.027813695930e-02       1.189191364378e+00 
       9.346688431697e-02       1.113500013981e+00 
       9.673716028276e-02       1.044177784099e+00 
       1.000946150830e-01       9.827049929745e-01 
       1.035447986537e-01       9.299380611288e-01 
       1.070931966762e-01       8.859597011156e-01 
       1.107452594425e-01       8.500690027616e-01 
       1.145064249153e-01       8.208049092523e-01 
       1.183821370918e-01       7.960256788494e-01 
       1.223778605862e-01       7.731466109117e-01 
       1.264990921987e-01       7.494510909314e-01 
       1.307513701367e-01       7.225582548788e-01 
       1.351402814784e-01       6.909097041187e-01 
       1.396714684203e-01       6.541816677552e-01 
       1.443506338194e-01       6.134267133188e-01 
       1.491835465229e-01       5.708670313169e-01 
       1.541760469708e-01       5.293629843595e-01 
       1.593340535561e-01       4.917105087552e-01 
       1.646635702297e-01       4.599197549976e-01 
       1.701706958456e-01       4.347284951853e-01 
       1.758616357459e-01       4.154083679555e-01 
       1.817427160982e-01       3.999378579830e-01 
       1.878204015065e-01       3.856823999322e-01 
       1.941013164283e-01       3.698098176608e-01 
       2.005922709503e-01       3.505467543755e-01 
       2.073002914972e-01       3.280441897625e-01 
       2.142326570816e-01       3.042141398236e-01 
       2.213969417533e-01       2.816117305916e-01 
       2.288010639706e-01       2.622573872876e-01 
       2.364533437147e-01       2.469623536957e-01 
       2.443625682930e-01       2.350129188812e-01 
       2.525380679504e-01       2.244181981691e-01 
       2.609898026346e-01       2.130941415602e-01 
       2.697284615565e-01       2.001012674227e-01 
       2.787655775689e-01       1.860192172007e-01 
       2.881136588829e-01       1.725175192543e-01 
       2.977863412677e-01       1.610660515979e-01 
       3.077985646929e-01       1.517612016143e-01 
       3.181667794071e-01       1.435598472384e-01 
       3.289091877812e-01       1.351816635419e-01 
       3.400460299658e-01       1.261642884620e-01 
       3.515999236474e-01       1.172020529648e-01 
       3.635962711085e-01       1.091769067045e-01 
       3.760637506334e-01       1.023094176105e-01 
       3.890349143879e-01       9.593760112480e-02 
       4.025469216825e-01       8.950759312554e-02 
       4.166424456376e-01       8.311161606109e-02 
       4.313708035863e-01       7.721546564552e-02 
       4.467893782977e-01       7.190066072217e-02 
       4.629654199664e-01       6.686917094185e-02 
       4.799783501994e-01       6.191759869089e-02 
       4.979227319373e-01       5.722234864609e-02 
       5.169121270864e-01       5.290292628331e-02 
       5.370841404489e-01       4.876971240410e-02 
       5.586070464571e-01       4.479095423199e-02 
       5.816885094930e-01       4.105197868402e-02 
       6.065870144995e-01       3.748990093425e-02 
       6.336266468475e-01       3.407638216280e-02 
       6.632156059511e-01       3.083459809874e-02 
       6.958678639263e-01       2.772842535276e-02 
       7.322247985589e-01       2.476713272534e-02 
       7.730680195114e-01       2.193959213177e-02 
       8.193049553677e-01       1.925613436127e-02 
       8.718988016039e-01       1.672925040953e-02 
       9.317218031082e-01       1.438425959170e-02 
       9.993660908989e-01       1.225071721099e-02 
       1.075037110174e+00       1.035262703860e-02 
       1.158653485707e+00       8.699710298779e-03 
       1.250099157308e+00       7.284600487188e-03 
       1.349432401273e+00       6.085452037340e-03 
       1.456947457397e+00       5.075721015986e-03 
       1.573135111331e+00       4.228313015593e-03 
       1.698621895592e+00       3.518543882977e-03 
       1.834127512934e+00       2.924984911755e-03 
       1.980444934528e+00       2.429171200708e-03 
       2.138435191726e+00       2.015515124186e-03 
       2.309029199186e+00       1.670777780865e-03 
       2.493232377687e+00       1.383798591433e-03 
       2.692130395285e+00       1.145129335377e-03 
       2.906895534573e+00       9.468629478219e-04 
       3.138793597714e+00       7.822883406886e-04 
       3.389191366484e+00       6.458230477852e-04 
       3.659564657905e+00       5.327693610585e-04 
       3.951507022538e+00       4.391857188109e-04 
       4.266739136701e+00       3.617900204004e-04 
       4.607118943941e+00       2.978282230384e-04 
       4.974652605557e+00       2.450138529133e-04 
       5.371506324689e+00       2.014355533144e-04 
       5.800019113685e+00       1.655074698752e-04 
       6.262716579983e+00       1.359038831105e-04 
       6.762325811764e+00       1.115296931342e-04 
       7.301791451110e+00       9.147546330122e-05 
       7.884293049406e+00       7.498611509452e-05 
       8.513263807261e+00       6.143670296231e-05 
       9.192410809424e+00       5.030825920936e-05 
       9.925736873929e+00       4.117510653809e-05 
       1.071756414427e+01       3.368334607941e-05 
       1.157255956364e+01       2.754146655055e-05 
       1.249576238137e+01       2.250891558460e-05 
       1.349261385375e+01       1.838766426432e-05 
       1.456898931416e+01       1.501414376695e-05 
       1.573123280165e+01       1.225433041174e-05 
       1.698619445202e+01       9.997590159652e-06 
       1.834127087176e+01       8.153122769958e-06 
       1.980444873285e+01       6.646221990456e-06 
       2.138435184532e+01       5.415744433979e-06 
       2.309029198506e+01       4.411331109441e-06 
       2.493232377636e+01       3.591875914694e-06 
       2.692130395282e+01       2.923537673949e-06 
       2.906895534573e+01       2.378740287605e-06 
       3.138793597714e+01       1.934757001492e-06 
       3.389191366484e+01       1.573110764669e-06 
       3.659564657905e+01       1.278615316863e-06 
       3.951507022538e+01       1.038904165211e-06 
       4.266739136701e+01       8.438600349362e-07 
       4.607118943941e+01       6.851990221348e-07 
       4.974652605557e+01       5.562039256488e-07 
       5.371506324689e+01       4.513403177449e-07 
       5.800019113685e+01       3.661275416382e-07 
       6.262716579983e+01       2.969088178567e-07 
       6.762325811764e+01       2.407035178690e-07 
