# Matter power spectrum P(k) at redshift z=0
# for k=1.04775e-05 to 134.926 h/Mpc,
# number of wavenumbers equal to 255
#    1:k (h/Mpc)              2:P (Mpc/h)^3        
       1.047750691338e-05       5.020963906804e+01 
       1.131335172818e-05       5.407048937146e+01 
       1.221587619877e-05       5.822820724030e+01 
       1.319039970550e-05       6.270562047232e+01 
       1.424266598317e-05       6.752731476097e+01 
       1.537887697396e-05       7.271975715396e+01 
       1.660572938097e-05       7.831147101240e+01 
       1.793045413791e-05       8.433312302123e+01 
       1.936085902737e-05       9.081780130647e+01 
       2.090537469909e-05       9.780107394631e+01 
       2.257310435923e-05       1.053212938596e+02 
       2.437387742372e-05       1.134197268469e+02 
       2.631830745176e-05       1.221408285621e+02 
       2.841785470091e-05       1.315324590474e+02 
       3.068489367268e-05       1.416461671358e+02 
       3.313278604643e-05       1.525374478890e+02 
       3.577595943165e-05       1.642660517256e+02 
       3.862999240274e-05       1.768963429388e+02 
       4.171170631739e-05       1.904975997803e+02 
       4.503926445983e-05       2.051444243234e+02 
       4.863227909323e-05       2.209171412050e+02 
       5.251192705226e-05       2.379022266143e+02 
       5.670107455699e-05       2.561927841239e+02 
       6.122441198393e-05       2.758890479666e+02 
       6.610859938837e-05       2.970989213978e+02 
       7.138242363583e-05       3.199385559931e+02 
       7.707696806873e-05       3.445329727006e+02 
       8.322579570814e-05       3.710167324011e+02 
       8.986514707061e-05       3.995346444121e+02 
       9.703415376577e-05       4.302425389350e+02 
       1.047750691338e-04       4.633080773457e+02 
       1.131335172818e-04       4.989116272172e+02 
       1.221587619877e-04       5.372471938768e+02 
       1.319039970550e-04       5.785234116624e+02 
       1.424266598317e-04       6.229645933504e+02 
       1.537887697396e-04       6.708118487340e+02 
       1.660572938097e-04       7.223242657887e+02 
       1.793045413791e-04       7.777801571056e+02 
       1.936085902737e-04       8.374783640699e+02 
       2.090537469909e-04       9.017396292414e+02 
       2.257310435923e-04       9.709080297654e+02 
       2.437387742372e-04       1.045352453369e+03 
       2.631830745176e-04       1.125468127208e+03 
       2.841785470091e-04       1.211678185931e+03 
       3.068489367268e-04       1.304435256060e+03 
       3.313278604643e-04       1.404223062923e+03 
       3.577595943165e-04       1.511558029577e+03 
       3.862999240274e-04       1.626990852555e+03 
       4.171170631739e-04       1.751108045602e+03 
       4.503926445983e-04       1.884533404754e+03 
       4.863227909323e-04       2.027929406956e+03 
       5.251192705226e-04       2.181998483913e+03 
       5.670107455699e-04       2.347484146065e+03 
       6.122441198393e-04       2.525171925195e+03 
       6.610859938837e-04       2.715890054977e+03 
       7.138242363583e-04       2.920509779318e+03 
       7.707696806873e-04       3.139945208048e+03 
       8.322579570814e-04       3.375152477013e+03 
       8.986514707061e-04       3.627128020454e+03 
       9.703415376577e-04       3.896905669495e+03 
       1.047750691338e-03       4.185552452598e+03 
       1.131335172818e-03       4.494162775548e+03 
       1.221587619877e-03       4.823851150559e+03 
       1.319039970550e-03       5.175743278660e+03 
       1.424266598317e-03       5.551020298604e+03 
       1.537887697396e-03       5.950789185305e+03 
       1.660572938097e-03       6.376124149849e+03 
       1.793045413791e-03       6.828075236263e+03 
       1.936085902737e-03       7.307627050536e+03 
       2.090537469909e-03       7.815673958234e+03 
       2.257310435923e-03       8.352992921696e+03 
       2.437387742372e-03       8.920214304329e+03 
       2.631830745176e-03       9.517787163581e+03 
       2.841785470091e-03       1.014594130187e+04 
       3.068489367268e-03       1.080465135737e+04 
       3.313278604643e-03       1.149358238366e+04 
       3.577595943165e-03       1.221204585128e+04 
       3.862999240274e-03       1.295893783278e+04 
       4.171170631739e-03       1.373267497521e+04 
       4.503926445983e-03       1.453113662629e+04 
       4.863227909323e-03       1.535157132009e+04 
       5.251192705226e-03       1.619066209409e+04 
       5.670107455699e-03       1.704433772473e+04 
       6.122441198393e-03       1.790758055008e+04 
       6.610859938837e-03       1.877462377548e+04 
       7.138242363583e-03       1.963874361241e+04 
       7.707696806873e-03       2.049217227433e+04 
       8.322579570814e-03       2.132608623965e+04 
       8.986514707061e-03       2.213056720571e+04 
       9.703415376577e-03       2.289446978905e+04 
       1.047750691338e-02       2.360549131205e+04 
       1.131335172818e-02       2.425023597552e+04 
       1.221587619877e-02       2.481423959392e+04 
       1.319039970550e-02       2.528218948736e+04 
       1.424266598317e-02       2.563813734589e+04 
       1.537887697392e-02       2.586605613776e+04 
       1.660572938023e-02       2.595024328777e+04 
       1.793045412706e-02       2.587631744153e+04 
       1.936085890181e-02       2.563214548296e+04 
       2.090537352463e-02       2.520929159705e+04 
       2.257309535333e-02       2.460436064499e+04 
       2.437382002918e-02       2.382076412429e+04 
       2.631799944462e-02       2.287028597684e+04 
       2.841644545389e-02       2.177430009749e+04 
       3.067933355377e-02       2.056529280751e+04 
       3.311368470740e-02       1.928696275663e+04 
       3.571840443502e-02       1.799359760206e+04 
       3.847720348444e-02       1.674631525448e+04 
       4.135335538431e-02       1.560397356068e+04 
       4.429361667738e-02       1.460963961384e+04 
       4.724366439141e-02       1.377967213528e+04 
       5.016480835311e-02       1.310407148638e+04 
       5.303989620246e-02       1.255602200654e+04 
       5.586870669566e-02       1.210293564550e+04 
       5.866042680613e-02       1.171318940929e+04 
       6.142798932958e-02       1.135883505451e+04 
       6.418496440164e-02       1.101676036028e+04 
       6.694418833788e-02       1.066869224483e+04 
       6.971731106057e-02       1.030139004671e+04 
       7.251476155766e-02       9.906607334450e+03 
       7.534587671527e-02       9.481170410259e+03 
       7.821907666265e-02       9.026667491034e+03 
       8.114203772912e-02       8.549275233864e+03 
       8.412184535029e-02       8.058677357531e+03 
       8.716512279304e-02       7.567252159875e+03 
       9.027813695930e-02       7.088741656566e+03 
       9.346688431697e-02       6.636485267792e+03 
       9.673716028276e-02       6.222433526535e+03 
       1.000946150830e-01       5.855400995931e+03 
       1.035447986537e-01       5.540418395801e+03 
       1.070931966762e-01       5.278005228203e+03 
       1.107452594425e-01       5.063972876532e+03 
       1.145064249153e-01       4.889445334224e+03 
       1.183821370918e-01       4.741644209115e+03 
       1.223778605862e-01       4.605141521841e+03 
       1.264990921987e-01       4.463597228807e+03 
       1.307513701367e-01       4.302805068219e+03 
       1.351402814784e-01       4.113475024138e+03 
       1.396714684203e-01       3.893711668023e+03 
       1.443506338194e-01       3.649840501338e+03 
       1.491835465229e-01       3.395257814065e+03 
       1.541760469708e-01       3.147016498858e+03 
       1.593340535561e-01       2.921876241587e+03 
       1.646635702297e-01       2.731786219202e+03 
       1.701706958456e-01       2.581131422654e+03 
       1.758616357459e-01       2.465517133435e+03 
       1.817427160982e-01       2.372789476418e+03 
       1.878204015065e-01       2.287261565133e+03 
       1.941013164283e-01       2.191950127822e+03 
       2.005922709503e-01       2.076333139851e+03 
       2.073002914972e-01       1.941353349401e+03 
       2.142326570816e-01       1.798483667098e+03 
       2.213969417533e-01       1.662986573751e+03 
       2.288010639706e-01       1.546879976451e+03 
       2.364533437147e-01       1.454971253631e+03 
       2.443625682930e-01       1.382951822087e+03 
       2.525380679504e-01       1.318950864384e+03 
       2.609898026346e-01       1.250560704613e+03 
       2.697284615565e-01       1.172225621727e+03 
       2.787655775689e-01       1.087434500856e+03 
       2.881136588829e-01       1.006124272890e+03 
       2.977863412677e-01       9.370098296084e+02 
       3.077985646929e-01       8.806172497420e+02 
       3.181667794071e-01       8.307420286717e+02 
       3.289091877812e-01       7.798147187795e+02 
       3.400460299658e-01       7.251303777925e+02 
       3.515999236474e-01       6.708116114932e+02 
       3.635962711085e-01       6.220446630007e+02 
       3.760637506334e-01       5.801048205868e+02 
       3.890349143879e-01       5.410869351743e+02 
       4.025469216825e-01       5.017636010812e+02 
       4.166424456376e-01       4.626850652365e+02 
       4.313708035863e-01       4.265686128001e+02 
       4.467893782977e-01       3.938669696786e+02 
       4.629654199664e-01       3.628497917511e+02 
       4.799783501994e-01       3.323588411062e+02 
       4.979227319373e-01       3.034055122234e+02 
       5.169121270864e-01       2.766666697627e+02 
       5.370841404489e-01       2.510617438243e+02 
       5.586070464571e-01       2.264165864685e+02 
       5.816885094930e-01       2.032122178347e+02 
       6.065870144995e-01       1.810995758914e+02 
       6.336266468475e-01       1.599311713736e+02 
       6.632156059511e-01       1.398445943613e+02 
       6.958678639263e-01       1.206653238484e+02 
       7.322247985589e-01       1.024685312738e+02 
       7.730680195114e-01       8.524660601096e+01 
       8.193049553677e-01       6.912118801397e+01 
       8.718988016039e-01       5.425395572754e+01 
       9.317218031082e-01       4.089591660403e+01 
       9.993660908989e-01       2.932250405698e+01 
       1.075037110174e+00       1.975438088462e+01 
       1.158653485707e+00       1.227798433507e+01 
       1.250099157308e+00       6.820818222232e+00 
       1.349432401273e+00       3.173258908296e+00 
       1.456947457397e+00       1.050596868605e+00 
       1.573135111331e+00       1.244567957326e-01 
       1.698621895592e+00       5.068577756503e-02 
       1.834127512934e+00       4.887745804363e-01 
       1.980444934528e+00       1.126078044362e+00 
       2.138435191726e+00       1.703327114262e+00 
       2.309029199186e+00       2.039665869894e+00 
       2.493232377687e+00       2.056076627464e+00 
       2.692130395285e+00       1.773663458708e+00 
       2.906895534573e+00       1.296464652716e+00 
       3.138793597714e+00       7.716787709033e-01 
       3.389191366484e+00       3.387154370394e-01 
       3.659564657905e+00       8.057367537943e-02 
       3.951507022538e+00       3.353028757903e-04 
       4.266739136701e+00       3.429076813113e-02 
       4.607118943941e+00       9.335277285425e-02 
       4.974652605557e+00       1.146437966890e-01 
       5.371506324689e+00       8.587883112107e-02 
       5.800019113685e+00       3.840970597545e-02 
       6.262716579983e+00       6.591422971146e-03 
       6.762325811764e+00       3.648501560242e-04 
       7.301791451110e+00       6.042114649408e-03 
       7.884293049406e+00       7.663066283296e-03 
       8.513263807261e+00       3.694679344473e-03 
       9.192410809424e+00       3.404078394650e-04 
       9.925736873929e+00       1.739307296892e-04 
       1.071756414427e+01       6.396701633654e-04 
       1.157255956364e+01       3.713675862258e-04 
       1.249576238137e+01       7.598424911767e-06 
       1.349261385375e+01       4.615764595969e-05 
       1.456898931416e+01       4.104323610541e-05 
       1.573123280165e+01       2.190989984660e-05 
       1.698619445202e+01       3.122081456114e-06 
       1.834127087176e+01       1.843598485028e-05 
       1.980444873285e+01       1.909061751762e-06 
       2.138435184532e+01       1.959617535233e-05 
       2.309029198506e+01       7.756849059300e-06 
       2.493232377636e+01       2.563846905159e-05 
       2.692130395282e+01       9.369365555603e-05 
       2.906895534573e+01       8.537517763426e-06 
       3.138793597714e+01       1.281061102514e-04 
       3.389191366484e+01       3.217881743508e-07 
       3.659564657905e+01       6.253542051581e-05 
       3.951507022538e+01       8.155934832744e-05 
       4.266739136701e+01       4.659417515495e-05 
       4.607118943941e+01       8.402892842779e-06 
       4.974652605557e+01       1.686783026967e-06 
       5.371506324689e+01       1.652957782873e-04 
       5.800019113685e+01       2.373332326619e-04 
       6.262716579983e+01       2.879500106255e-04 
       6.762325811764e+01       1.888991721449e-04 
       7.301791451110e+01       1.341416602744e-03 
       7.884293049406e+01       1.379200228308e-05 
       8.513263807261e+01       8.293040344048e-05 
       9.192410809424e+01       2.339209586259e-04 
       9.925736873929e+01       1.817104020317e-04 
       1.071756414427e+02       9.047732841479e-04 
       1.157255956364e+02       5.575946637485e-05 
       1.249576238137e+02       4.698728304790e-05 
       1.349261385375e+02       1.371050551560e-08 
