# Matter power spectrum P(k) at redshift z=99
# for k=1.04775e-05 to 67.6233 h/Mpc,
# number of wavenumbers equal to 246
#    1:k (h/Mpc)              2:P (Mpc/h)^3        
       1.047750691338e-05       7.261927673119e-03 
       1.131335172818e-05       7.820331745737e-03 
       1.221587619877e-05       8.421675986488e-03 
       1.319039970550e-05       9.069258192194e-03 
       1.424266598317e-05       9.766638404421e-03 
       1.537887697396e-05       1.051764069682e-02 
       1.660572938097e-05       1.132639105520e-02 
       1.793045413791e-05       1.219733231416e-02 
       1.936085902737e-05       1.313524224380e-02 
       2.090537469909e-05       1.414527121893e-02 
       2.257310435923e-05       1.523296272192e-02 
       2.437387742372e-05       1.640429444530e-02 
       2.631830745176e-05       1.766569582178e-02 
       2.841785470091e-05       1.902408601793e-02 
       3.068489367268e-05       2.048692970591e-02 
       3.313278604643e-05       2.206225513594e-02 
       3.577595943165e-05       2.375870704909e-02 
       3.862999240274e-05       2.558560727479e-02 
       4.171170631739e-05       2.755297763344e-02 
       4.503926445983e-05       2.967161927314e-02 
       4.863227909323e-05       3.195316450832e-02 
       5.251192705226e-05       3.441013519284e-02 
       5.670107455699e-05       3.705601722528e-02 
       6.122441198393e-05       3.990533413559e-02 
       6.610859938837e-05       4.297372168203e-02 
       7.138242363583e-05       4.627802141688e-02 
       7.707696806873e-05       4.983636194159e-02 
       8.322579570814e-05       5.366826847231e-02 
       8.986514707061e-05       5.779476394568e-02 
       9.703415376577e-05       6.223848243885e-02 
       1.047750691338e-04       6.702379865640e-02 
       1.131335172818e-04       7.217695153381e-02 
       1.221587619877e-04       7.772619073572e-02 
       1.319039970550e-04       8.370193432376e-02 
       1.424266598317e-04       9.013692507547e-02 
       1.537887697396e-04       9.706641242570e-02 
       1.660572938097e-04       1.045283354271e-01 
       1.793045413791e-04       1.125635349068e-01 
       1.936085902737e-04       1.212159614968e-01 
       2.090537469909e-04       1.305329132714e-01 
       2.257310435923e-04       1.405652846215e-01 
       2.437387742372e-04       1.513678302540e-01 
       2.631830745176e-04       1.629994504870e-01 
       2.841785470091e-04       1.755234921224e-01 
       3.068489367268e-04       1.890080670413e-01 
       3.313278604643e-04       2.035264002435e-01 
       3.577595943165e-04       2.191571803681e-01 
       3.862999240274e-04       2.359849437592e-01 
       4.171170631739e-04       2.541004741539e-01 
       4.503926445983e-04       2.736012080277e-01 
       4.863227909323e-04       2.945916790965e-01 
       5.251192705226e-04       3.171839525183e-01 
       5.670107455699e-04       3.414980764002e-01 
       6.122441198393e-04       3.676625413100e-01 
       6.610859938837e-04       3.958147252304e-01 
       7.138242363583e-04       4.261013284915e-01 
       7.707696806873e-04       4.586787792351e-01 
       8.322579570814e-04       4.937136001356e-01 
       8.986514707061e-04       5.313826801402e-01 
       9.703415376577e-04       5.718734972157e-01 
       1.047750691338e-03       6.153841629505e-01 
       1.131335172818e-03       6.621233239465e-01 
       1.221587619877e-03       7.123098220425e-01 
       1.319039970550e-03       7.661720584803e-01 
       1.424266598317e-03       8.239546297732e-01 
       1.537887697396e-03       8.859011173466e-01 
       1.660572938097e-03       9.522588006420e-01 
       1.793045413791e-03       1.023280099819e+00 
       1.936085902737e-03       1.099216304579e+00 
       2.090537469909e-03       1.180312990454e+00 
       2.257310435923e-03       1.266804115851e+00 
       2.437387742372e-03       1.358904853405e+00 
       2.631830745176e-03       1.456802683156e+00 
       2.841785470091e-03       1.560646890522e+00 
       3.068489367268e-03       1.670536062499e+00 
       3.313278604643e-03       1.786503852158e+00 
       3.577595943165e-03       1.908502930790e+00 
       3.862999240274e-03       2.036387730709e+00 
       4.171170631739e-03       2.169896178680e+00 
       4.503926445983e-03       2.308631878994e+00 
       4.863227909323e-03       2.452047290962e+00 
       5.251192705226e-03       2.599430628087e+00 
       5.670107455699e-03       2.749896931830e+00 
       6.122441198393e-03       2.902386513383e+00 
       6.610859938837e-03       3.055668638976e+00 
       7.138242363583e-03       3.208356461542e+00 
       7.707696806873e-03       3.358923892638e+00 
       8.322579570814e-03       3.505724917806e+00 
       8.986514707061e-03       3.647009764492e+00 
       9.703415376577e-03       3.780923304299e+00 
       1.047750691338e-02       3.905490582853e+00 
       1.131335172818e-02       4.018587641164e+00 
       1.221587619877e-02       4.117901586193e+00 
       1.319039970550e-02       4.200915406894e+00 
       1.424266598317e-02       4.264942200645e+00 
       1.537887697392e-02       4.307217911577e+00 
       1.660572938023e-02       4.325060452979e+00 
       1.793045412706e-02       4.316060117866e+00 
       1.936085890181e-02       4.278224284417e+00 
       2.090537352463e-02       4.210201372308e+00 
       2.257309535333e-02       4.111420534997e+00 
       2.437382002918e-02       3.982421442041e+00 
       2.631799944462e-02       3.825166909740e+00 
       2.841644545389e-02       3.643277891378e+00 
       3.067933355377e-02       3.442201132914e+00 
       3.311368470740e-02       3.229242540936e+00 
       3.571840443502e-02       3.013506677246e+00 
       3.847720348444e-02       2.805279095402e+00 
       4.135335538431e-02       2.614407275397e+00 
       4.429361667738e-02       2.448136399344e+00 
       4.724366439141e-02       2.309236430616e+00 
       5.016480835311e-02       2.196114174033e+00 
       5.303989620246e-02       2.104365512006e+00 
       5.586870669566e-02       2.028466148203e+00 
       5.866042680613e-02       1.963155567236e+00 
       6.142798932958e-02       1.903779427196e+00 
       6.418496440164e-02       1.846475009768e+00 
       6.694418833788e-02       1.788198029836e+00 
       6.971731106057e-02       1.726715777623e+00 
       7.251476155766e-02       1.660656508310e+00 
       7.534587671527e-02       1.589469143619e+00 
       7.821907666265e-02       1.513438514947e+00 
       8.114203772912e-02       1.433570615613e+00 
       8.412184535029e-02       1.351493232334e+00 
       8.716512279304e-02       1.269272305380e+00 
       9.027813695930e-02       1.189190313992e+00 
       9.346688431697e-02       1.113501591762e+00 
       9.673716028276e-02       1.044174489424e+00 
       1.000946150830e-01       9.827075220479e-01 
       1.035447986537e-01       9.299361805414e-01 
       1.070931966762e-01       8.859596900740e-01 
       1.107452594425e-01       8.500685499583e-01 
       1.145064249153e-01       8.208029950066e-01 
       1.183821370918e-01       7.960248030960e-01 
       1.223778605862e-01       7.731453309062e-01 
       1.264990921987e-01       7.494527845298e-01 
       1.307513701367e-01       7.225585444330e-01 
       1.351402814784e-01       6.909094564319e-01 
       1.396714684203e-01       6.541802249761e-01 
       1.443506338194e-01       6.134260854235e-01 
       1.491835465229e-01       5.708679813961e-01 
       1.541760469708e-01       5.293630402398e-01 
       1.593340535561e-01       4.917111183402e-01 
       1.646635702297e-01       4.599200566304e-01 
       1.701706958456e-01       4.347297167759e-01 
       1.758616357459e-01       4.154088985762e-01 
       1.817427160982e-01       3.999370846050e-01 
       1.878204015065e-01       3.856827643195e-01 
       1.941013164283e-01       3.698099803073e-01 
       2.005922709503e-01       3.505466936514e-01 
       2.073002914972e-01       3.280426118628e-01 
       2.142326570816e-01       3.042141655719e-01 
       2.213969417533e-01       2.816119314823e-01 
       2.288010639706e-01       2.622569031793e-01 
       2.364533437147e-01       2.469623292024e-01 
       2.443625682930e-01       2.350128738983e-01 
       2.525380679504e-01       2.244171288869e-01 
       2.609898026346e-01       2.130940789402e-01 
       2.697284615565e-01       2.001017105723e-01 
       2.787655775689e-01       1.860196974931e-01 
       2.881136588829e-01       1.725173115669e-01 
       2.977863412677e-01       1.610660255021e-01 
       3.077985646929e-01       1.517611392314e-01 
       3.181667794071e-01       1.435595023682e-01 
       3.289091877812e-01       1.351812074460e-01 
       3.400460299658e-01       1.261641786758e-01 
       3.515999236474e-01       1.172019958400e-01 
       3.635962711085e-01       1.091767497992e-01 
       3.760637506334e-01       1.023095426588e-01 
       3.890349143879e-01       9.593763987741e-02 
       4.025469216825e-01       8.950757379685e-02 
       4.166424456376e-01       8.311179293594e-02 
       4.313708035863e-01       7.721537531209e-02 
       4.467893782977e-01       7.190064739740e-02 
       4.629654199664e-01       6.686871217224e-02 
       4.799783501994e-01       6.191735141862e-02 
       4.979227319373e-01       5.722202605200e-02 
       5.169121270864e-01       5.290279433909e-02 
       5.370841404489e-01       4.876971043667e-02 
       5.586070464571e-01       4.479066968000e-02 
       5.816885094930e-01       4.105174720605e-02 
       6.065870144995e-01       3.748975841044e-02 
       6.336266468475e-01       3.407607430834e-02 
       6.632156059511e-01       3.083435330541e-02 
       6.958678639263e-01       2.772801766896e-02 
       7.322247985589e-01       2.476670478939e-02 
       7.730680195114e-01       2.193923923900e-02 
       8.193049553677e-01       1.925577247595e-02 
       8.718988016039e-01       1.672893189365e-02 
       9.317218031082e-01       1.438375442955e-02 
       9.993660908989e-01       1.225021681553e-02 
       1.075037110174e+00       1.035209822484e-02 
       1.158653485707e+00       8.699135485159e-03 
       1.250099157308e+00       7.283998565776e-03 
       1.349432401273e+00       6.084796957457e-03 
       1.456947457397e+00       5.075002524279e-03 
       1.573135111331e+00       4.227525974383e-03 
       1.698621895592e+00       3.517717867291e-03 
       1.834127512934e+00       2.924061316599e-03 
       1.980444934528e+00       2.428175083370e-03 
       2.138435191726e+00       2.014432703002e-03 
       2.309029199186e+00       1.669610287728e-03 
       2.493232377687e+00       1.382549867428e-03 
       2.692130395285e+00       1.143793686902e-03 
       2.906895534573e+00       9.454128292402e-04 
       3.138793597714e+00       7.807431144104e-04 
       3.389191366484e+00       6.441645565981e-04 
       3.659564657905e+00       5.309914583481e-04 
       3.951507022538e+00       4.372882128353e-04 
       4.266739136701e+00       3.597594057016e-04 
       4.607118943941e+00       2.956656403868e-04 
       4.974652605557e+00       2.427133658979e-04 
       5.371506324689e+00       1.989932668612e-04 
       5.800019113685e+00       1.629170718170e-04 
       6.262716579983e+00       1.331639653074e-04 
       6.762325811764e+00       1.086387890920e-04 
       7.301791451110e+00       8.843128258598e-05 
       7.884293049406e+00       7.178932039603e-05 
       8.513263807261e+00       5.809072635403e-05 
       9.192410809424e+00       4.681865798992e-05 
       9.925736873929e+00       3.754897176764e-05 
       1.071756414427e+01       2.993250225981e-05 
       1.157255956364e+01       2.368097309885e-05 
       1.249576238137e+01       1.855821493700e-05 
       1.349261385375e+01       1.437144864493e-05 
       1.456898931416e+01       1.096238237950e-05 
       1.573123280165e+01       8.202405116797e-06 
       1.698619445202e+01       5.986915689762e-06 
       1.834127087176e+01       4.230037861845e-06 
       1.980444873285e+01       2.861822189612e-06 
       2.138435184532e+01       1.823640804240e-06 
       2.309029198506e+01       1.065782170109e-06 
       2.493232377636e+01       5.443271868029e-07 
       2.692130395282e+01       2.187077753275e-07 
       2.906895534573e+01       5.009060431007e-08 
       3.138793597714e+01       7.478006938531e-11 
       3.389191366484e+01       3.058443924453e-08 
       3.659564657905e+01       1.047451963075e-07 
       3.951507022538e+01       1.889139823340e-07 
       4.266739136701e+01       2.555642933440e-07 
       4.607118943941e+01       2.864312580931e-07 
       4.974652605557e+01       2.749211327941e-07 
       5.371506324689e+01       2.266443257085e-07 
       5.800019113685e+01       1.570805765269e-07 
       6.262716579983e+01       8.643498549955e-08 
       6.762325811764e+01       3.257820937098e-08 
