# Matter power spectrum P(k) at redshift z=99
# for k=1.04775e-05 to 134.926 h/Mpc,
# number of wavenumbers equal to 255
#    1:k (h/Mpc)              2:P (Mpc/h)^3        
       1.047750691338e-05       7.261927096236e-03 
       1.131335172818e-05       7.820332151780e-03 
       1.221587619877e-05       8.421675383433e-03 
       1.319039970550e-05       9.069257739191e-03 
       1.424266598317e-05       9.766636452405e-03 
       1.537887697396e-05       1.051763973779e-02 
       1.660572938097e-05       1.132639250900e-02 
       1.793045413791e-05       1.219733201669e-02 
       1.936085902737e-05       1.313524187375e-02 
       2.090537469909e-05       1.414527085163e-02 
       2.257310435923e-05       1.523296544693e-02 
       2.437387742372e-05       1.640429654857e-02 
       2.631830745176e-05       1.766569603519e-02 
       2.841785470091e-05       1.902408711414e-02 
       3.068489367268e-05       2.048692967715e-02 
       3.313278604643e-05       2.206225467841e-02 
       3.577595943165e-05       2.375870884167e-02 
       3.862999240274e-05       2.558560670162e-02 
       4.171170631739e-05       2.755297672873e-02 
       4.503926445983e-05       2.967161933807e-02 
       4.863227909323e-05       3.195316456080e-02 
       5.251192705226e-05       3.441013466591e-02 
       5.670107455699e-05       3.705601742195e-02 
       6.122441198393e-05       3.990533413366e-02 
       6.610859938837e-05       4.297372243103e-02 
       7.138242363583e-05       4.627802055465e-02 
       7.707696806873e-05       4.983636160550e-02 
       8.322579570814e-05       5.366826787644e-02 
       8.986514707061e-05       5.779476320499e-02 
       9.703415376577e-05       6.223848222660e-02 
       1.047750691338e-04       6.702379825908e-02 
       1.131335172818e-04       7.217695032034e-02 
       1.221587619877e-04       7.772619031390e-02 
       1.319039970550e-04       8.370193381146e-02 
       1.424266598317e-04       9.013692507858e-02 
       1.537887697396e-04       9.706641131680e-02 
       1.660572938097e-04       1.045283343249e-01 
       1.793045413791e-04       1.125635329334e-01 
       1.936085902737e-04       1.212159592469e-01 
       2.090537469909e-04       1.305329107607e-01 
       2.257310435923e-04       1.405652819545e-01 
       2.437387742372e-04       1.513678275274e-01 
       2.631830745176e-04       1.629994475346e-01 
       2.841785470091e-04       1.755234890707e-01 
       3.068489367268e-04       1.890080645544e-01 
       3.313278604643e-04       2.035263977694e-01 
       3.577595943165e-04       2.191571778325e-01 
       3.862999240274e-04       2.359849423560e-01 
       4.171170631739e-04       2.541004713322e-01 
       4.503926445983e-04       2.736012061499e-01 
       4.863227909323e-04       2.945916775004e-01 
       5.251192705226e-04       3.171839508245e-01 
       5.670107455699e-04       3.414980769510e-01 
       6.122441198393e-04       3.676625416723e-01 
       6.610859938837e-04       3.958147273305e-01 
       7.138242363583e-04       4.261013332522e-01 
       7.707696806873e-04       4.586787881320e-01 
       8.322579570814e-04       4.937136113300e-01 
       8.986514707061e-04       5.313826962557e-01 
       9.703415376577e-04       5.718735177278e-01 
       1.047750691338e-03       6.153841926705e-01 
       1.131335172818e-03       6.621233623543e-01 
       1.221587619877e-03       7.123098744018e-01 
       1.319039970550e-03       7.661721264070e-01 
       1.424266598317e-03       8.239547181445e-01 
       1.537887697396e-03       8.859012282750e-01 
       1.660572938097e-03       9.522589495399e-01 
       1.793045413791e-03       1.023280284663e+00 
       1.936085902737e-03       1.099216542002e+00 
       2.090537469909e-03       1.180313284867e+00 
       2.257310435923e-03       1.266804486554e+00 
       2.437387742372e-03       1.358905328097e+00 
       2.631830745176e-03       1.456803285440e+00 
       2.841785470091e-03       1.560647662341e+00 
       3.068489367268e-03       1.670537009644e+00 
       3.313278604643e-03       1.786505038403e+00 
       3.577595943165e-03       1.908504408499e+00 
       3.862999240274e-03       2.036389466651e+00 
       4.171170631739e-03       2.169898250080e+00 
       4.503926445983e-03       2.308634488472e+00 
       4.863227909323e-03       2.452050670305e+00 
       5.251192705226e-03       2.599434675445e+00 
       5.670107455699e-03       2.749901119258e+00 
       6.122441198393e-03       2.902390049235e+00 
       6.610859938837e-03       3.055671258396e+00 
       7.138242363583e-03       3.208360108529e+00 
       7.707696806873e-03       3.358926633496e+00 
       8.322579570814e-03       3.505726867652e+00 
       8.986514707061e-03       3.647012410338e+00 
       9.703415376577e-03       3.780926145391e+00 
       1.047750691338e-02       3.905492838936e+00 
       1.131335172818e-02       4.018589774880e+00 
       1.221587619877e-02       4.117902826316e+00 
       1.319039970550e-02       4.200917624380e+00 
       1.424266598317e-02       4.264943646884e+00 
       1.537887697392e-02       4.307219558597e+00 
       1.660572938023e-02       4.325062324403e+00 
       1.793045412706e-02       4.316060232473e+00 
       1.936085890181e-02       4.278228573846e+00 
       2.090537352463e-02       4.210204247166e+00 
       2.257309535333e-02       4.111418481087e+00 
       2.437382002918e-02       3.982420621940e+00 
       2.631799944462e-02       3.825168316879e+00 
       2.841644545389e-02       3.643281820804e+00 
       3.067933355377e-02       3.442198209331e+00 
       3.311368470740e-02       3.229241020775e+00 
       3.571840443502e-02       3.013515684729e+00 
       3.847720348444e-02       2.805283209391e+00 
       4.135335538431e-02       2.614409844096e+00 
       4.429361667738e-02       2.448131265222e+00 
       4.724366439141e-02       2.309239630697e+00 
       5.016480835311e-02       2.196114074853e+00 
       5.303989620246e-02       2.104368633299e+00 
       5.586870669566e-02       2.028461258537e+00 
       5.866042680613e-02       1.963153864928e+00 
       6.142798932958e-02       1.903778147819e+00 
       6.418496440164e-02       1.846477530034e+00 
       6.694418833788e-02       1.788195676168e+00 
       6.971731106057e-02       1.726713753829e+00 
       7.251476155766e-02       1.660652337117e+00 
       7.534587671527e-02       1.589467673134e+00 
       7.821907666265e-02       1.513434268322e+00 
       8.114203772912e-02       1.433566332071e+00 
       8.412184535029e-02       1.351489705964e+00 
       8.716512279304e-02       1.269271057934e+00 
       9.027813695930e-02       1.189190368004e+00 
       9.346688431697e-02       1.113498085786e+00 
       9.673716028276e-02       1.044171384510e+00 
       1.000946150830e-01       9.827027569993e-01 
       1.035447986537e-01       9.299333539134e-01 
       1.070931966762e-01       8.859548997315e-01 
       1.107452594425e-01       8.500672723958e-01 
       1.145064249153e-01       8.207992541342e-01 
       1.183821370918e-01       7.960198885751e-01 
       1.223778605862e-01       7.731410059180e-01 
       1.264990921987e-01       7.494474829463e-01 
       1.307513701367e-01       7.225522741207e-01 
       1.351402814784e-01       6.909040144031e-01 
       1.396714684203e-01       6.541765350346e-01 
       1.443506338194e-01       6.134217290299e-01 
       1.491835465229e-01       5.708621378276e-01 
       1.541760469708e-01       5.293571970810e-01 
       1.593340535561e-01       4.917034774316e-01 
       1.646635702297e-01       4.599122921365e-01 
       1.701706958456e-01       4.347199116916e-01 
       1.758616357459e-01       4.153994209584e-01 
       1.817427160982e-01       3.999273882920e-01 
       1.878204015065e-01       3.856764853415e-01 
       1.941013164283e-01       3.698043274852e-01 
       2.005922709503e-01       3.505412974906e-01 
       2.073002914972e-01       3.280357664772e-01 
       2.142326570816e-01       3.042026899349e-01 
       2.213969417533e-01       2.816002024190e-01 
       2.288010639706e-01       2.622449805638e-01 
       2.364533437147e-01       2.469494997554e-01 
       2.443625682930e-01       2.350001091475e-01 
       2.525380679504e-01       2.244068691154e-01 
       2.609898026346e-01       2.130822920739e-01 
       2.697284615565e-01       2.000877829794e-01 
       2.787655775689e-01       1.860046086813e-01 
       2.881136588829e-01       1.725015505448e-01 
       2.977863412677e-01       1.610490783320e-01 
       3.077985646929e-01       1.517439315713e-01 
       3.181667794071e-01       1.435419764334e-01 
       3.289091877812e-01       1.351634582450e-01 
       3.400460299658e-01       1.261453198759e-01 
       3.515999236474e-01       1.171821498478e-01 
       3.635962711085e-01       1.091565120303e-01 
       3.760637506334e-01       1.022882781016e-01 
       3.890349143879e-01       9.591559405520e-02 
       4.025469216825e-01       8.948475137962e-02 
       4.166424456376e-01       8.308794896137e-02 
       4.313708035863e-01       7.719075268129e-02 
       4.467893782977e-01       7.187488638038e-02 
       4.629654199664e-01       6.684236745471e-02 
       4.799783501994e-01       6.188970027845e-02 
       4.979227319373e-01       5.719335985957e-02 
       5.169121270864e-01       5.287280582262e-02 
       5.370841404489e-01       4.873842704943e-02 
       5.586070464571e-01       4.475810968939e-02 
       5.816885094930e-01       4.101764164261e-02 
       6.065870144995e-01       3.745410359013e-02 
       6.336266468475e-01       3.403874473205e-02 
       6.632156059511e-01       3.079514041087e-02 
       6.958678639263e-01       2.768674261224e-02 
       7.322247985589e-01       2.472311869647e-02 
       7.730680195114e-01       2.189295492901e-02 
       8.193049553677e-01       1.920647307656e-02 
       8.718988016039e-01       1.667613036996e-02 
       9.317218031082e-01       1.432707375968e-02 
       9.993660908989e-01       1.218907192926e-02 
       1.075037110174e+00       1.028598305304e-02 
       1.158653485707e+00       8.627541446939e-03 
       1.250099157308e+00       7.206371593417e-03 
       1.349432401273e+00       6.000723426985e-03 
       1.456947457397e+00       4.984023142255e-03 
       1.573135111331e+00       4.129165654078e-03 
       1.698621895592e+00       3.411565333077e-03 
       1.834127512934e+00       2.809801568409e-03 
       1.980444934528e+00       2.305379254712e-03 
       2.138435191726e+00       1.882881963161e-03 
       2.309029199186e+00       1.529144187374e-03 
       2.493232377687e+00       1.233213375656e-03 
       2.692130395285e+00       9.857949400954e-04 
       2.906895534573e+00       7.792212299107e-04 
       3.138793597714e+00       6.071334665860e-04 
       3.389191366484e+00       4.643694142129e-04 
       3.659564657905e+00       3.466271562147e-04 
       3.951507022538e+00       2.505062476954e-04 
       4.266739136701e+00       1.732562020781e-04 
       4.607118943941e+00       1.126454946775e-04 
       4.974652605557e+00       6.688011621195e-05 
       5.371506324689e+00       3.433838963308e-05 
       5.800019113685e+00       1.349945226336e-05 
       6.262716579983e+00       2.699829430905e-06 
       6.762325811764e+00       4.186394422523e-08 
       7.301791451110e+00       3.316549750712e-06 
       7.884293049406e+00       1.000359137733e-05 
       8.513263807261e+00       1.743313561688e-05 
       9.192410809424e+00       2.313932077462e-05 
       9.925736873929e+00       2.533149182961e-05 
       1.071756414427e+01       2.335011698392e-05 
       1.157255956364e+01       1.785360885587e-05 
       1.249576238137e+01       1.071996544888e-05 
       1.349261385375e+01       4.395636101519e-06 
       1.456898931416e+01       7.167326887613e-07 
       1.573123280165e+01       8.978763959977e-08 
       1.698619445202e+01       1.336022069815e-06 
       1.834127087176e+01       2.515980755511e-06 
       1.980444873285e+01       2.410566263440e-06 
       2.138435184532e+01       1.283656876325e-06 
       2.309029198506e+01       2.661240842060e-07 
       2.493232377636e+01       7.547769889001e-09 
       2.692130395282e+01       1.903523274679e-07 
       2.906895534573e+01       2.297178143553e-07 
       3.138793597714e+01       7.208534837053e-08 
       3.389191366484e+01       1.774983853039e-10 
       3.659564657905e+01       1.521637034482e-08 
       3.951507022538e+01       9.982978880733e-09 
       4.266739136701e+01       1.603479844117e-10 
       4.607118943941e+01       6.480150065201e-10 
       4.974652605557e+01       8.114691833892e-11 
       5.371506324689e+01       7.766068082159e-11 
       5.800019113685e+01       1.300012285494e-11 
       6.262716579983e+01       3.431531686006e-11 
       6.762325811764e+01       1.091813874783e-11 
       7.301791451110e+01       1.489810265409e-10 
       7.884293049406e+01       2.009523559710e-12 
       8.513263807261e+01       6.677266247689e-12 
       9.192410809424e+01       8.948479014433e-12 
       9.925736873929e+01       3.072605927048e-12 
       1.071756414427e+02       3.697486912600e-14 
       1.157255956364e+02       3.222950660677e-12 
       1.249576238137e+02       2.825667553061e-11 
       1.349261385375e+02       1.147525347241e-11 
