# Matter power spectrum P(k) at redshift z=99
# for k=1.04775e-05 to 67.6233 h/Mpc,
# number of wavenumbers equal to 246
#    1:k (h/Mpc)              2:P (Mpc/h)^3        
       1.047750691338e-05       7.261927673119e-03 
       1.131335172818e-05       7.820331745737e-03 
       1.221587619877e-05       8.421675986489e-03 
       1.319039970550e-05       9.069258192194e-03 
       1.424266598317e-05       9.766638404421e-03 
       1.537887697396e-05       1.051764069682e-02 
       1.660572938097e-05       1.132639105520e-02 
       1.793045413791e-05       1.219733231416e-02 
       1.936085902737e-05       1.313524224380e-02 
       2.090537469909e-05       1.414527121893e-02 
       2.257310435923e-05       1.523296272192e-02 
       2.437387742372e-05       1.640429444530e-02 
       2.631830745176e-05       1.766569582178e-02 
       2.841785470091e-05       1.902408601793e-02 
       3.068489367268e-05       2.048692970591e-02 
       3.313278604643e-05       2.206225513594e-02 
       3.577595943165e-05       2.375870704909e-02 
       3.862999240274e-05       2.558560727479e-02 
       4.171170631739e-05       2.755297763344e-02 
       4.503926445983e-05       2.967161927315e-02 
       4.863227909323e-05       3.195316450832e-02 
       5.251192705226e-05       3.441013519284e-02 
       5.670107455699e-05       3.705601722525e-02 
       6.122441198393e-05       3.990533413563e-02 
       6.610859938837e-05       4.297372168203e-02 
       7.138242363583e-05       4.627802141688e-02 
       7.707696806873e-05       4.983636194159e-02 
       8.322579570814e-05       5.366826847231e-02 
       8.986514707061e-05       5.779476394568e-02 
       9.703415376577e-05       6.223848243885e-02 
       1.047750691338e-04       6.702379865640e-02 
       1.131335172818e-04       7.217695153381e-02 
       1.221587619877e-04       7.772619073571e-02 
       1.319039970550e-04       8.370193432376e-02 
       1.424266598317e-04       9.013692507545e-02 
       1.537887697396e-04       9.706641242570e-02 
       1.660572938097e-04       1.045283354271e-01 
       1.793045413791e-04       1.125635349068e-01 
       1.936085902737e-04       1.212159614968e-01 
       2.090537469909e-04       1.305329132714e-01 
       2.257310435923e-04       1.405652846215e-01 
       2.437387742372e-04       1.513678302540e-01 
       2.631830745176e-04       1.629994504870e-01 
       2.841785470091e-04       1.755234921224e-01 
       3.068489367268e-04       1.890080670413e-01 
       3.313278604643e-04       2.035264002435e-01 
       3.577595943165e-04       2.191571803681e-01 
       3.862999240274e-04       2.359849437593e-01 
       4.171170631739e-04       2.541004741539e-01 
       4.503926445983e-04       2.736012080277e-01 
       4.863227909323e-04       2.945916790965e-01 
       5.251192705226e-04       3.171839525183e-01 
       5.670107455699e-04       3.414980764002e-01 
       6.122441198393e-04       3.676625413100e-01 
       6.610859938837e-04       3.958147252304e-01 
       7.138242363583e-04       4.261013284917e-01 
       7.707696806873e-04       4.586787792355e-01 
       8.322579570814e-04       4.937136001342e-01 
       8.986514707061e-04       5.313826801402e-01 
       9.703415376577e-04       5.718734972157e-01 
       1.047750691338e-03       6.153841629505e-01 
       1.131335172818e-03       6.621233239465e-01 
       1.221587619877e-03       7.123098220413e-01 
       1.319039970550e-03       7.661720584742e-01 
       1.424266598317e-03       8.239546297727e-01 
       1.537887697396e-03       8.859011173466e-01 
       1.660572938097e-03       9.522588006417e-01 
       1.793045413791e-03       1.023280099819e+00 
       1.936085902737e-03       1.099216304579e+00 
       2.090537469909e-03       1.180312990453e+00 
       2.257310435923e-03       1.266804115851e+00 
       2.437387742372e-03       1.358904853405e+00 
       2.631830745176e-03       1.456802683156e+00 
       2.841785470091e-03       1.560646890522e+00 
       3.068489367268e-03       1.670536062500e+00 
       3.313278604643e-03       1.786503852157e+00 
       3.577595943165e-03       1.908502930788e+00 
       3.862999240274e-03       2.036387730709e+00 
       4.171170631739e-03       2.169896178868e+00 
       4.503926445983e-03       2.308631878994e+00 
       4.863227909323e-03       2.452047290962e+00 
       5.251192705226e-03       2.599430628088e+00 
       5.670107455699e-03       2.749896931856e+00 
       6.122441198393e-03       2.902386513385e+00 
       6.610859938837e-03       3.055668704683e+00 
       7.138242363583e-03       3.208356461548e+00 
       7.707696806873e-03       3.358923892633e+00 
       8.322579570814e-03       3.505725595377e+00 
       8.986514707061e-03       3.647009640943e+00 
       9.703415376577e-03       3.780923304257e+00 
       1.047750691338e-02       3.905491088467e+00 
       1.131335172818e-02       4.018587641103e+00 
       1.221587619877e-02       4.117901585885e+00 
       1.319039970550e-02       4.200915297156e+00 
       1.424266598317e-02       4.264941792360e+00 
       1.537887697392e-02       4.307217830422e+00 
       1.660572938023e-02       4.325063641201e+00 
       1.793045412706e-02       4.316058515162e+00 
       1.936085890181e-02       4.278229821282e+00 
       2.090537352463e-02       4.210202700347e+00 
       2.257309535333e-02       4.111421629485e+00 
       2.437382002918e-02       3.982414533401e+00 
       2.631799944462e-02       3.825167765553e+00 
       2.841644545389e-02       3.643283299005e+00 
       3.067933355377e-02       3.442195233906e+00 
       3.311368470740e-02       3.229239711634e+00 
       3.571840443502e-02       3.013513496716e+00 
       3.847720348444e-02       2.805276889121e+00 
       4.135335538431e-02       2.614409351189e+00 
       4.429361667738e-02       2.448132029650e+00 
       4.724366439141e-02       2.309239830379e+00 
       5.016480835311e-02       2.196119551167e+00 
       5.303989620246e-02       2.104369280094e+00 
       5.586870669566e-02       2.028466488859e+00 
       5.866042680613e-02       1.963155645927e+00 
       6.142798932958e-02       1.903779464343e+00 
       6.418496440164e-02       1.846476636098e+00 
       6.694418833788e-02       1.788198438026e+00 
       6.971731106057e-02       1.726713324214e+00 
       7.251476155766e-02       1.660655602782e+00 
       7.534587671527e-02       1.589474263928e+00 
       7.821907666265e-02       1.513439608612e+00 
       8.114203772912e-02       1.433570065885e+00 
       8.412184535029e-02       1.351495689097e+00 
       8.716512279304e-02       1.269272795369e+00 
       9.027813695930e-02       1.189194667659e+00 
       9.346688431697e-02       1.113502981242e+00 
       9.673716028276e-02       1.044178023228e+00 
       1.000946150830e-01       9.827040987809e-01 
       1.035447986537e-01       9.299395631616e-01 
       1.070931966762e-01       8.859596603113e-01 
       1.107452594425e-01       8.500725182021e-01 
       1.145064249153e-01       8.208020971881e-01 
       1.183821370918e-01       7.960255838075e-01 
       1.223778605862e-01       7.731468092125e-01 
       1.264990921987e-01       7.494531924563e-01 
       1.307513701367e-01       7.225571116332e-01 
       1.351402814784e-01       6.909076744145e-01 
       1.396714684203e-01       6.541816795037e-01 
       1.443506338194e-01       6.134261951380e-01 
       1.491835465229e-01       5.708683670367e-01 
       1.541760469708e-01       5.293649777761e-01 
       1.593340535561e-01       4.917108982065e-01 
       1.646635702297e-01       4.599194877641e-01 
       1.701706958456e-01       4.347287266555e-01 
       1.758616357459e-01       4.154081315803e-01 
       1.817427160982e-01       3.999370088725e-01 
       1.878204015065e-01       3.856820227271e-01 
       1.941013164283e-01       3.698089875758e-01 
       2.005922709503e-01       3.505466451994e-01 
       2.073002914972e-01       3.280433870790e-01 
       2.142326570816e-01       3.042136669854e-01 
       2.213969417533e-01       2.816121897237e-01 
       2.288010639706e-01       2.622568975733e-01 
       2.364533437147e-01       2.469619284117e-01 
       2.443625682930e-01       2.350133426342e-01 
       2.525380679504e-01       2.244181006944e-01 
       2.609898026346e-01       2.130939437216e-01 
       2.697284615565e-01       2.001019160826e-01 
       2.787655775689e-01       1.860199823670e-01 
       2.881136588829e-01       1.725178277214e-01 
       2.977863412677e-01       1.610662940904e-01 
       3.077985646929e-01       1.517609725826e-01 
       3.181667794071e-01       1.435596759370e-01 
       3.289091877812e-01       1.351816077957e-01 
       3.400460299658e-01       1.261644635977e-01 
       3.515999236474e-01       1.172021935574e-01 
       3.635962711085e-01       1.091766284566e-01 
       3.760637506334e-01       1.023094863739e-01 
       3.890349143879e-01       9.593760522558e-02 
       4.025469216825e-01       8.950817461613e-02 
       4.166424456376e-01       8.311171595073e-02 
       4.313708035863e-01       7.721556279159e-02 
       4.467893782977e-01       7.190070359907e-02 
       4.629654199664e-01       6.686906902264e-02 
       4.799783501994e-01       6.191751958688e-02 
       4.979227319373e-01       5.722220629777e-02 
       5.169121270864e-01       5.290286555302e-02 
       5.370841404489e-01       4.876968976606e-02 
       5.586070464571e-01       4.479078043743e-02 
       5.816885094930e-01       4.105193373040e-02 
       6.065870144995e-01       3.748994386321e-02 
       6.336266468475e-01       3.407632523224e-02 
       6.632156059511e-01       3.083461945109e-02 
       6.958678639263e-01       2.772823095144e-02 
       7.322247985589e-01       2.476713857426e-02 
       7.730680195114e-01       2.193957494697e-02 
       8.193049553677e-01       1.925616672553e-02 
       8.718988016039e-01       1.672929829235e-02 
       9.317218031082e-01       1.438421034445e-02 
       9.993660908989e-01       1.225062708323e-02 
       1.075037110174e+00       1.035259560267e-02 
       1.158653485707e+00       8.699736039463e-03 
       1.250099157308e+00       7.284607185203e-03 
       1.349432401273e+00       6.085465393727e-03 
       1.456947457397e+00       5.075727528819e-03 
       1.573135111331e+00       4.228295987660e-03 
       1.698621895592e+00       3.518564825307e-03 
       1.834127512934e+00       2.924989148524e-03 
       1.980444934528e+00       2.429160860550e-03 
       2.138435191726e+00       2.015502541332e-03 
       2.309029199186e+00       1.670771348936e-03 
       2.493232377687e+00       1.383789609790e-03 
       2.692130395285e+00       1.145131686393e-03 
       2.906895534573e+00       9.468561578708e-04 
       3.138793597714e+00       7.822931862006e-04 
       3.389191366484e+00       6.458246030582e-04 
       3.659564657905e+00       5.327683584559e-04 
       3.951507022538e+00       4.391891903032e-04 
       4.266739136701e+00       3.617900460842e-04 
       4.607118943941e+00       2.978282587375e-04 
       4.974652605557e+00       2.450141655033e-04 
       5.371506324689e+00       2.014377416504e-04 
       5.800019113685e+00       1.655069688378e-04 
       6.262716579983e+00       1.359039676174e-04 
       6.762325811764e+00       1.115304965224e-04 
       7.301791451110e+00       9.147623964560e-05 
       7.884293049406e+00       7.498647388112e-05 
       8.513263807261e+00       6.143630740468e-05 
       9.192410809424e+00       5.030848384755e-05 
       9.925736873929e+00       4.117503876540e-05 
       1.071756414427e+01       3.368339120165e-05 
       1.157255956364e+01       2.754153920060e-05 
       1.249576238137e+01       2.250899891079e-05 
       1.349261385375e+01       1.838768487244e-05 
       1.456898931416e+01       1.501419644903e-05 
       1.573123280165e+01       1.225435129452e-05 
       1.698619445202e+01       9.997569957301e-06 
       1.834127087176e+01       8.153101743885e-06 
       1.980444873285e+01       6.646250313653e-06 
       2.138435184532e+01       5.415738879508e-06 
       2.309029198506e+01       4.411354122786e-06 
       2.493232377636e+01       3.591884371257e-06 
       2.692130395282e+01       2.923558103986e-06 
       2.906895534573e+01       2.378744111956e-06 
       3.138793597714e+01       1.934779602581e-06 
       3.389191366484e+01       1.573114832911e-06 
       3.659564657905e+01       1.278618485679e-06 
       3.951507022538e+01       1.038902783159e-06 
       4.266739136701e+01       8.438652929087e-07 
       4.607118943941e+01       6.852136726075e-07 
       4.974652605557e+01       5.562005987036e-07 
       5.371506324689e+01       4.513442756148e-07 
       5.800019113685e+01       3.661296881499e-07 
       6.262716579983e+01       2.969096406734e-07 
       6.762325811764e+01       2.407051156528e-07 
