# Matter power spectrum P(k) at redshift z=0
# for k=1.04775e-05 to 67.6233 h/Mpc,
# number of wavenumbers equal to 246
#    1:k (h/Mpc)              2:P (Mpc/h)^3        
       1.047750691338e-05       5.020964806751e+01 
       1.131335172818e-05       5.407048206554e+01 
       1.221587619877e-05       5.822819063854e+01 
       1.319039970550e-05       6.270562589680e+01 
       1.424266598317e-05       6.752731788102e+01 
       1.537887697396e-05       7.271977200257e+01 
       1.660572938097e-05       7.831147241542e+01 
       1.793045413791e-05       8.433311815128e+01 
       1.936085902737e-05       9.081778242446e+01 
       2.090537469909e-05       9.780108061339e+01 
       2.257310435923e-05       1.053213197032e+02 
       2.437387742372e-05       1.134197377001e+02 
       2.631830745176e-05       1.221408202816e+02 
       2.841785470091e-05       1.315324720916e+02 
       3.068489367268e-05       1.416462093730e+02 
       3.313278604643e-05       1.525374500691e+02 
       3.577595943165e-05       1.642660687078e+02 
       3.862999240274e-05       1.768963504868e+02 
       4.171170631739e-05       1.904975992460e+02 
       4.503926445983e-05       2.051444490305e+02 
       4.863227909323e-05       2.209171463752e+02 
       5.251192705226e-05       2.379022222314e+02 
       5.670107455699e-05       2.561927925590e+02 
       6.122441198393e-05       2.758890441791e+02 
       6.610859938837e-05       2.970989225465e+02 
       7.138242363583e-05       3.199385558200e+02 
       7.707696806873e-05       3.445329780878e+02 
       8.322579570814e-05       3.710167315928e+02 
       8.986514707061e-05       3.995346440954e+02 
       9.703415376577e-05       4.302425403884e+02 
       1.047750691338e-04       4.633080762974e+02 
       1.131335172818e-04       4.989116267507e+02 
       1.221587619877e-04       5.372471946561e+02 
       1.319039970550e-04       5.785234124631e+02 
       1.424266598317e-04       6.229645930980e+02 
       1.537887697396e-04       6.708118484951e+02 
       1.660572938097e-04       7.223242660220e+02 
       1.793045413791e-04       7.777801554465e+02 
       1.936085902737e-04       8.374783607333e+02 
       2.090537469909e-04       9.017396264495e+02 
       2.257310435923e-04       9.709080260152e+02 
       2.437387742372e-04       1.045352448644e+03 
       2.631830745176e-04       1.125468122836e+03 
       2.841785470091e-04       1.211678179511e+03 
       3.068489367268e-04       1.304435249091e+03 
       3.313278604643e-04       1.404223052541e+03 
       3.577595943165e-04       1.511558013390e+03 
       3.862999240274e-04       1.626990836437e+03 
       4.171170631739e-04       1.751108027370e+03 
       4.503926445983e-04       1.884533381345e+03 
       4.863227909323e-04       2.027929376471e+03 
       5.251192705226e-04       2.181998446367e+03 
       5.670107455699e-04       2.347484100857e+03 
       6.122441198393e-04       2.525171869336e+03 
       6.610859938837e-04       2.715889981401e+03 
       7.138242363583e-04       2.920509686091e+03 
       7.707696806873e-04       3.139945097709e+03 
       8.322579570814e-04       3.375152334396e+03 
       8.986514707061e-04       3.627127828231e+03 
       9.703415376577e-04       3.896905450015e+03 
       1.047750691338e-03       4.185552170981e+03 
       1.131335172818e-03       4.494162426789e+03 
       1.221587619877e-03       4.823850702669e+03 
       1.319039970550e-03       5.175742740253e+03 
       1.424266598317e-03       5.551019592535e+03 
       1.537887697396e-03       5.950788335880e+03 
       1.660572938097e-03       6.376123046800e+03 
       1.793045413791e-03       6.828073896118e+03 
       1.936085902737e-03       7.307625375379e+03 
       2.090537469909e-03       7.815671864775e+03 
       2.257310435923e-03       8.352990369376e+03 
       2.437387742372e-03       8.920211057525e+03 
       2.631830745176e-03       9.517783061870e+03 
       2.841785470091e-03       1.014593703669e+04 
       3.068489367268e-03       1.080464505727e+04 
       3.313278604643e-03       1.149357459417e+04 
       3.577595943165e-03       1.221203620821e+04 
       3.862999240274e-03       1.295892538499e+04 
       4.171170631739e-03       1.373266000364e+04 
       4.503926445983e-03       1.453111834585e+04 
       4.863227909323e-03       1.535154983860e+04 
       5.251192705226e-03       1.619063611267e+04 
       5.670107455699e-03       1.704431256500e+04 
       6.122441198393e-03       1.790755939720e+04 
       6.610859938837e-03       1.877460415557e+04 
       7.138242363583e-03       1.963872433240e+04 
       7.707696806873e-03       2.049215713426e+04 
       8.322579570814e-03       2.132607247806e+04 
       8.986514707061e-03       2.213055086267e+04 
       9.703415376577e-03       2.289445487267e+04 
       1.047750691338e-02       2.360548500903e+04 
       1.131335172818e-02       2.425023324025e+04 
       1.221587619877e-02       2.481423929204e+04 
       1.319039970550e-02       2.528218905609e+04 
       1.424266598317e-02       2.563814697065e+04 
       1.537887697392e-02       2.586607829251e+04 
       1.660572938023e-02       2.595029753966e+04 
       1.793045412706e-02       2.587636784447e+04 
       1.936085890181e-02       2.563220762320e+04 
       2.090537352463e-02       2.520937481146e+04 
       2.257309535333e-02       2.460444732609e+04 
       2.437382002918e-02       2.382090238900e+04 
       2.631799944462e-02       2.287046096058e+04 
       2.841644545389e-02       2.177448648561e+04 
       3.067933355377e-02       2.056554015411e+04 
       3.311368470740e-02       1.928728729997e+04 
       3.571840443502e-02       1.799399051285e+04 
       3.847720348444e-02       1.674683176615e+04 
       4.135335538431e-02       1.560456069291e+04 
       4.429361667738e-02       1.461036894428e+04 
       4.724366439141e-02       1.378055199410e+04 
       5.016480835311e-02       1.310500403944e+04 
       5.303989620246e-02       1.255718821503e+04 
       5.586870669566e-02       1.210425824367e+04 
       5.866042680613e-02       1.171469295444e+04 
       6.142798932958e-02       1.136052425327e+04 
       6.418496440164e-02       1.101860892478e+04 
       6.694418833788e-02       1.067072863936e+04 
       6.971731106057e-02       1.030363840503e+04 
       7.251476155766e-02       9.909050463815e+03 
       7.534587671527e-02       9.483790818827e+03 
       7.821907666265e-02       9.029519463371e+03 
       8.114203772912e-02       8.552379105767e+03 
       8.412184535029e-02       8.061964245225e+03 
       8.716512279304e-02       7.570811685743e+03 
       9.027813695930e-02       7.092508705956e+03 
       9.346688431697e-02       6.640546325581e+03 
       9.673716028276e-02       6.226743315160e+03 
       1.000946150830e-01       5.859997771965e+03 
       1.035447986537e-01       5.545304977700e+03 
       1.070931966762e-01       5.283163836615e+03 
       1.107452594425e-01       5.069428725953e+03 
       1.145064249153e-01       4.895249087896e+03 
       1.183821370918e-01       4.747865033631e+03 
       1.223778605862e-01       4.611731730809e+03 
       1.264990921987e-01       4.470545936218e+03 
       1.307513701367e-01       4.310252799903e+03 
       1.351402814784e-01       4.121294066618e+03 
       1.396714684203e-01       3.902078724167e+03 
       1.443506338194e-01       3.658655552633e+03 
       1.491835465229e-01       3.404475356258e+03 
       1.541760469708e-01       3.156658687842e+03 
       1.593340535561e-01       2.931933812761e+03 
       1.646635702297e-01       2.742358801558e+03 
       1.701706958456e-01       2.592242623347e+03 
       1.758616357459e-01       2.477216762055e+03 
       1.817427160982e-01       2.385168716709e+03 
       1.878204015065e-01       2.300368435930e+03 
       1.941013164283e-01       2.205769908999e+03 
       2.005922709503e-01       2.090825878928e+03 
       2.073002914972e-01       1.956464928437e+03 
       2.142326570816e-01       1.814160411404e+03 
       2.213969417533e-01       1.679264681088e+03 
       2.288010639706e-01       1.563837291652e+03 
       2.364533437147e-01       1.472674958406e+03 
       2.443625682930e-01       1.401508112376e+03 
       2.525380679504e-01       1.338421861142e+03 
       2.609898026346e-01       1.270902057607e+03 
       2.697284615565e-01       1.193361759509e+03 
       2.787655775689e-01       1.109333444966e+03 
       2.881136588829e-01       1.028761784078e+03 
       2.977863412677e-01       9.604754070730e+02 
       3.077985646929e-01       9.050185809739e+02 
       3.181667794071e-01       8.561375568904e+02 
       3.289091877812e-01       8.061819415949e+02 
       3.400460299658e-01       7.523848630594e+02 
       3.515999236474e-01       6.989155658806e+02 
       3.635962711085e-01       6.510564911348e+02 
       3.760637506334e-01       6.101187951195e+02 
       3.890349143879e-01       5.721292124711e+02 
       4.025469216825e-01       5.337758995202e+02 
       4.166424456376e-01       4.956243768285e+02 
       4.313708035863e-01       4.604661367079e+02 
       4.467893782977e-01       4.287694930946e+02 
       4.629654199664e-01       3.987693791942e+02 
       4.799783501994e-01       3.692363467244e+02 
       4.979227319373e-01       3.412369390697e+02 
       5.169121270864e-01       3.154781440779e+02 
       5.370841404489e-01       2.908311554433e+02 
       5.586070464571e-01       2.671028688662e+02 
       5.816885094930e-01       2.448051024993e+02 
       6.065870144995e-01       2.235670477167e+02 
       6.336266468475e-01       2.032086889273e+02 
       6.632156059511e-01       1.838778754504e+02 
       6.958678639263e-01       1.653533206392e+02 
       7.322247985589e-01       1.476941575863e+02 
       7.730680195114e-01       1.308332932406e+02 
       8.193049553677e-01       1.148308217326e+02 
       8.718988016039e-01       9.976219122484e+01 
       9.317218031082e-01       8.577740885155e+01 
       9.993660908989e-01       7.305408858287e+01 
       1.075037110174e+00       6.173542043063e+01 
       1.158653485707e+00       5.187867935301e+01 
       1.250099157308e+00       4.343968927012e+01 
       1.349432401273e+00       3.628855971699e+01 
       1.456947457397e+00       3.026755386417e+01 
       1.573135111331e+00       2.521412116702e+01 
       1.698621895592e+00       2.098169014467e+01 
       1.834127512934e+00       1.744201693661e+01 
       1.980444934528e+00       1.448536695147e+01 
       2.138435191726e+00       1.201860669317e+01 
       2.309029199186e+00       9.962896263321e+00 
       2.493232377687e+00       8.251553601223e+00 
       2.692130395285e+00       6.828278695521e+00 
       2.906895534573e+00       5.645977416416e+00 
       3.138793597714e+00       4.664590558330e+00 
       3.389191366484e+00       3.850845685193e+00 
       3.659564657905e+00       3.176694094345e+00 
       3.951507022538e+00       2.618607996530e+00 
       4.266739136701e+00       2.157079607932e+00 
       4.607118943941e+00       1.775673910632e+00 
       4.974652605557e+00       1.460742220543e+00 
       5.371506324689e+00       1.200882674565e+00 
       5.800019113685e+00       9.866418920418e-01 
       6.262716579983e+00       8.101231426873e-01 
       6.762325811764e+00       6.647864135702e-01 
       7.301791451110e+00       5.452046208069e-01 
       7.884293049406e+00       4.468807508502e-01 
       8.513263807261e+00       3.660869015075e-01 
       9.192410809424e+00       2.997347166112e-01 
       9.925736873929e+00       2.452768582930e-01 
       1.071756414427e+01       2.006102562907e-01 
       1.157255956364e+01       1.639912162323e-01 
       1.249576238137e+01       1.339890891703e-01 
       1.349261385375e+01       1.094200612671e-01 
       1.456898931416e+01       8.931024088316e-02 
       1.573123280165e+01       7.286054744163e-02 
       1.698619445202e+01       5.940923809003e-02 
       1.834127087176e+01       4.841699829833e-02 
       1.980444873285e+01       3.943773790157e-02 
       2.138435184532e+01       3.210649204909e-02 
       2.309029198506e+01       2.612369167766e-02 
       2.493232377636e+01       2.124325103158e-02 
       2.692130395282e+01       1.726411937461e-02 
       2.906895534573e+01       1.402142109221e-02 
       3.138793597714e+01       1.137975438383e-02 
       3.389191366484e+01       9.228939851546e-03 
       3.659564657905e+01       7.478456072457e-03 
       3.951507022538e+01       6.054602566176e-03 
       4.266739136701e+01       4.896950673075e-03 
       4.607118943941e+01       3.956139618936e-03 
       4.974652605557e+01       3.192097660148e-03 
       5.371506324689e+01       2.571930412830e-03 
       5.800019113685e+01       2.068799538873e-03 
       6.262716579983e+01       1.660992659840e-03 
       6.762325811764e+01       1.330650128102e-03 
