# Matter power spectrum P(k) at redshift z=0
# for k=1.04775e-05 to 67.6233 h/Mpc,
# number of wavenumbers equal to 246
#    1:k (h/Mpc)              2:P (Mpc/h)^3        
       1.047750691338e-05       5.020964806749e+01 
       1.131335172818e-05       5.407048206553e+01 
       1.221587619877e-05       5.822819063809e+01 
       1.319039970550e-05       6.270562589673e+01 
       1.424266598317e-05       6.752731788102e+01 
       1.537887697396e-05       7.271977200258e+01 
       1.660572938097e-05       7.831147241542e+01 
       1.793045413791e-05       8.433311815128e+01 
       1.936085902737e-05       9.081778242446e+01 
       2.090537469909e-05       9.780108061340e+01 
       2.257310435923e-05       1.053213197032e+02 
       2.437387742372e-05       1.134197377001e+02 
       2.631830745176e-05       1.221408202816e+02 
       2.841785470091e-05       1.315324720916e+02 
       3.068489367268e-05       1.416462093729e+02 
       3.313278604643e-05       1.525374500691e+02 
       3.577595943165e-05       1.642660687078e+02 
       3.862999240274e-05       1.768963504868e+02 
       4.171170631739e-05       1.904975992460e+02 
       4.503926445983e-05       2.051444490305e+02 
       4.863227909323e-05       2.209171463752e+02 
       5.251192705226e-05       2.379022222314e+02 
       5.670107455699e-05       2.561927925462e+02 
       6.122441198393e-05       2.758890441791e+02 
       6.610859938837e-05       2.970989225466e+02 
       7.138242363583e-05       3.199385558200e+02 
       7.707696806873e-05       3.445329780878e+02 
       8.322579570814e-05       3.710167315928e+02 
       8.986514707061e-05       3.995346440954e+02 
       9.703415376577e-05       4.302425403884e+02 
       1.047750691338e-04       4.633080762974e+02 
       1.131335172818e-04       4.989116267507e+02 
       1.221587619877e-04       5.372471946561e+02 
       1.319039970550e-04       5.785234124629e+02 
       1.424266598317e-04       6.229645930980e+02 
       1.537887697396e-04       6.708118484951e+02 
       1.660572938097e-04       7.223242660219e+02 
       1.793045413791e-04       7.777801554309e+02 
       1.936085902737e-04       8.374783607332e+02 
       2.090537469909e-04       9.017396264495e+02 
       2.257310435923e-04       9.709080260151e+02 
       2.437387742372e-04       1.045352448644e+03 
       2.631830745176e-04       1.125468122835e+03 
       2.841785470091e-04       1.211678179510e+03 
       3.068489367268e-04       1.304435249091e+03 
       3.313278604643e-04       1.404223052541e+03 
       3.577595943165e-04       1.511558013390e+03 
       3.862999240274e-04       1.626990836516e+03 
       4.171170631739e-04       1.751108027370e+03 
       4.503926445983e-04       1.884533381345e+03 
       4.863227909323e-04       2.027929376469e+03 
       5.251192705226e-04       2.181998446367e+03 
       5.670107455699e-04       2.347484100856e+03 
       6.122441198393e-04       2.525171869334e+03 
       6.610859938837e-04       2.715889981399e+03 
       7.138242363583e-04       2.920509686084e+03 
       7.707696806873e-04       3.139945097707e+03 
       8.322579570814e-04       3.375152334391e+03 
       8.986514707061e-04       3.627127828227e+03 
       9.703415376577e-04       3.896905450010e+03 
       1.047750691338e-03       4.185552170962e+03 
       1.131335172818e-03       4.494162426782e+03 
       1.221587619877e-03       4.823850702654e+03 
       1.319039970550e-03       5.175742739628e+03 
       1.424266598317e-03       5.551019592506e+03 
       1.537887697396e-03       5.950788335856e+03 
       1.660572938097e-03       6.376123046748e+03 
       1.793045413791e-03       6.828073896082e+03 
       1.936085902737e-03       7.307625375336e+03 
       2.090537469909e-03       7.815671860071e+03 
       2.257310435923e-03       8.352990369313e+03 
       2.437387742372e-03       8.920211057450e+03 
       2.631830745176e-03       9.517783061756e+03 
       2.841785470091e-03       1.014593703654e+04 
       3.068489367268e-03       1.080464505713e+04 
       3.313278604643e-03       1.149357459409e+04 
       3.577595943165e-03       1.221203620792e+04 
       3.862999240274e-03       1.295892538462e+04 
       4.171170631739e-03       1.373266002354e+04 
       4.503926445983e-03       1.453111834527e+04 
       4.863227909323e-03       1.535154981783e+04 
       5.251192705226e-03       1.619063598962e+04 
       5.670107455699e-03       1.704431255803e+04 
       6.122441198393e-03       1.790755946823e+04 
       6.610859938837e-03       1.877460419253e+04 
       7.138242363583e-03       1.963872456219e+04 
       7.707696806873e-03       2.049215711085e+04 
       8.322579570814e-03       2.132611390486e+04 
       8.986514707061e-03       2.213054956565e+04 
       9.703415376577e-03       2.289445568750e+04 
       1.047750691338e-02       2.360548188356e+04 
       1.131335172818e-02       2.425022876650e+04 
       1.221587619877e-02       2.481424508013e+04 
       1.319039970550e-02       2.528219203208e+04 
       1.424266598317e-02       2.563814458516e+04 
       1.537887697392e-02       2.586607722232e+04 
       1.660572938023e-02       2.595029204370e+04 
       1.793045412706e-02       2.587637694497e+04 
       1.936085890181e-02       2.563218826316e+04 
       2.090537352463e-02       2.520945007053e+04 
       2.257309535333e-02       2.460455165654e+04 
       2.437382002918e-02       2.382101591245e+04 
       2.631799944462e-02       2.287038567295e+04 
       2.841644545389e-02       2.177446258751e+04 
       3.067933355377e-02       2.056548983320e+04 
       3.311368470740e-02       1.928726877421e+04 
       3.571840443502e-02       1.799403518171e+04 
       3.847720348444e-02       1.674679728199e+04 
       4.135335538431e-02       1.560454370332e+04 
       4.429361667738e-02       1.461041250167e+04 
       4.724366439141e-02       1.378050067313e+04 
       5.016480835311e-02       1.310500916921e+04 
       5.303989620246e-02       1.255712759265e+04 
       5.586870669566e-02       1.210422676108e+04 
       5.866042680613e-02       1.171464981406e+04 
       6.142798932958e-02       1.136050305241e+04 
       6.418496440164e-02       1.101858477418e+04 
       6.694418833788e-02       1.067068468319e+04 
       6.971731106057e-02       1.030353377073e+04 
       7.251476155766e-02       9.909079478809e+03 
       7.534587671527e-02       9.483701928689e+03 
       7.821907666265e-02       9.029406936807e+03 
       8.114203772912e-02       8.552236612135e+03 
       8.412184535029e-02       8.061947537495e+03 
       8.716512279304e-02       7.570793320248e+03 
       9.027813695930e-02       7.092480169922e+03 
       9.346688431697e-02       6.640517948806e+03 
       9.673716028276e-02       6.226712728339e+03 
       1.000946150830e-01       5.859975416567e+03 
       1.035447986537e-01       5.545283749093e+03 
       1.070931966762e-01       5.283136396835e+03 
       1.107452594425e-01       5.069427867338e+03 
       1.145064249153e-01       4.895235931285e+03 
       1.183821370918e-01       4.747864562052e+03 
       1.223778605862e-01       4.611713217897e+03 
       1.264990921987e-01       4.470596737574e+03 
       1.307513701367e-01       4.310183557794e+03 
       1.351402814784e-01       4.121358245206e+03 
       1.396714684203e-01       3.902033249993e+03 
       1.443506338194e-01       3.658637925098e+03 
       1.491835465229e-01       3.404451683392e+03 
       1.541760469708e-01       3.156625524939e+03 
       1.593340535561e-01       2.931903679356e+03 
       1.646635702297e-01       2.742339748014e+03 
       1.701706958456e-01       2.592208517447e+03 
       1.758616357459e-01       2.477189432629e+03 
       1.817427160982e-01       2.385142172790e+03 
       1.878204015065e-01       2.300292728101e+03 
       1.941013164283e-01       2.205703057787e+03 
       2.005922709503e-01       2.090757298054e+03 
       2.073002914972e-01       1.956394309628e+03 
       2.142326570816e-01       1.814125035580e+03 
       2.213969417533e-01       1.679220909794e+03 
       2.288010639706e-01       1.563771432043e+03 
       2.364533437147e-01       1.472614276347e+03 
       2.443625682930e-01       1.401443065768e+03 
       2.525380679504e-01       1.338334459434e+03 
       2.609898026346e-01       1.270815837374e+03 
       2.697284615565e-01       1.193294749281e+03 
       2.787655775689e-01       1.109240237928e+03 
       2.881136588829e-01       1.028665643342e+03 
       2.977863412677e-01       9.603725348752e+02 
       3.077985646929e-01       9.049139427104e+02 
       3.181667794071e-01       8.560252147758e+02 
       3.289091877812e-01       8.060601649947e+02 
       3.400460299658e-01       7.522586382711e+02 
       3.515999236474e-01       6.987841740311e+02 
       3.635962711085e-01       6.509149784895e+02 
       3.760637506334e-01       6.099672562118e+02 
       3.890349143879e-01       5.719664878065e+02 
       4.025469216825e-01       5.336101469059e+02 
       4.166424456376e-01       4.954498225404e+02 
       4.313708035863e-01       4.602765626266e+02 
       4.467893782977e-01       4.285755196693e+02 
       4.629654199664e-01       3.985606108758e+02 
       4.799783501994e-01       3.690167578796e+02 
       4.979227319373e-01       3.410024475430e+02 
       5.169121270864e-01       3.152341462429e+02 
       5.370841404489e-01       2.905707655096e+02 
       5.586070464571e-01       2.668265888294e+02 
       5.816885094930e-01       2.445128459166e+02 
       6.065870144995e-01       2.232524446133e+02 
       6.336266468475e-01       2.028764970148e+02 
       6.632156059511e-01       1.835223662906e+02 
       6.958678639263e-01       1.649733686422e+02 
       7.322247985589e-01       1.472866522203e+02 
       7.730680195114e-01       1.303943281506e+02 
       8.193049553677e-01       1.143563508159e+02 
       8.718988016039e-01       9.924735794540e+01 
       9.317218031082e-01       8.521701950909e+01 
       9.993660908989e-01       7.244133384634e+01 
       1.075037110174e+00       6.106408447512e+01 
       1.158653485707e+00       5.114301621284e+01 
       1.250099157308e+00       4.263453379419e+01 
       1.349432401273e+00       3.540921359468e+01 
       1.456947457397e+00       2.930863500013e+01 
       1.573135111331e+00       2.417200068816e+01 
       1.698621895592e+00       1.985303376281e+01 
       1.834127512934e+00       1.622440586402e+01 
       1.980444934528e+00       1.317746517702e+01 
       2.138435191726e+00       1.062073022060e+01 
       2.309029199186e+00       8.477483352288e+00 
       2.493232377687e+00       6.683862296392e+00 
       2.692130395285e+00       5.186851745243e+00 
       2.906895534573e+00       3.943231635581e+00 
       3.138793597714e+00       2.917672414307e+00 
       3.389191366484e+00       2.081943850177e+00 
       3.659564657905e+00       1.413389650041e+00 
       3.951507022538e+00       8.935968589957e-01 
       4.266739136701e+00       5.072648082515e-01 
       4.607118943941e+00       2.404438103108e-01 
       4.974652605557e+00       7.912768371026e-02 
       5.371506324689e+00       7.680853042211e-03 
       5.800019113685e+00       7.589616621552e-03 
       6.262716579983e+00       5.693247950792e-02 
       6.762325811764e+00       1.309281494160e-01 
       7.301791451110e+00       2.039836501955e-01 
       7.884293049406e+00       2.533174644199e-01 
       8.513263807261e+00       2.636388451391e-01 
       9.192410809424e+00       2.314871019952e-01 
       9.925736873929e+00       1.671673369179e-01 
       1.071756414427e+01       9.219132367045e-02 
       1.157255956364e+01       3.143010333610e-02 
       1.249576238137e+01       2.124677645818e-03 
       1.349261385375e+01       5.039341576822e-03 
       1.456898931416e+01       2.415888887851e-02 
       1.573123280165e+01       3.741668787204e-02 
       1.698619445202e+01       3.255124697408e-02 
       1.834127087176e+01       1.543034434882e-02 
       1.980444873285e+01       2.021967863997e-03 
       2.138435184532e+01       8.860872742615e-04 
       2.309029198506e+01       5.529101098575e-03 
       2.493232377636e+01       5.790035488123e-03 
       2.692130395282e+01       1.776889462130e-03 
       2.906895534573e+01       9.284962932531e-06 
       3.138793597714e+01       9.939118947240e-04 
       3.389191366484e+01       8.789452508408e-04 
       3.659564657905e+01       5.164216892066e-05 
       3.951507022538e+01       1.467862276596e-04 
       4.266739136701e+01       1.606392363266e-04 
       4.607118943941e+01       4.963230402161e-07 
       4.974652605557e+01       4.081610088843e-05 
       5.371506324689e+01       6.337840192644e-06 
       5.800019113685e+01       6.443834523211e-06 
       6.262716579983e+01       1.826094469989e-06 
       6.762325811764e+01       1.259866598396e-06 
