# Matter power spectrum P(k) at redshift z=0
# for k=1.04775e-05 to 67.6233 h/Mpc,
# number of wavenumbers equal to 246
#    1:k (h/Mpc)              2:P (Mpc/h)^3        
       1.047750691338e-05       5.020964806749e+01 
       1.131335172818e-05       5.407048206553e+01 
       1.221587619877e-05       5.822819063856e+01 
       1.319039970550e-05       6.270562589679e+01 
       1.424266598317e-05       6.752731788102e+01 
       1.537887697396e-05       7.271977200258e+01 
       1.660572938097e-05       7.831147241542e+01 
       1.793045413791e-05       8.433311815128e+01 
       1.936085902737e-05       9.081778242446e+01 
       2.090537469909e-05       9.780108061340e+01 
       2.257310435923e-05       1.053213197032e+02 
       2.437387742372e-05       1.134197377001e+02 
       2.631830745176e-05       1.221408202816e+02 
       2.841785470091e-05       1.315324720916e+02 
       3.068489367268e-05       1.416462093729e+02 
       3.313278604643e-05       1.525374500691e+02 
       3.577595943165e-05       1.642660687078e+02 
       3.862999240274e-05       1.768963504868e+02 
       4.171170631739e-05       1.904975992461e+02 
       4.503926445983e-05       2.051444490305e+02 
       4.863227909323e-05       2.209171463752e+02 
       5.251192705226e-05       2.379022222314e+02 
       5.670107455699e-05       2.561927925473e+02 
       6.122441198393e-05       2.758890441791e+02 
       6.610859938837e-05       2.970989225467e+02 
       7.138242363583e-05       3.199385558200e+02 
       7.707696806873e-05       3.445329780878e+02 
       8.322579570814e-05       3.710167315928e+02 
       8.986514707061e-05       3.995346440954e+02 
       9.703415376577e-05       4.302425403884e+02 
       1.047750691338e-04       4.633080762974e+02 
       1.131335172818e-04       4.989116267507e+02 
       1.221587619877e-04       5.372471946561e+02 
       1.319039970550e-04       5.785234124632e+02 
       1.424266598317e-04       6.229645930980e+02 
       1.537887697396e-04       6.708118484951e+02 
       1.660572938097e-04       7.223242660220e+02 
       1.793045413791e-04       7.777801554200e+02 
       1.936085902737e-04       8.374783607333e+02 
       2.090537469909e-04       9.017396264495e+02 
       2.257310435923e-04       9.709080260152e+02 
       2.437387742372e-04       1.045352448644e+03 
       2.631830745176e-04       1.125468122836e+03 
       2.841785470091e-04       1.211678179511e+03 
       3.068489367268e-04       1.304435249091e+03 
       3.313278604643e-04       1.404223052541e+03 
       3.577595943165e-04       1.511558013390e+03 
       3.862999240274e-04       1.626990836484e+03 
       4.171170631739e-04       1.751108027371e+03 
       4.503926445983e-04       1.884533381345e+03 
       4.863227909323e-04       2.027929376470e+03 
       5.251192705226e-04       2.181998446367e+03 
       5.670107455699e-04       2.347484100857e+03 
       6.122441198393e-04       2.525171869337e+03 
       6.610859938837e-04       2.715889981401e+03 
       7.138242363583e-04       2.920509686087e+03 
       7.707696806873e-04       3.139945097711e+03 
       8.322579570814e-04       3.375152334396e+03 
       8.986514707061e-04       3.627127828231e+03 
       9.703415376577e-04       3.896905450016e+03 
       1.047750691338e-03       4.185552170958e+03 
       1.131335172818e-03       4.494162426791e+03 
       1.221587619877e-03       4.823850702663e+03 
       1.319039970550e-03       5.175742734885e+03 
       1.424266598317e-03       5.551019592523e+03 
       1.537887697396e-03       5.950788335888e+03 
       1.660572938097e-03       6.376123046807e+03 
       1.793045413791e-03       6.828073896121e+03 
       1.936085902737e-03       7.307625375386e+03 
       2.090537469909e-03       7.815671857265e+03 
       2.257310435923e-03       8.352990369402e+03 
       2.437387742372e-03       8.920211057532e+03 
       2.631830745176e-03       9.517783061890e+03 
       2.841785470091e-03       1.014593703671e+04 
       3.068489367268e-03       1.080464505732e+04 
       3.313278604643e-03       1.149357459544e+04 
       3.577595943165e-03       1.221203620826e+04 
       3.862999240274e-03       1.295892538505e+04 
       4.171170631739e-03       1.373266002566e+04 
       4.503926445983e-03       1.453111834595e+04 
       4.863227909323e-03       1.535154984227e+04 
       5.251192705226e-03       1.619063613436e+04 
       5.670107455699e-03       1.704431256572e+04 
       6.122441198393e-03       1.790755938457e+04 
       6.610859938837e-03       1.877460417736e+04 
       7.138242363583e-03       1.963872429094e+04 
       7.707696806873e-03       2.049215713613e+04 
       8.322579570814e-03       2.132607230436e+04 
       8.986514707061e-03       2.213055023750e+04 
       9.703415376577e-03       2.289445470778e+04 
       1.047750691338e-02       2.360547886771e+04 
       1.131335172818e-02       2.425022856735e+04 
       1.221587619877e-02       2.481423920267e+04 
       1.319039970550e-02       2.528218609579e+04 
       1.424266598317e-02       2.563814709352e+04 
       1.537887697392e-02       2.586605467880e+04 
       1.660572938023e-02       2.595028316128e+04 
       1.793045412706e-02       2.587634364950e+04 
       1.936085890181e-02       2.563220466490e+04 
       2.090537352463e-02       2.520935140080e+04 
       2.257309535333e-02       2.460442031716e+04 
       2.437382002918e-02       2.382090307923e+04 
       2.631799944462e-02       2.287043423096e+04 
       2.841644545389e-02       2.177447217670e+04 
       3.067933355377e-02       2.056553209361e+04 
       3.311368470740e-02       1.928726360868e+04 
       3.571840443502e-02       1.799396413506e+04 
       3.847720348444e-02       1.674684299881e+04 
       4.135335538431e-02       1.560456674169e+04 
       4.429361667738e-02       1.461037746623e+04 
       4.724366439141e-02       1.378058314856e+04 
       5.016480835311e-02       1.310506867796e+04 
       5.303989620246e-02       1.255714536354e+04 
       5.586870669566e-02       1.210426290958e+04 
       5.866042680613e-02       1.171464193255e+04 
       6.142798932958e-02       1.136047391022e+04 
       6.418496440164e-02       1.101856733693e+04 
       6.694418833788e-02       1.067068765429e+04 
       6.971731106057e-02       1.030355607772e+04 
       7.251476155766e-02       9.909003175140e+03 
       7.534587671527e-02       9.483783562309e+03 
       7.821907666265e-02       9.029497848768e+03 
       8.114203772912e-02       8.552346105567e+03 
       8.412184535029e-02       8.061964068210e+03 
       8.716512279304e-02       7.570776469742e+03 
       9.027813695930e-02       7.092506183254e+03 
       9.346688431697e-02       6.640506252937e+03 
       9.673716028276e-02       6.226699880823e+03 
       1.000946150830e-01       5.859926456726e+03 
       1.035447986537e-01       5.545239665801e+03 
       1.070931966762e-01       5.283109528302e+03 
       1.107452594425e-01       5.069425701186e+03 
       1.145064249153e-01       4.895246167758e+03 
       1.183821370918e-01       4.747850173180e+03 
       1.223778605862e-01       4.611737162225e+03 
       1.264990921987e-01       4.470622824925e+03 
       1.307513701367e-01       4.310268595152e+03 
       1.351402814784e-01       4.121387981528e+03 
       1.396714684203e-01       3.902073606802e+03 
       1.443506338194e-01       3.658638592790e+03 
       1.491835465229e-01       3.404487328867e+03 
       1.541760469708e-01       3.156678860217e+03 
       1.593340535561e-01       2.931980733479e+03 
       1.646635702297e-01       2.742373984351e+03 
       1.701706958456e-01       2.592256383201e+03 
       1.758616357459e-01       2.477244273167e+03 
       1.817427160982e-01       2.385179193496e+03 
       1.878204015065e-01       2.300360017332e+03 
       1.941013164283e-01       2.205758877160e+03 
       2.005922709503e-01       2.090811829089e+03 
       2.073002914972e-01       1.956465365432e+03 
       2.142326570816e-01       1.814193454865e+03 
       2.213969417533e-01       1.679297003174e+03 
       2.288010639706e-01       1.563849057939e+03 
       2.364533437147e-01       1.472687718435e+03 
       2.443625682930e-01       1.401515402107e+03 
       2.525380679504e-01       1.338410560396e+03 
       2.609898026346e-01       1.270903294860e+03 
       2.697284615565e-01       1.193379362909e+03 
       2.787655775689e-01       1.109340865315e+03 
       2.881136588829e-01       1.028771042897e+03 
       2.977863412677e-01       9.604802673177e+02 
       3.077985646929e-01       9.050220849826e+02 
       3.181667794071e-01       8.561457949780e+02 
       3.289091877812e-01       8.061904039464e+02 
       3.400460299658e-01       7.523924566153e+02 
       3.515999236474e-01       6.989245666302e+02 
       3.635962711085e-01       6.510634300038e+02 
       3.760637506334e-01       6.101241505692e+02 
       3.890349143879e-01       5.721335447452e+02 
       4.025469216825e-01       5.337832112525e+02 
       4.166424456376e-01       4.956319797845e+02 
       4.313708035863e-01       4.604698023511e+02 
       4.467893782977e-01       4.287790622483e+02 
       4.629654199664e-01       3.987741565896e+02 
       4.799783501994e-01       3.692422818259e+02 
       4.979227319373e-01       3.412415824357e+02 
       5.169121270864e-01       3.154854557935e+02 
       5.370841404489e-01       2.908352299917e+02 
       5.586070464571e-01       2.671073876302e+02 
       5.816885094930e-01       2.448102931529e+02 
       6.065870144995e-01       2.235675969682e+02 
       6.336266468475e-01       2.032107601113e+02 
       6.632156059511e-01       1.838787870337e+02 
       6.958678639263e-01       1.653548620968e+02 
       7.322247985589e-01       1.476955283518e+02 
       7.730680195114e-01       1.308339743109e+02 
       8.193049553677e-01       1.148310372962e+02 
       8.718988016039e-01       9.976270974902e+01 
       9.317218031082e-01       8.577841441742e+01 
       9.993660908989e-01       7.305474319734e+01 
       1.075037110174e+00       6.173624067933e+01 
       1.158653485707e+00       5.187933814060e+01 
       1.250099157308e+00       4.344046466028e+01 
       1.349432401273e+00       3.628961124618e+01 
       1.456947457397e+00       3.026812798209e+01 
       1.573135111331e+00       2.521468686516e+01 
       1.698621895592e+00       2.098214503838e+01 
       1.834127512934e+00       1.744252203704e+01 
       1.980444934528e+00       1.448573085104e+01 
       2.138435191726e+00       1.201901488847e+01 
       2.309029199186e+00       9.963264605309e+00 
       2.493232377687e+00       8.251899133582e+00 
       2.692130395285e+00       6.828636971659e+00 
       2.906895534573e+00       5.646277478171e+00 
       3.138793597714e+00       4.664944599481e+00 
       3.389191366484e+00       3.851155865436e+00 
       3.659564657905e+00       3.176966770398e+00 
       3.951507022538e+00       2.618904192441e+00 
       4.266739136701e+00       2.157353082872e+00 
       4.607118943941e+00       1.775948109407e+00 
       4.974652605557e+00       1.460996665890e+00 
       5.371506324689e+00       1.201139683221e+00 
       5.800019113685e+00       9.868911512174e-01 
       6.262716579983e+00       8.103553539816e-01 
       6.762325811764e+00       6.650128736413e-01 
       7.301791451110e+00       5.454309527932e-01 
       7.884293049406e+00       4.470974886094e-01 
       8.513263807261e+00       3.662985364840e-01 
       9.192410809424e+00       2.999421195026e-01 
       9.925736873929e+00       2.454823027708e-01 
       1.071756414427e+01       2.008102297721e-01 
       1.157255956364e+01       1.641854926853e-01 
       1.249576238137e+01       1.341777276172e-01 
       1.349261385375e+01       1.096046647692e-01 
       1.456898931416e+01       8.948893529925e-02 
       1.573123280165e+01       7.303438420776e-02 
       1.698619445202e+01       5.957862149630e-02 
       1.834127087176e+01       4.858102169869e-02 
       1.980444873285e+01       3.959727001397e-02 
       2.138435184532e+01       3.226128225583e-02 
       2.309029198506e+01       2.627351667397e-02 
       2.493232377636e+01       2.138847450233e-02 
       2.692130395282e+01       1.740476798141e-02 
       2.906895534573e+01       1.415740523950e-02 
       3.138793597714e+01       1.151140376366e-02 
       3.389191366484e+01       9.356158766185e-03 
       3.659564657905e+01       7.601289831629e-03 
       3.951507022538e+01       6.173156988636e-03 
       4.266739136701e+01       5.011153323590e-03 
       4.607118943941e+01       4.066191719602e-03 
       4.974652605557e+01       3.298050047361e-03 
       5.371506324689e+01       2.673727716007e-03 
       5.800019113685e+01       2.166571554421e-03 
       6.262716579983e+01       1.754758929572e-03 
       6.762325811764e+01       1.420481535646e-03 
