# Matter power spectrum P(k) at redshift z=99
# for k=1.04775e-05 to 134.926 h/Mpc,
# number of wavenumbers equal to 255
#    1:k (h/Mpc)              2:P (Mpc/h)^3        
       1.047750691338e-05       7.261927095295e-03 
       1.131335172818e-05       7.820332150766e-03 
       1.221587619877e-05       8.421675382342e-03 
       1.319039970550e-05       9.069257738016e-03 
       1.424266598317e-05       9.766636451139e-03 
       1.537887697396e-05       1.051763973643e-02 
       1.660572938097e-05       1.132639250754e-02 
       1.793045413791e-05       1.219733201511e-02 
       1.936085902737e-05       1.313524187205e-02 
       2.090537469909e-05       1.414527084980e-02 
       2.257310435923e-05       1.523296544495e-02 
       2.437387742372e-05       1.640429654644e-02 
       2.631830745176e-05       1.766569603291e-02 
       2.841785470091e-05       1.902408711167e-02 
       3.068489367268e-05       2.048692967450e-02 
       3.313278604643e-05       2.206225467555e-02 
       3.577595943165e-05       2.375870883859e-02 
       3.862999240274e-05       2.558560669830e-02 
       4.171170631739e-05       2.755297672516e-02 
       4.503926445983e-05       2.967161933423e-02 
       4.863227909323e-05       3.195316455666e-02 
       5.251192705226e-05       3.441013466146e-02 
       5.670107455699e-05       3.705601741715e-02 
       6.122441198393e-05       3.990533412849e-02 
       6.610859938837e-05       4.297372242545e-02 
       7.138242363583e-05       4.627802054865e-02 
       7.707696806873e-05       4.983636159903e-02 
       8.322579570814e-05       5.366826786951e-02 
       8.986514707061e-05       5.779476319752e-02 
       9.703415376577e-05       6.223848221856e-02 
       1.047750691338e-04       6.702379825044e-02 
       1.131335172818e-04       7.217695031104e-02 
       1.221587619877e-04       7.772619030388e-02 
       1.319039970550e-04       8.370193380069e-02 
       1.424266598317e-04       9.013692506699e-02 
       1.537887697396e-04       9.706641130434e-02 
       1.660572938097e-04       1.045283343115e-01 
       1.793045413791e-04       1.125635329190e-01 
       1.936085902737e-04       1.212159592314e-01 
       2.090537469909e-04       1.305329107441e-01 
       2.257310435923e-04       1.405652819367e-01 
       2.437387742372e-04       1.513678275083e-01 
       2.631830745176e-04       1.629994475141e-01 
       2.841785470091e-04       1.755234890487e-01 
       3.068489367268e-04       1.890080645309e-01 
       3.313278604643e-04       2.035263977442e-01 
       3.577595943165e-04       2.191571778056e-01 
       3.862999240274e-04       2.359849423273e-01 
       4.171170631739e-04       2.541004713016e-01 
       4.503926445983e-04       2.736012061175e-01 
       4.863227909323e-04       2.945916774660e-01 
       5.251192705226e-04       3.171839507882e-01 
       5.670107455699e-04       3.414980769127e-01 
       6.122441198393e-04       3.676625416321e-01 
       6.610859938837e-04       3.958147272886e-01 
       7.138242363583e-04       4.261013332087e-01 
       7.707696806873e-04       4.586787880873e-01 
       8.322579570814e-04       4.937136112846e-01 
       8.986514707061e-04       5.313826962102e-01 
       9.703415376577e-04       5.718735176829e-01 
       1.047750691338e-03       6.153841926275e-01 
       1.131335172818e-03       6.621233623146e-01 
       1.221587619877e-03       7.123098743674e-01 
       1.319039970550e-03       7.661721263804e-01 
       1.424266598317e-03       8.239547181311e-01 
       1.537887697396e-03       8.859012282814e-01 
       1.660572938097e-03       9.522589495732e-01 
       1.793045413791e-03       1.023280284732e+00 
       1.936085902737e-03       1.099216542120e+00 
       2.090537469909e-03       1.180313285049e+00 
       2.257310435923e-03       1.266804486818e+00 
       2.437387742372e-03       1.358905328469e+00 
       2.631830745176e-03       1.456803285951e+00 
       2.841785470091e-03       1.560647663030e+00 
       3.068489367268e-03       1.670537010560e+00 
       3.313278604643e-03       1.786505039609e+00 
       3.577595943165e-03       1.908504410070e+00 
       3.862999240274e-03       2.036389468687e+00 
       4.171170631739e-03       2.169898252699e+00 
       4.503926445983e-03       2.308634491826e+00 
       4.863227909323e-03       2.452050674579e+00 
       5.251192705226e-03       2.599434680870e+00 
       5.670107455699e-03       2.749901126118e+00 
       6.122441198393e-03       2.902390057878e+00 
       6.610859938837e-03       3.055671269252e+00 
       7.138242363583e-03       3.208360122119e+00 
       7.707696806873e-03       3.358926650456e+00 
       8.322579570814e-03       3.505726888756e+00 
       8.986514707061e-03       3.647012436515e+00 
       9.703415376577e-03       3.780926177762e+00 
       1.047750691338e-02       3.905492878839e+00 
       1.131335172818e-02       4.018589823911e+00 
       1.221587619877e-02       4.117902886357e+00 
       1.319039970550e-02       4.200917697646e+00 
       1.424266598317e-02       4.264943735946e+00 
       1.537887697392e-02       4.307219666441e+00 
       1.660572938023e-02       4.325062454423e+00 
       1.793045412706e-02       4.316060388517e+00 
       1.936085890181e-02       4.278228928185e+00 
       2.090537352463e-02       4.210204468588e+00 
       2.257309535333e-02       4.111418742715e+00 
       2.437382002918e-02       3.982420929266e+00 
       2.631799944462e-02       3.825168675760e+00 
       2.841644545389e-02       3.643282233500e+00 
       3.067933355377e-02       3.442198689810e+00 
       3.311368470740e-02       3.229241579762e+00 
       3.571840443502e-02       3.013516313361e+00 
       3.847720348444e-02       2.805283921680e+00 
       4.135335538431e-02       2.614410645534e+00 
       4.429361667738e-02       2.448132163827e+00 
       4.724366439141e-02       2.309240631629e+00 
       5.016480835311e-02       2.196115182850e+00 
       5.303989620246e-02       2.104369853168e+00 
       5.586870669566e-02       2.028462594877e+00 
       5.866042680613e-02       1.963155322181e+00 
       6.142798932958e-02       1.903779730079e+00 
       6.418496440164e-02       1.846479240874e+00 
       6.694418833788e-02       1.788197518395e+00 
       6.971731106057e-02       1.726715729404e+00 
       7.251476155766e-02       1.660654447064e+00 
       7.534587671527e-02       1.589469917367e+00 
       7.821907666265e-02       1.513436646582e+00 
       8.114203772912e-02       1.433568843174e+00 
       8.412184535029e-02       1.351492348580e+00 
       8.716512279304e-02       1.269273832311e+00 
       9.027813695930e-02       1.189193276847e+00 
       9.346688431697e-02       1.113501223650e+00 
       9.673716028276e-02       1.044174571043e+00 
       1.000946150830e-01       9.827061068895e-01 
       1.035447986537e-01       9.299379899823e-01 
       1.070931966762e-01       8.859586191670e-01 
       1.107452594425e-01       8.500711952576e-01 
       1.145064249153e-01       8.208034327081e-01 
       1.183821370918e-01       7.960243391334e-01 
       1.223778605862e-01       7.731457424366e-01 
       1.264990921987e-01       7.494521504596e-01 
       1.307513701367e-01       7.225576307854e-01 
       1.351402814784e-01       6.909096802369e-01 
       1.396714684203e-01       6.541824932924e-01 
       1.443506338194e-01       6.134279617922e-01 
       1.491835465229e-01       5.708686415427e-01 
       1.541760469708e-01       5.293639428266e-01 
       1.593340535561e-01       4.917104852337e-01 
       1.646635702297e-01       4.599195812793e-01 
       1.701706958456e-01       4.347275152890e-01 
       1.758616357459e-01       4.154073992255e-01 
       1.817427160982e-01       3.999357953128e-01 
       1.878204015065e-01       3.856853542677e-01 
       1.941013164283e-01       3.698136462179e-01 
       2.005922709503e-01       3.505510409909e-01 
       2.073002914972e-01       3.280459748723e-01 
       2.142326570816e-01       3.042129056434e-01 
       2.213969417533e-01       2.816110624269e-01 
       2.288010639706e-01       2.622562671245e-01 
       2.364533437147e-01       2.469612160703e-01 
       2.443625682930e-01       2.350123537064e-01 
       2.525380679504e-01       2.244197637472e-01 
       2.609898026346e-01       2.130955096603e-01 
       2.697284615565e-01       2.001019657976e-01 
       2.787655775689e-01       1.860191959855e-01 
       2.881136588829e-01       1.725164673198e-01 
       2.977863412677e-01       1.610652906622e-01 
       3.077985646929e-01       1.517600189390e-01 
       3.181667794071e-01       1.435585186529e-01 
       3.289091877812e-01       1.351810460242e-01 
       3.400460299658e-01       1.261634300940e-01 
       3.515999236474e-01       1.172011186351e-01 
       3.635962711085e-01       1.091762196422e-01 
       3.760637506334e-01       1.023084428121e-01 
       3.890349143879e-01       9.593683039237e-02 
       4.025469216825e-01       8.950685670599e-02 
       4.166424456376e-01       8.311091386849e-02 
       4.313708035863e-01       7.721459829345e-02 
       4.467893782977e-01       7.189972696412e-02 
       4.629654199664e-01       6.686816309183e-02 
       4.799783501994e-01       6.191664914998e-02 
       4.979227319373e-01       5.722132734001e-02 
       5.169121270864e-01       5.290198386619e-02 
       5.370841404489e-01       4.876888042787e-02 
       5.586070464571e-01       4.478981758527e-02 
       5.816885094930e-01       4.105099326098e-02 
       6.065870144995e-01       3.748900621474e-02 
       6.336266468475e-01       3.407530056147e-02 
       6.632156059511e-01       3.083362003135e-02 
       6.958678639263e-01       2.772744741514e-02 
       7.322247985589e-01       2.476622336079e-02 
       7.730680195114e-01       2.193868671353e-02 
       8.193049553677e-01       1.925522298134e-02 
       8.718988016039e-01       1.672838919305e-02 
       9.317218031082e-01       1.438325065034e-02 
       9.993660908989e-01       1.224973139640e-02 
       1.075037110174e+00       1.035166098810e-02 
       1.158653485707e+00       8.698797998088e-03 
       1.250099157308e+00       7.283653290258e-03 
       1.349432401273e+00       6.084515796654e-03 
       1.456947457397e+00       5.074764070359e-03 
       1.573135111331e+00       4.227365752919e-03 
       1.698621895592e+00       3.517596758986e-03 
       1.834127512934e+00       2.924038622220e-03 
       1.980444934528e+00       2.428215431848e-03 
       2.138435191726e+00       2.014559107315e-03 
       2.309029199186e+00       1.669830790865e-03 
       2.493232377687e+00       1.382861278033e-03 
       2.692130395285e+00       1.144209259748e-03 
       2.906895534573e+00       9.459351142512e-04 
       3.138793597714e+00       7.813771811932e-04 
       3.389191366484e+00       6.449211256670e-04 
       3.659564657905e+00       5.318771266762e-04 
       3.951507022538e+00       4.383040489624e-04 
       4.266739136701e+00       3.609192321866e-04 
       4.607118943941e+00       2.969673431927e-04 
       4.974652605557e+00       2.441646207250e-04 
       5.371506324689e+00       2.005995778392e-04 
       5.800019113685e+00       1.646804951541e-04 
       6.262716579983e+00       1.350901741881e-04 
       6.762325811764e+00       1.107282145826e-04 
       7.301791451110e+00       9.068607980091e-05 
       7.884293049406e+00       7.420866196628e-05 
       8.513263807261e+00       6.067039625486e-05 
       9.192410809424e+00       4.955432470877e-05 
       9.925736873929e+00       4.043310770819e-05 
       1.071756414427e+01       3.295307032936e-05 
       1.157255956364e+01       2.682262217713e-05 
       1.249576238137e+01       2.180158730937e-05 
       1.349261385375e+01       1.769151481520e-05 
       1.456898931416e+01       1.432925450270e-05 
       1.573123280165e+01       1.158049850884e-05 
       1.698619445202e+01       9.334628160949e-06 
       1.834127087176e+01       7.501139549459e-06 
       1.980444873285e+01       6.005447149294e-06 
       2.138435184532e+01       4.786399399598e-06 
       2.309029198506e+01       3.794018897280e-06 
       2.493232377636e+01       2.987298394691e-06 
       2.692130395282e+01       2.332700147513e-06 
       2.906895534573e+01       1.803083129663e-06 
       3.138793597714e+01       1.376042491536e-06 
       3.389191366484e+01       1.033521163020e-06 
       3.659564657905e+01       7.609902760172e-07 
       3.951507022538e+01       5.458266233309e-07 
       4.266739136701e+01       3.789365378618e-07 
       4.607118943941e+01       2.520126140692e-07 
       4.974652605557e+01       1.582382533404e-07 
       5.371506324689e+01       9.197794955005e-08 
       5.800019113685e+01       4.779025851248e-08 
       6.262716579983e+01       2.079887776221e-08 
       6.762325811764e+01       6.568697745374e-09 
       7.301791451110e+01       9.134542072048e-10 
       7.884293049406e+01       6.012042699896e-11 
       8.513263807261e+01       1.022738223807e-09 
       9.192410809424e+01       1.930141868961e-09 
       9.925736873929e+01       1.857374618994e-09 
       1.071756414427e+02       1.122949518875e-09 
       1.157255956364e+02       3.163679429686e-10 
       1.249576238137e+02       5.542728883306e-13 
       1.349261385375e+02       1.467245326005e-10 
