# Matter power spectrum P(k) at redshift z=0
# for k=1.04775e-05 to 67.6233 h/Mpc,
# number of wavenumbers equal to 246
#    1:k (h/Mpc)              2:P (Mpc/h)^3        
       1.047750691338e-05       5.020964806749e+01 
       1.131335172818e-05       5.407048206554e+01 
       1.221587619877e-05       5.822819064017e+01 
       1.319039970550e-05       6.270562589679e+01 
       1.424266598317e-05       6.752731788102e+01 
       1.537887697396e-05       7.271977200257e+01 
       1.660572938097e-05       7.831147241541e+01 
       1.793045413791e-05       8.433311815128e+01 
       1.936085902737e-05       9.081778242446e+01 
       2.090537469909e-05       9.780108061342e+01 
       2.257310435923e-05       1.053213197032e+02 
       2.437387742372e-05       1.134197377001e+02 
       2.631830745176e-05       1.221408202816e+02 
       2.841785470091e-05       1.315324720916e+02 
       3.068489367268e-05       1.416462093728e+02 
       3.313278604643e-05       1.525374500691e+02 
       3.577595943165e-05       1.642660687078e+02 
       3.862999240274e-05       1.768963504868e+02 
       4.171170631739e-05       1.904975992460e+02 
       4.503926445983e-05       2.051444490305e+02 
       4.863227909323e-05       2.209171463752e+02 
       5.251192705226e-05       2.379022222314e+02 
       5.670107455699e-05       2.561927925605e+02 
       6.122441198393e-05       2.758890441791e+02 
       6.610859938837e-05       2.970989225466e+02 
       7.138242363583e-05       3.199385558200e+02 
       7.707696806873e-05       3.445329780878e+02 
       8.322579570814e-05       3.710167315928e+02 
       8.986514707061e-05       3.995346440954e+02 
       9.703415376577e-05       4.302425403884e+02 
       1.047750691338e-04       4.633080762974e+02 
       1.131335172818e-04       4.989116267507e+02 
       1.221587619877e-04       5.372471946561e+02 
       1.319039970550e-04       5.785234124635e+02 
       1.424266598317e-04       6.229645930980e+02 
       1.537887697396e-04       6.708118484951e+02 
       1.660572938097e-04       7.223242660220e+02 
       1.793045413791e-04       7.777801551619e+02 
       1.936085902737e-04       8.374783607333e+02 
       2.090537469909e-04       9.017396264495e+02 
       2.257310435923e-04       9.709080260152e+02 
       2.437387742372e-04       1.045352448644e+03 
       2.631830745176e-04       1.125468122836e+03 
       2.841785470091e-04       1.211678179511e+03 
       3.068489367268e-04       1.304435249091e+03 
       3.313278604643e-04       1.404223052541e+03 
       3.577595943165e-04       1.511558013390e+03 
       3.862999240274e-04       1.626990836531e+03 
       4.171170631739e-04       1.751108027371e+03 
       4.503926445983e-04       1.884533381345e+03 
       4.863227909323e-04       2.027929376470e+03 
       5.251192705226e-04       2.181998446367e+03 
       5.670107455699e-04       2.347484100857e+03 
       6.122441198393e-04       2.525171869335e+03 
       6.610859938837e-04       2.715889981400e+03 
       7.138242363583e-04       2.920509686087e+03 
       7.707696806873e-04       3.139945097711e+03 
       8.322579570814e-04       3.375152334396e+03 
       8.986514707061e-04       3.627127828231e+03 
       9.703415376577e-04       3.896905450016e+03 
       1.047750691338e-03       4.185552170960e+03 
       1.131335172818e-03       4.494162426791e+03 
       1.221587619877e-03       4.823850702668e+03 
       1.319039970550e-03       5.175742740211e+03 
       1.424266598317e-03       5.551019592536e+03 
       1.537887697396e-03       5.950788335888e+03 
       1.660572938097e-03       6.376123046808e+03 
       1.793045413791e-03       6.828073896125e+03 
       1.936085902737e-03       7.307625375386e+03 
       2.090537469909e-03       7.815671897988e+03 
       2.257310435923e-03       8.352990369402e+03 
       2.437387742372e-03       8.920211057511e+03 
       2.631830745176e-03       9.517783061890e+03 
       2.841785470091e-03       1.014593703671e+04 
       3.068489367268e-03       1.080464505745e+04 
       3.313278604643e-03       1.149357459459e+04 
       3.577595943165e-03       1.221203620826e+04 
       3.862999240274e-03       1.295892538505e+04 
       4.171170631739e-03       1.373266002389e+04 
       4.503926445983e-03       1.453111834595e+04 
       4.863227909323e-03       1.535154984226e+04 
       5.251192705226e-03       1.619063613426e+04 
       5.670107455699e-03       1.704431256579e+04 
       6.122441198393e-03       1.790755938462e+04 
       6.610859938837e-03       1.877460424045e+04 
       7.138242363583e-03       1.963872429113e+04 
       7.707696806873e-03       2.049215713153e+04 
       8.322579570814e-03       2.132607230569e+04 
       8.986514707061e-03       2.213055022523e+04 
       9.703415376577e-03       2.289445470840e+04 
       1.047750691338e-02       2.360548831880e+04 
       1.131335172818e-02       2.425022856617e+04 
       1.221587619877e-02       2.481423923301e+04 
       1.319039970550e-02       2.528218604503e+04 
       1.424266598317e-02       2.563813227070e+04 
       1.537887697392e-02       2.586606709721e+04 
       1.660572938023e-02       2.595026298501e+04 
       1.793045412706e-02       2.587635536534e+04 
       1.936085890181e-02       2.563220849015e+04 
       2.090537352463e-02       2.520936951717e+04 
       2.257309535333e-02       2.460443944865e+04 
       2.437382002918e-02       2.382089229255e+04 
       2.631799944462e-02       2.287043964497e+04 
       2.841644545389e-02       2.177447974240e+04 
       3.067933355377e-02       2.056554597391e+04 
       3.311368470740e-02       1.928726742960e+04 
       3.571840443502e-02       1.799399909947e+04 
       3.847720348444e-02       1.674681803788e+04 
       4.135335538431e-02       1.560462275444e+04 
       4.429361667738e-02       1.461037558310e+04 
       4.724366439141e-02       1.378054025461e+04 
       5.016480835311e-02       1.310508559293e+04 
       5.303989620246e-02       1.255718548604e+04 
       5.586870669566e-02       1.210428404474e+04 
       5.866042680613e-02       1.171464672709e+04 
       6.142798932958e-02       1.136046794241e+04 
       6.418496440164e-02       1.101856565002e+04 
       6.694418833788e-02       1.067066490296e+04 
       6.971731106057e-02       1.030355449942e+04 
       7.251476155766e-02       9.909019296750e+03 
       7.534587671527e-02       9.483777658097e+03 
       7.821907666265e-02       9.029468183855e+03 
       8.114203772912e-02       8.552320044030e+03 
       8.412184535029e-02       8.061928874965e+03 
       8.716512279304e-02       7.570756132850e+03 
       9.027813695930e-02       7.092507236195e+03 
       9.346688431697e-02       6.640515249877e+03 
       9.673716028276e-02       6.226700187843e+03 
       1.000946150830e-01       5.859947657307e+03 
       1.035447986537e-01       5.545227476646e+03 
       1.070931966762e-01       5.283142125303e+03 
       1.107452594425e-01       5.069399247071e+03 
       1.145064249153e-01       4.895255751455e+03 
       1.183821370918e-01       4.747880315601e+03 
       1.223778605862e-01       4.611740218852e+03 
       1.264990921987e-01       4.470620226217e+03 
       1.307513701367e-01       4.310234581366e+03 
       1.351402814784e-01       4.121376419687e+03 
       1.396714684203e-01       3.902050511234e+03 
       1.443506338194e-01       3.658645454300e+03 
       1.491835465229e-01       3.404479111329e+03 
       1.541760469708e-01       3.156668923010e+03 
       1.593340535561e-01       2.931980585892e+03 
       1.646635702297e-01       2.742366543468e+03 
       1.701706958456e-01       2.592259289481e+03 
       1.758616357459e-01       2.477248048355e+03 
       1.817427160982e-01       2.385186254250e+03 
       1.878204015065e-01       2.300356857025e+03 
       1.941013164283e-01       2.205757159669e+03 
       2.005922709503e-01       2.090816668536e+03 
       2.073002914972e-01       1.956466538506e+03 
       2.142326570816e-01       1.814190967778e+03 
       2.213969417533e-01       1.679300306609e+03 
       2.288010639706e-01       1.563846128018e+03 
       2.364533437147e-01       1.472685864211e+03 
       2.443625682930e-01       1.401516982733e+03 
       2.525380679504e-01       1.338415510295e+03 
       2.609898026346e-01       1.270901000693e+03 
       2.697284615565e-01       1.193384434331e+03 
       2.787655775689e-01       1.109335944101e+03 
       2.881136588829e-01       1.028771541429e+03 
       2.977863412677e-01       9.604830111324e+02 
       3.077985646929e-01       9.050242993237e+02 
       3.181667794071e-01       8.561445857777e+02 
       3.289091877812e-01       8.061876943054e+02 
       3.400460299658e-01       7.523908493156e+02 
       3.515999236474e-01       6.989230721201e+02 
       3.635962711085e-01       6.510640545345e+02 
       3.760637506334e-01       6.101241730324e+02 
       3.890349143879e-01       5.721323544264e+02 
       4.025469216825e-01       5.337817943243e+02 
       4.166424456376e-01       4.956314100293e+02 
       4.313708035863e-01       4.604698651791e+02 
       4.467893782977e-01       4.287783483807e+02 
       4.629654199664e-01       3.987734877135e+02 
       4.799783501994e-01       3.692410945003e+02 
       4.979227319373e-01       3.412409521264e+02 
       5.169121270864e-01       3.154842743734e+02 
       5.370841404489e-01       2.908352404895e+02 
       5.586070464571e-01       2.671064541088e+02 
       5.816885094930e-01       2.448099590393e+02 
       6.065870144995e-01       2.235683522240e+02 
       6.336266468475e-01       2.032105234035e+02 
       6.632156059511e-01       1.838781186683e+02 
       6.958678639263e-01       1.653543274682e+02 
       7.322247985589e-01       1.476957670704e+02 
       7.730680195114e-01       1.308336560988e+02 
       8.193049553677e-01       1.148308896423e+02 
       8.718988016039e-01       9.976263746544e+01 
       9.317218031082e-01       8.577811588606e+01 
       9.993660908989e-01       7.305499123973e+01 
       1.075037110174e+00       6.173577589922e+01 
       1.158653485707e+00       5.187888361359e+01 
       1.250099157308e+00       4.344036731868e+01 
       1.349432401273e+00       3.628937981340e+01 
       1.456947457397e+00       3.026794078669e+01 
       1.573135111331e+00       2.521444031709e+01 
       1.698621895592e+00       2.098204438270e+01 
       1.834127512934e+00       1.744239029200e+01 
       1.980444934528e+00       1.448566840102e+01 
       2.138435191726e+00       1.201892493181e+01 
       2.309029199186e+00       9.963138427573e+00 
       2.493232377687e+00       8.251805616761e+00 
       2.692130395285e+00       6.828569405010e+00 
       2.906895534573e+00       5.646220681738e+00 
       3.138793597714e+00       4.664893393710e+00 
       3.389191366484e+00       3.851073843376e+00 
       3.659564657905e+00       3.176916120124e+00 
       3.951507022538e+00       2.618866968733e+00 
       4.266739136701e+00       2.157325778176e+00 
       4.607118943941e+00       1.775911497623e+00 
       4.974652605557e+00       1.460958747867e+00 
       5.371506324689e+00       1.201095657919e+00 
       5.800019113685e+00       9.868400535324e-01 
       6.262716579983e+00       8.103164682924e-01 
       6.762325811764e+00       6.649722734264e-01 
       7.301791451110e+00       5.453856544577e-01 
       7.884293049406e+00       4.470475528586e-01 
       8.513263807261e+00       3.662466323997e-01 
       9.192410809424e+00       2.998834707259e-01 
       9.925736873929e+00       2.454237628863e-01 
       1.071756414427e+01       2.007433883476e-01 
       1.157255956364e+01       1.641138606086e-01 
       1.249576238137e+01       1.341027266527e-01 
       1.349261385375e+01       1.095239133915e-01 
       1.456898931416e+01       8.940416046385e-02 
       1.573123280165e+01       7.294355145339e-02 
       1.698619445202e+01       5.948239817386e-02 
       1.834127087176e+01       4.847940236047e-02 
       1.980444873285e+01       3.948913356649e-02 
       2.138435184532e+01       3.214680262416e-02 
       2.309029198506e+01       2.615221774913e-02 
       2.493232377636e+01       2.126061314860e-02 
       2.692130395282e+01       1.726978408689e-02 
       2.906895534573e+01       1.401522408442e-02 
       3.138793597714e+01       1.136173072601e-02 
       3.389191366484e+01       9.198690041102e-03 
       3.659564657905e+01       7.436502298551e-03 
       3.951507022538e+01       6.000712344188e-03 
       4.266739136701e+01       4.831343632615e-03 
       4.607118943941e+01       3.879042722505e-03 
       4.974652605557e+01       3.103928170243e-03 
       5.371506324689e+01       2.473118039073e-03 
       5.800019113685e+01       1.960098241017e-03 
       6.262716579983e+01       1.543233041808e-03 
       6.762325811764e+01       1.204940738660e-03 
