# Matter power spectrum P(k) at redshift z=99
# for k=1.04775e-05 to 67.6233 h/Mpc,
# number of wavenumbers equal to 246
#    1:k (h/Mpc)              2:P (Mpc/h)^3        
       1.047750691338e-05       7.261927673119e-03 
       1.131335172818e-05       7.820331745737e-03 
       1.221587619877e-05       8.421675986488e-03 
       1.319039970550e-05       9.069258192194e-03 
       1.424266598317e-05       9.766638404421e-03 
       1.537887697396e-05       1.051764069681e-02 
       1.660572938097e-05       1.132639105520e-02 
       1.793045413791e-05       1.219733231416e-02 
       1.936085902737e-05       1.313524224380e-02 
       2.090537469909e-05       1.414527121893e-02 
       2.257310435923e-05       1.523296272192e-02 
       2.437387742372e-05       1.640429444530e-02 
       2.631830745176e-05       1.766569582177e-02 
       2.841785470091e-05       1.902408601793e-02 
       3.068489367268e-05       2.048692970591e-02 
       3.313278604643e-05       2.206225513594e-02 
       3.577595943165e-05       2.375870704909e-02 
       3.862999240274e-05       2.558560727479e-02 
       4.171170631739e-05       2.755297763344e-02 
       4.503926445983e-05       2.967161927315e-02 
       4.863227909323e-05       3.195316450832e-02 
       5.251192705226e-05       3.441013519284e-02 
       5.670107455699e-05       3.705601722526e-02 
       6.122441198393e-05       3.990533413562e-02 
       6.610859938837e-05       4.297372168203e-02 
       7.138242363583e-05       4.627802141688e-02 
       7.707696806873e-05       4.983636194159e-02 
       8.322579570814e-05       5.366826847231e-02 
       8.986514707061e-05       5.779476394568e-02 
       9.703415376577e-05       6.223848243885e-02 
       1.047750691338e-04       6.702379865640e-02 
       1.131335172818e-04       7.217695153381e-02 
       1.221587619877e-04       7.772619073572e-02 
       1.319039970550e-04       8.370193432376e-02 
       1.424266598317e-04       9.013692507547e-02 
       1.537887697396e-04       9.706641242570e-02 
       1.660572938097e-04       1.045283354271e-01 
       1.793045413791e-04       1.125635349068e-01 
       1.936085902737e-04       1.212159614968e-01 
       2.090537469909e-04       1.305329132714e-01 
       2.257310435923e-04       1.405652846215e-01 
       2.437387742372e-04       1.513678302540e-01 
       2.631830745176e-04       1.629994504871e-01 
       2.841785470091e-04       1.755234921224e-01 
       3.068489367268e-04       1.890080670413e-01 
       3.313278604643e-04       2.035264002435e-01 
       3.577595943165e-04       2.191571803681e-01 
       3.862999240274e-04       2.359849437593e-01 
       4.171170631739e-04       2.541004741539e-01 
       4.503926445983e-04       2.736012080277e-01 
       4.863227909323e-04       2.945916790965e-01 
       5.251192705226e-04       3.171839525183e-01 
       5.670107455699e-04       3.414980764002e-01 
       6.122441198393e-04       3.676625413100e-01 
       6.610859938837e-04       3.958147252303e-01 
       7.138242363583e-04       4.261013284918e-01 
       7.707696806873e-04       4.586787792350e-01 
       8.322579570814e-04       4.937136001359e-01 
       8.986514707061e-04       5.313826801401e-01 
       9.703415376577e-04       5.718734972158e-01 
       1.047750691338e-03       6.153841629505e-01 
       1.131335172818e-03       6.621233239465e-01 
       1.221587619877e-03       7.123098220428e-01 
       1.319039970550e-03       7.661720584447e-01 
       1.424266598317e-03       8.239546297728e-01 
       1.537887697396e-03       8.859011173467e-01 
       1.660572938097e-03       9.522588006416e-01 
       1.793045413791e-03       1.023280099819e+00 
       1.936085902737e-03       1.099216304579e+00 
       2.090537469909e-03       1.180312990454e+00 
       2.257310435923e-03       1.266804115851e+00 
       2.437387742372e-03       1.358904853408e+00 
       2.631830745176e-03       1.456802683156e+00 
       2.841785470091e-03       1.560646890522e+00 
       3.068489367268e-03       1.670536062499e+00 
       3.313278604643e-03       1.786503852156e+00 
       3.577595943165e-03       1.908502930789e+00 
       3.862999240274e-03       2.036387730709e+00 
       4.171170631739e-03       2.169896178702e+00 
       4.503926445983e-03       2.308631878994e+00 
       4.863227909323e-03       2.452047290962e+00 
       5.251192705226e-03       2.599430628088e+00 
       5.670107455699e-03       2.749896931858e+00 
       6.122441198393e-03       2.902386513385e+00 
       6.610859938837e-03       3.055668682323e+00 
       7.138242363583e-03       3.208356461545e+00 
       7.707696806873e-03       3.358923892272e+00 
       8.322579570814e-03       3.505725595222e+00 
       8.986514707061e-03       3.647009243671e+00 
       9.703415376577e-03       3.780923304280e+00 
       1.047750691338e-02       3.905491044649e+00 
       1.131335172818e-02       4.018588537170e+00 
       1.221587619877e-02       4.117901583342e+00 
       1.319039970550e-02       4.200915293338e+00 
       1.424266598317e-02       4.264942384487e+00 
       1.537887697392e-02       4.307219032017e+00 
       1.660572938023e-02       4.325061922137e+00 
       1.793045412706e-02       4.316060286737e+00 
       1.936085890181e-02       4.278230971665e+00 
       2.090537352463e-02       4.210201876079e+00 
       2.257309535333e-02       4.111419969145e+00 
       2.437382002918e-02       3.982424543624e+00 
       2.631799944462e-02       3.825164254682e+00 
       2.841644545389e-02       3.643285007220e+00 
       3.067933355377e-02       3.442201384892e+00 
       3.311368470740e-02       3.229236231833e+00 
       3.571840443502e-02       3.013519430007e+00 
       3.847720348444e-02       2.805275891513e+00 
       4.135335538431e-02       2.614412660298e+00 
       4.429361667738e-02       2.448136678530e+00 
       4.724366439141e-02       2.309239401138e+00 
       5.016480835311e-02       2.196107208196e+00 
       5.303989620246e-02       2.104365293633e+00 
       5.586870669566e-02       2.028463422536e+00 
       5.866042680613e-02       1.963152503572e+00 
       6.142798932958e-02       1.903781761026e+00 
       6.418496440164e-02       1.846478308771e+00 
       6.694418833788e-02       1.788197460216e+00 
       6.971731106057e-02       1.726714706359e+00 
       7.251476155766e-02       1.660653391182e+00 
       7.534587671527e-02       1.589469964742e+00 
       7.821907666265e-02       1.513435574667e+00 
       8.114203772912e-02       1.433566526746e+00 
       8.412184535029e-02       1.351492449443e+00 
       8.716512279304e-02       1.269274940001e+00 
       9.027813695930e-02       1.189193515546e+00 
       9.346688431697e-02       1.113501748418e+00 
       9.673716028276e-02       1.044177438820e+00 
       1.000946150830e-01       9.827078573942e-01 
       1.035447986537e-01       9.299356869907e-01 
       1.070931966762e-01       8.859594371721e-01 
       1.107452594425e-01       8.500709656874e-01 
       1.145064249153e-01       8.208035439306e-01 
       1.183821370918e-01       7.960259505775e-01 
       1.223778605862e-01       7.731447348221e-01 
       1.264990921987e-01       7.494527136707e-01 
       1.307513701367e-01       7.225590999019e-01 
       1.351402814784e-01       6.909093477894e-01 
       1.396714684203e-01       6.541808508657e-01 
       1.443506338194e-01       6.134264896982e-01 
       1.491835465229e-01       5.708674966560e-01 
       1.541760469708e-01       5.293639379146e-01 
       1.593340535561e-01       4.917110926718e-01 
       1.646635702297e-01       4.599199083930e-01 
       1.701706958456e-01       4.347290364610e-01 
       1.758616357459e-01       4.154087150495e-01 
       1.817427160982e-01       3.999372078682e-01 
       1.878204015065e-01       3.856831467494e-01 
       1.941013164283e-01       3.698096745962e-01 
       2.005922709503e-01       3.505465777009e-01 
       2.073002914972e-01       3.280420055765e-01 
       2.142326570816e-01       3.042146126277e-01 
       2.213969417533e-01       2.816126222996e-01 
       2.288010639706e-01       2.622569328578e-01 
       2.364533437147e-01       2.469619083676e-01 
       2.443625682930e-01       2.350133483050e-01 
       2.525380679504e-01       2.244180378203e-01 
       2.609898026346e-01       2.130934340401e-01 
       2.697284615565e-01       2.001016405116e-01 
       2.787655775689e-01       1.860202238469e-01 
       2.881136588829e-01       1.725175400888e-01 
       2.977863412677e-01       1.610661257852e-01 
       3.077985646929e-01       1.517611859817e-01 
       3.181667794071e-01       1.435596792997e-01 
       3.289091877812e-01       1.351812733189e-01 
       3.400460299658e-01       1.261642839286e-01 
       3.515999236474e-01       1.172023611136e-01 
       3.635962711085e-01       1.091771232669e-01 
       3.760637506334e-01       1.023095548598e-01 
       3.890349143879e-01       9.593768235025e-02 
       4.025469216825e-01       8.950775504914e-02 
       4.166424456376e-01       8.311180568126e-02 
       4.313708035863e-01       7.721550887746e-02 
       4.467893782977e-01       7.190054465192e-02 
       4.629654199664e-01       6.686902703163e-02 
       4.799783501994e-01       6.191760118710e-02 
       4.979227319373e-01       5.722219358153e-02 
       5.169121270864e-01       5.290288058619e-02 
       5.370841404489e-01       4.876986614214e-02 
       5.586070464571e-01       4.479089789682e-02 
       5.816885094930e-01       4.105198830432e-02 
       6.065870144995e-01       3.748996115777e-02 
       6.336266468475e-01       3.407620907935e-02 
       6.632156059511e-01       3.083461918842e-02 
       6.958678639263e-01       2.772832080874e-02 
       7.322247985589e-01       2.476713214479e-02 
       7.730680195114e-01       2.193960573925e-02 
       8.193049553677e-01       1.925620063131e-02 
       8.718988016039e-01       1.672927244206e-02 
       9.317218031082e-01       1.438419457626e-02 
       9.993660908989e-01       1.225069240760e-02 
       1.075037110174e+00       1.035257181773e-02 
       1.158653485707e+00       8.699721798290e-03 
       1.250099157308e+00       7.284597997307e-03 
       1.349432401273e+00       6.085462828785e-03 
       1.456947457397e+00       5.075717754015e-03 
       1.573135111331e+00       4.228311792542e-03 
       1.698621895592e+00       3.518553562960e-03 
       1.834127512934e+00       2.924974631492e-03 
       1.980444934528e+00       2.429159374112e-03 
       2.138435191726e+00       2.015504502194e-03 
       2.309029199186e+00       1.670772986691e-03 
       2.493232377687e+00       1.383799596413e-03 
       2.692130395285e+00       1.145128188267e-03 
       2.906895534573e+00       9.468547798107e-04 
       3.138793597714e+00       7.822899681673e-04 
       3.389191366484e+00       6.458226599748e-04 
       3.659564657905e+00       5.327683371201e-04 
       3.951507022538e+00       4.391841903109e-04 
       4.266739136701e+00       3.617862739660e-04 
       4.607118943941e+00       2.978267127538e-04 
       4.974652605557e+00       2.450116495440e-04 
       5.371506324689e+00       2.014347084384e-04 
       5.800019113685e+00       1.655055226180e-04 
       6.262716579983e+00       1.359020015715e-04 
       6.762325811764e+00       1.115280326268e-04 
       7.301791451110e+00       9.147359230191e-05 
       7.884293049406e+00       7.498382561733e-05 
       8.513263807261e+00       6.143366757605e-05 
       9.192410809424e+00       5.030517053558e-05 
       9.925736873929e+00       4.117193362420e-05 
       1.071756414427e+01       3.368010335546e-05 
       1.157255956364e+01       2.753776944186e-05 
       1.249576238137e+01       2.250510633724e-05 
       1.349261385375e+01       1.838332608633e-05 
       1.456898931416e+01       1.500974050405e-05 
       1.573123280165e+01       1.224960189147e-05 
       1.698619445202e+01       9.992562242221e-06 
       1.834127087176e+01       8.147672546748e-06 
       1.980444873285e+01       6.640488061279e-06 
       2.138435184532e+01       5.409587174235e-06 
       2.309029198506e+01       4.404875815868e-06 
       2.493232377636e+01       3.585040657755e-06 
       2.692130395282e+01       2.916309489316e-06 
       2.906895534573e+01       2.371079630274e-06 
       3.138793597714e+01       1.926664232682e-06 
       3.389191366484e+01       1.564550624794e-06 
       3.659564657905e+01       1.269595039921e-06 
       3.951507022538e+01       1.029406839383e-06 
       4.266739136701e+01       8.338722293709e-07 
       4.607118943941e+01       6.747194559073e-07 
       4.974652605557e+01       5.452156710904e-07 
       5.371506324689e+01       4.398424703887e-07 
       5.800019113685e+01       3.541307779690e-07 
       6.262716579983e+01       2.844221506980e-07 
       6.762325811764e+01       2.277410672572e-07 
