# Matter power spectrum P(k) at redshift z=99
# for k=1.04775e-05 to 67.6233 h/Mpc,
# number of wavenumbers equal to 246
#    1:k (h/Mpc)              2:P (Mpc/h)^3        
       1.047750691338e-05       7.261927673119e-03 
       1.131335172818e-05       7.820331745737e-03 
       1.221587619877e-05       8.421675986488e-03 
       1.319039970550e-05       9.069258192194e-03 
       1.424266598317e-05       9.766638404421e-03 
       1.537887697396e-05       1.051764069682e-02 
       1.660572938097e-05       1.132639105520e-02 
       1.793045413791e-05       1.219733231416e-02 
       1.936085902737e-05       1.313524224380e-02 
       2.090537469909e-05       1.414527121893e-02 
       2.257310435923e-05       1.523296272192e-02 
       2.437387742372e-05       1.640429444530e-02 
       2.631830745176e-05       1.766569582177e-02 
       2.841785470091e-05       1.902408601793e-02 
       3.068489367268e-05       2.048692970591e-02 
       3.313278604643e-05       2.206225513594e-02 
       3.577595943165e-05       2.375870704909e-02 
       3.862999240274e-05       2.558560727479e-02 
       4.171170631739e-05       2.755297763344e-02 
       4.503926445983e-05       2.967161927315e-02 
       4.863227909323e-05       3.195316450832e-02 
       5.251192705226e-05       3.441013519284e-02 
       5.670107455699e-05       3.705601722527e-02 
       6.122441198393e-05       3.990533413562e-02 
       6.610859938837e-05       4.297372168203e-02 
       7.138242363583e-05       4.627802141688e-02 
       7.707696806873e-05       4.983636194159e-02 
       8.322579570814e-05       5.366826847231e-02 
       8.986514707061e-05       5.779476394568e-02 
       9.703415376577e-05       6.223848243885e-02 
       1.047750691338e-04       6.702379865640e-02 
       1.131335172818e-04       7.217695153381e-02 
       1.221587619877e-04       7.772619073574e-02 
       1.319039970550e-04       8.370193432376e-02 
       1.424266598317e-04       9.013692507546e-02 
       1.537887697396e-04       9.706641242570e-02 
       1.660572938097e-04       1.045283354271e-01 
       1.793045413791e-04       1.125635349068e-01 
       1.936085902737e-04       1.212159614968e-01 
       2.090537469909e-04       1.305329132714e-01 
       2.257310435923e-04       1.405652846215e-01 
       2.437387742372e-04       1.513678302540e-01 
       2.631830745176e-04       1.629994504871e-01 
       2.841785470091e-04       1.755234921224e-01 
       3.068489367268e-04       1.890080670413e-01 
       3.313278604643e-04       2.035264002435e-01 
       3.577595943165e-04       2.191571803681e-01 
       3.862999240274e-04       2.359849437592e-01 
       4.171170631739e-04       2.541004741539e-01 
       4.503926445983e-04       2.736012080277e-01 
       4.863227909323e-04       2.945916790965e-01 
       5.251192705226e-04       3.171839525182e-01 
       5.670107455699e-04       3.414980764002e-01 
       6.122441198393e-04       3.676625413100e-01 
       6.610859938837e-04       3.958147252303e-01 
       7.138242363583e-04       4.261013284917e-01 
       7.707696806873e-04       4.586787792353e-01 
       8.322579570814e-04       4.937136001343e-01 
       8.986514707061e-04       5.313826801402e-01 
       9.703415376577e-04       5.718734972158e-01 
       1.047750691338e-03       6.153841629505e-01 
       1.131335172818e-03       6.621233239466e-01 
       1.221587619877e-03       7.123098220416e-01 
       1.319039970550e-03       7.661720584472e-01 
       1.424266598317e-03       8.239546297728e-01 
       1.537887697396e-03       8.859011173466e-01 
       1.660572938097e-03       9.522588006420e-01 
       1.793045413791e-03       1.023280099819e+00 
       1.936085902737e-03       1.099216304579e+00 
       2.090537469909e-03       1.180312990453e+00 
       2.257310435923e-03       1.266804115851e+00 
       2.437387742372e-03       1.358904853403e+00 
       2.631830745176e-03       1.456802683156e+00 
       2.841785470091e-03       1.560646890522e+00 
       3.068489367268e-03       1.670536062499e+00 
       3.313278604643e-03       1.786503852161e+00 
       3.577595943165e-03       1.908502930788e+00 
       3.862999240274e-03       2.036387730709e+00 
       4.171170631739e-03       2.169896178791e+00 
       4.503926445983e-03       2.308631878994e+00 
       4.863227909323e-03       2.452047290962e+00 
       5.251192705226e-03       2.599430628088e+00 
       5.670107455699e-03       2.749896931823e+00 
       6.122441198393e-03       2.902386513385e+00 
       6.610859938837e-03       3.055668712860e+00 
       7.138242363583e-03       3.208356461545e+00 
       7.707696806873e-03       3.358923892868e+00 
       8.322579570814e-03       3.505725595119e+00 
       8.986514707061e-03       3.647009249936e+00 
       9.703415376577e-03       3.780923304282e+00 
       1.047750691338e-02       3.905491149423e+00 
       1.131335172818e-02       4.018587954959e+00 
       1.221587619877e-02       4.117901586414e+00 
       1.319039970550e-02       4.200915320198e+00 
       1.424266598317e-02       4.264942416521e+00 
       1.537887697392e-02       4.307218721128e+00 
       1.660572938023e-02       4.325063102739e+00 
       1.793045412706e-02       4.316057417752e+00 
       1.936085890181e-02       4.278228046299e+00 
       2.090537352463e-02       4.210200758140e+00 
       2.257309535333e-02       4.111422008509e+00 
       2.437382002918e-02       3.982421698172e+00 
       2.631799944462e-02       3.825172250561e+00 
       2.841644545389e-02       3.643288795353e+00 
       3.067933355377e-02       3.442191082602e+00 
       3.311368470740e-02       3.229243091520e+00 
       3.571840443502e-02       3.013516225250e+00 
       3.847720348444e-02       2.805277982452e+00 
       4.135335538431e-02       2.614411255865e+00 
       4.429361667738e-02       2.448136589457e+00 
       4.724366439141e-02       2.309238067607e+00 
       5.016480835311e-02       2.196112580727e+00 
       5.303989620246e-02       2.104364406828e+00 
       5.586870669566e-02       2.028464012508e+00 
       5.866042680613e-02       1.963154952414e+00 
       6.142798932958e-02       1.903778832701e+00 
       6.418496440164e-02       1.846478457423e+00 
       6.694418833788e-02       1.788196922672e+00 
       6.971731106057e-02       1.726713057731e+00 
       7.251476155766e-02       1.660653087087e+00 
       7.534587671527e-02       1.589473360954e+00 
       7.821907666265e-02       1.513438928641e+00 
       8.114203772912e-02       1.433570362022e+00 
       8.412184535029e-02       1.351492876219e+00 
       8.716512279304e-02       1.269275210941e+00 
       9.027813695930e-02       1.189194996472e+00 
       9.346688431697e-02       1.113501920083e+00 
       9.673716028276e-02       1.044173099343e+00 
       1.000946150830e-01       9.827072940527e-01 
       1.035447986537e-01       9.299400870296e-01 
       1.070931966762e-01       8.859616511815e-01 
       1.107452594425e-01       8.500702998246e-01 
       1.145064249153e-01       8.208035848446e-01 
       1.183821370918e-01       7.960267095249e-01 
       1.223778605862e-01       7.731480627705e-01 
       1.264990921987e-01       7.494515548704e-01 
       1.307513701367e-01       7.225579798288e-01 
       1.351402814784e-01       6.909097115202e-01 
       1.396714684203e-01       6.541803558050e-01 
       1.443506338194e-01       6.134266247195e-01 
       1.491835465229e-01       5.708679364890e-01 
       1.541760469708e-01       5.293635555523e-01 
       1.593340535561e-01       4.917106485235e-01 
       1.646635702297e-01       4.599198751416e-01 
       1.701706958456e-01       4.347272460131e-01 
       1.758616357459e-01       4.154080666338e-01 
       1.817427160982e-01       3.999373767958e-01 
       1.878204015065e-01       3.856830232196e-01 
       1.941013164283e-01       3.698094444336e-01 
       2.005922709503e-01       3.505464059649e-01 
       2.073002914972e-01       3.280440279522e-01 
       2.142326570816e-01       3.042136951127e-01 
       2.213969417533e-01       2.816120949587e-01 
       2.288010639706e-01       2.622571601642e-01 
       2.364533437147e-01       2.469621376202e-01 
       2.443625682930e-01       2.350129676505e-01 
       2.525380679504e-01       2.244180345637e-01 
       2.609898026346e-01       2.130940266007e-01 
       2.697284615565e-01       2.001015023706e-01 
       2.787655775689e-01       1.860198547581e-01 
       2.881136588829e-01       1.725174232404e-01 
       2.977863412677e-01       1.610661130843e-01 
       3.077985646929e-01       1.517610291021e-01 
       3.181667794071e-01       1.435595450780e-01 
       3.289091877812e-01       1.351815178191e-01 
       3.400460299658e-01       1.261644994578e-01 
       3.515999236474e-01       1.172022931703e-01 
       3.635962711085e-01       1.091771392961e-01 
       3.760637506334e-01       1.023096552959e-01 
       3.890349143879e-01       9.593771848028e-02 
       4.025469216825e-01       8.950762062670e-02 
       4.166424456376e-01       8.311194136902e-02 
       4.313708035863e-01       7.721560228562e-02 
       4.467893782977e-01       7.190070219520e-02 
       4.629654199664e-01       6.686927745364e-02 
       4.799783501994e-01       6.191764951688e-02 
       4.979227319373e-01       5.722224588288e-02 
       5.169121270864e-01       5.290304231169e-02 
       5.370841404489e-01       4.876982580382e-02 
       5.586070464571e-01       4.479083909972e-02 
       5.816885094930e-01       4.105193460984e-02 
       6.065870144995e-01       3.748988397635e-02 
       6.336266468475e-01       3.407629646894e-02 
       6.632156059511e-01       3.083458719266e-02 
       6.958678639263e-01       2.772843604485e-02 
       7.322247985589e-01       2.476707110739e-02 
       7.730680195114e-01       2.193960502796e-02 
       8.193049553677e-01       1.925615406981e-02 
       8.718988016039e-01       1.672923765982e-02 
       9.317218031082e-01       1.438421198560e-02 
       9.993660908989e-01       1.225064755311e-02 
       1.075037110174e+00       1.035260791543e-02 
       1.158653485707e+00       8.699730721399e-03 
       1.250099157308e+00       7.284584864823e-03 
       1.349432401273e+00       6.085462801670e-03 
       1.456947457397e+00       5.075722034397e-03 
       1.573135111331e+00       4.228307527019e-03 
       1.698621895592e+00       3.518551301306e-03 
       1.834127512934e+00       2.924980673002e-03 
       1.980444934528e+00       2.429168456500e-03 
       2.138435191726e+00       2.015512461935e-03 
       2.309029199186e+00       1.670773623403e-03 
       2.493232377687e+00       1.383786942597e-03 
       2.692130395285e+00       1.145127486050e-03 
       2.906895534573e+00       9.468516621901e-04 
       3.138793597714e+00       7.822891225604e-04 
       3.389191366484e+00       6.458201770448e-04 
       3.659564657905e+00       5.327663939031e-04 
       3.951507022538e+00       4.391831624615e-04 
       4.266739136701e+00       3.617896197984e-04 
       4.607118943941e+00       2.978276381716e-04 
       4.974652605557e+00       2.450134301562e-04 
       5.371506324689e+00       2.014366266850e-04 
       5.800019113685e+00       1.655073025290e-04 
       6.262716579983e+00       1.359041762287e-04 
       6.762325811764e+00       1.115303524701e-04 
       7.301791451110e+00       9.147573854261e-05 
       7.884293049406e+00       7.498548417696e-05 
       8.513263807261e+00       6.143586049304e-05 
       9.192410809424e+00       5.030811684235e-05 
       9.925736873929e+00       4.117456111524e-05 
       1.071756414427e+01       3.368319905706e-05 
       1.157255956364e+01       2.754105652365e-05 
       1.249576238137e+01       2.250861619772e-05 
       1.349261385375e+01       1.838717978672e-05 
       1.456898931416e+01       1.501382431841e-05 
       1.573123280165e+01       1.225398408166e-05 
       1.698619445202e+01       9.997215905708e-06 
       1.834127087176e+01       8.152571655499e-06 
       1.980444873285e+01       6.645752953487e-06 
       2.138435184532e+01       5.415197887817e-06 
       2.309029198506e+01       4.410835546673e-06 
       2.493232377636e+01       3.591324023819e-06 
       2.692130395282e+01       2.922970946694e-06 
       2.906895534573e+01       2.378128379821e-06 
       3.138793597714e+01       1.934100391814e-06 
       3.389191366484e+01       1.572418294458e-06 
       3.659564657905e+01       1.277890234824e-06 
       3.951507022538e+01       1.038144077740e-06 
       4.266739136701e+01       8.430415612956e-07 
       4.607118943941e+01       6.843490168270e-07 
       4.974652605557e+01       5.552866863380e-07 
       5.371506324689e+01       4.503751633271e-07 
       5.800019113685e+01       3.651101765478e-07 
       6.262716579983e+01       2.958400487966e-07 
       6.762325811764e+01       2.395747094608e-07 
