# Matter power spectrum P(k) at redshift z=99
# for k=1.04775e-05 to 67.6233 h/Mpc,
# number of wavenumbers equal to 246
#    1:k (h/Mpc)              2:P (Mpc/h)^3        
       1.047750691338e-05       7.261927673120e-03 
       1.131335172818e-05       7.820331745738e-03 
       1.221587619877e-05       8.421675986490e-03 
       1.319039970550e-05       9.069258192196e-03 
       1.424266598317e-05       9.766638404422e-03 
       1.537887697396e-05       1.051764069682e-02 
       1.660572938097e-05       1.132639105520e-02 
       1.793045413791e-05       1.219733231417e-02 
       1.936085902737e-05       1.313524224381e-02 
       2.090537469909e-05       1.414527121894e-02 
       2.257310435923e-05       1.523296272192e-02 
       2.437387742372e-05       1.640429444530e-02 
       2.631830745176e-05       1.766569582178e-02 
       2.841785470091e-05       1.902408601793e-02 
       3.068489367268e-05       2.048692970592e-02 
       3.313278604643e-05       2.206225513594e-02 
       3.577595943165e-05       2.375870704909e-02 
       3.862999240274e-05       2.558560727479e-02 
       4.171170631739e-05       2.755297763344e-02 
       4.503926445983e-05       2.967161927316e-02 
       4.863227909323e-05       3.195316450832e-02 
       5.251192705226e-05       3.441013519285e-02 
       5.670107455699e-05       3.705601722530e-02 
       6.122441198393e-05       3.990533413562e-02 
       6.610859938837e-05       4.297372168204e-02 
       7.138242363583e-05       4.627802141689e-02 
       7.707696806873e-05       4.983636194160e-02 
       8.322579570814e-05       5.366826847232e-02 
       8.986514707061e-05       5.779476394570e-02 
       9.703415376577e-05       6.223848243886e-02 
       1.047750691338e-04       6.702379865641e-02 
       1.131335172818e-04       7.217695153382e-02 
       1.221587619877e-04       7.772619073572e-02 
       1.319039970550e-04       8.370193432377e-02 
       1.424266598317e-04       9.013692507549e-02 
       1.537887697396e-04       9.706641242572e-02 
       1.660572938097e-04       1.045283354272e-01 
       1.793045413791e-04       1.125635349068e-01 
       1.936085902737e-04       1.212159614968e-01 
       2.090537469909e-04       1.305329132715e-01 
       2.257310435923e-04       1.405652846215e-01 
       2.437387742372e-04       1.513678302540e-01 
       2.631830745176e-04       1.629994504871e-01 
       2.841785470091e-04       1.755234921225e-01 
       3.068489367268e-04       1.890080670413e-01 
       3.313278604643e-04       2.035264002436e-01 
       3.577595943165e-04       2.191571803681e-01 
       3.862999240274e-04       2.359849437593e-01 
       4.171170631739e-04       2.541004741539e-01 
       4.503926445983e-04       2.736012080278e-01 
       4.863227909323e-04       2.945916790965e-01 
       5.251192705226e-04       3.171839525183e-01 
       5.670107455699e-04       3.414980764002e-01 
       6.122441198393e-04       3.676625413101e-01 
       6.610859938837e-04       3.958147252304e-01 
       7.138242363583e-04       4.261013284918e-01 
       7.707696806873e-04       4.586787792350e-01 
       8.322579570814e-04       4.937136001360e-01 
       8.986514707061e-04       5.313826801402e-01 
       9.703415376577e-04       5.718734972158e-01 
       1.047750691338e-03       6.153841629505e-01 
       1.131335172818e-03       6.621233239466e-01 
       1.221587619877e-03       7.123098220427e-01 
       1.319039970550e-03       7.661720584545e-01 
       1.424266598317e-03       8.239546297732e-01 
       1.537887697396e-03       8.859011173467e-01 
       1.660572938097e-03       9.522588006432e-01 
       1.793045413791e-03       1.023280099819e+00 
       1.936085902737e-03       1.099216304579e+00 
       2.090537469909e-03       1.180312990453e+00 
       2.257310435923e-03       1.266804115851e+00 
       2.437387742372e-03       1.358904853404e+00 
       2.631830745176e-03       1.456802683156e+00 
       2.841785470091e-03       1.560646890521e+00 
       3.068489367268e-03       1.670536062498e+00 
       3.313278604643e-03       1.786503852154e+00 
       3.577595943165e-03       1.908502930787e+00 
       3.862999240274e-03       2.036387730707e+00 
       4.171170631739e-03       2.169896178454e+00 
       4.503926445983e-03       2.308631878990e+00 
       4.863227909323e-03       2.452047290957e+00 
       5.251192705226e-03       2.599430628082e+00 
       5.670107455699e-03       2.749896931799e+00 
       6.122441198393e-03       2.902386513376e+00 
       6.610859938837e-03       3.055668712424e+00 
       7.138242363583e-03       3.208356461527e+00 
       7.707696806873e-03       3.358923892468e+00 
       8.322579570814e-03       3.505725595141e+00 
       8.986514707061e-03       3.647009612343e+00 
       9.703415376577e-03       3.780923304234e+00 
       1.047750691338e-02       3.905490965050e+00 
       1.131335172818e-02       4.018587997959e+00 
       1.221587619877e-02       4.117901585457e+00 
       1.319039970550e-02       4.200915323635e+00 
       1.424266598317e-02       4.264941452408e+00 
       1.537887697392e-02       4.307217326105e+00 
       1.660572938023e-02       4.325062188142e+00 
       1.793045412706e-02       4.316057956325e+00 
       1.936085890181e-02       4.278232197704e+00 
       2.090537352463e-02       4.210204723738e+00 
       2.257309535333e-02       4.111423775017e+00 
       2.437382002918e-02       3.982420551181e+00 
       2.631799944462e-02       3.825165480477e+00 
       2.841644545389e-02       3.643282554521e+00 
       3.067933355377e-02       3.442199250217e+00 
       3.311368470740e-02       3.229238779863e+00 
       3.571840443502e-02       3.013517574199e+00 
       3.847720348444e-02       2.805282476809e+00 
       4.135335538431e-02       2.614413496682e+00 
       4.429361667738e-02       2.448122319396e+00 
       4.724366439141e-02       2.309231314511e+00 
       5.016480835311e-02       2.196111911799e+00 
       5.303989620246e-02       2.104363672478e+00 
       5.586870669566e-02       2.028465308455e+00 
       5.866042680613e-02       1.963149926236e+00 
       6.142798932958e-02       1.903781143999e+00 
       6.418496440164e-02       1.846478271720e+00 
       6.694418833788e-02       1.788197072952e+00 
       6.971731106057e-02       1.726716190731e+00 
       7.251476155766e-02       1.660654952040e+00 
       7.534587671527e-02       1.589472313874e+00 
       7.821907666265e-02       1.513436600935e+00 
       8.114203772912e-02       1.433567551804e+00 
       8.412184535029e-02       1.351491156657e+00 
       8.716512279304e-02       1.269273100155e+00 
       9.027813695930e-02       1.189197414126e+00 
       9.346688431697e-02       1.113496937033e+00 
       9.673716028276e-02       1.044179150163e+00 
       1.000946150830e-01       9.827073535218e-01 
       1.035447986537e-01       9.299405988488e-01 
       1.070931966762e-01       8.859605194857e-01 
       1.107452594425e-01       8.500719482354e-01 
       1.145064249153e-01       8.208031009391e-01 
       1.183821370918e-01       7.960248986369e-01 
       1.223778605862e-01       7.731463763827e-01 
       1.264990921987e-01       7.494513294617e-01 
       1.307513701367e-01       7.225575825902e-01 
       1.351402814784e-01       6.909088967751e-01 
       1.396714684203e-01       6.541803617198e-01 
       1.443506338194e-01       6.134266609160e-01 
       1.491835465229e-01       5.708675436979e-01 
       1.541760469708e-01       5.293645553199e-01 
       1.593340535561e-01       4.917106011488e-01 
       1.646635702297e-01       4.599195027340e-01 
       1.701706958456e-01       4.347276178107e-01 
       1.758616357459e-01       4.154086996320e-01 
       1.817427160982e-01       3.999374240166e-01 
       1.878204015065e-01       3.856829432679e-01 
       1.941013164283e-01       3.698088745357e-01 
       2.005922709503e-01       3.505465480648e-01 
       2.073002914972e-01       3.280429298651e-01 
       2.142326570816e-01       3.042148696364e-01 
       2.213969417533e-01       2.816111697048e-01 
       2.288010639706e-01       2.622567442563e-01 
       2.364533437147e-01       2.469626739132e-01 
       2.443625682930e-01       2.350131595059e-01 
       2.525380679504e-01       2.244197312211e-01 
       2.609898026346e-01       2.130955903331e-01 
       2.697284615565e-01       2.001018684417e-01 
       2.787655775689e-01       1.860203860307e-01 
       2.881136588829e-01       1.725167401463e-01 
       2.977863412677e-01       1.610658082655e-01 
       3.077985646929e-01       1.517609726593e-01 
       3.181667794071e-01       1.435593253094e-01 
       3.289091877812e-01       1.351816674306e-01 
       3.400460299658e-01       1.261643305039e-01 
       3.515999236474e-01       1.172017351619e-01 
       3.635962711085e-01       1.091763856916e-01 
       3.760637506334e-01       1.023093945520e-01 
       3.890349143879e-01       9.593754336556e-02 
       4.025469216825e-01       8.950769541980e-02 
       4.166424456376e-01       8.311171360854e-02 
       4.313708035863e-01       7.721561976624e-02 
       4.467893782977e-01       7.190073316725e-02 
       4.629654199664e-01       6.686897378859e-02 
       4.799783501994e-01       6.191738504083e-02 
       4.979227319373e-01       5.722211725081e-02 
       5.169121270864e-01       5.290273379395e-02 
       5.370841404489e-01       4.876961193322e-02 
       5.586070464571e-01       4.479084675007e-02 
       5.816885094930e-01       4.105183178132e-02 
       6.065870144995e-01       3.748977407564e-02 
       6.336266468475e-01       3.407621509616e-02 
       6.632156059511e-01       3.083456066029e-02 
       6.958678639263e-01       2.772829121993e-02 
       7.322247985589e-01       2.476705384927e-02 
       7.730680195114e-01       2.193955119171e-02 
       8.193049553677e-01       1.925607023004e-02 
       8.718988016039e-01       1.672926521394e-02 
       9.317218031082e-01       1.438412229001e-02 
       9.993660908989e-01       1.225060217141e-02 
       1.075037110174e+00       1.035259709536e-02 
       1.158653485707e+00       8.699693545481e-03 
       1.250099157308e+00       7.284577479053e-03 
       1.349432401273e+00       6.085447520391e-03 
       1.456947457397e+00       5.075709579551e-03 
       1.573135111331e+00       4.228295554931e-03 
       1.698621895592e+00       3.518533760633e-03 
       1.834127512934e+00       2.924961353475e-03 
       1.980444934528e+00       2.429151804259e-03 
       2.138435191726e+00       2.015491375618e-03 
       2.309029199186e+00       1.670748152797e-03 
       2.493232377687e+00       1.383781390490e-03 
       2.692130395285e+00       1.145116412518e-03 
       2.906895534573e+00       9.468392456092e-04 
       3.138793597714e+00       7.822772769797e-04 
       3.389191366484e+00       6.458120389711e-04 
       3.659564657905e+00       5.327537940343e-04 
       3.951507022538e+00       4.391685297046e-04 
       4.266739136701e+00       3.617738183707e-04 
       4.607118943941e+00       2.978143502055e-04 
       4.974652605557e+00       2.449983177213e-04 
       5.371506324689e+00       2.014198236381e-04 
       5.800019113685e+00       1.654898024055e-04 
       6.262716579983e+00       1.358873367711e-04 
       6.762325811764e+00       1.115129912984e-04 
       7.301791451110e+00       9.145932088250e-05 
       7.884293049406e+00       7.496838074538e-05 
       8.513263807261e+00       6.141822479787e-05 
       9.192410809424e+00       5.028934574985e-05 
       9.925736873929e+00       4.115535267842e-05 
       1.071756414427e+01       3.366299187324e-05 
       1.157255956364e+01       2.752037691519e-05 
       1.249576238137e+01       2.248660200510e-05 
       1.349261385375e+01       1.836435813261e-05 
       1.456898931416e+01       1.498988783194e-05 
       1.573123280165e+01       1.222883367807e-05 
       1.698619445202e+01       9.970732391424e-06 
       1.834127087176e+01       8.124743645016e-06 
       1.980444873285e+01       6.616262799739e-06 
       2.138435184532e+01       5.384036531129e-06 
       2.309029198506e+01       4.377860653196e-06 
       2.493232377636e+01       3.556406467728e-06 
       2.692130395282e+01       2.885955656662e-06 
       2.906895534573e+01       2.338896907022e-06 
       3.138793597714e+01       1.892537766897e-06 
       3.389191366484e+01       1.528411925807e-06 
       3.659564657905e+01       1.231322976500e-06 
       3.951507022538e+01       9.889387802405e-07 
       4.266739136701e+01       7.911915402756e-07 
       4.607118943941e+01       6.298313899303e-07 
       4.974652605557e+01       4.981985251256e-07 
       5.371506324689e+01       3.908275086524e-07 
       5.800019113685e+01       3.033387968978e-07 
       6.262716579983e+01       2.321850801571e-07 
       6.762325811764e+01       1.745064924227e-07 
