# Matter power spectrum P(k) at redshift z=99
# for k=1.04775e-05 to 134.926 h/Mpc,
# number of wavenumbers equal to 255
#    1:k (h/Mpc)              2:P (Mpc/h)^3        
       1.047750691338e-05       7.261927095214e-03 
       1.131335172818e-05       7.820332150679e-03 
       1.221587619877e-05       8.421675382248e-03 
       1.319039970550e-05       9.069257737915e-03 
       1.424266598317e-05       9.766636451030e-03 
       1.537887697396e-05       1.051763973631e-02 
       1.660572938097e-05       1.132639250741e-02 
       1.793045413791e-05       1.219733201497e-02 
       1.936085902737e-05       1.313524187190e-02 
       2.090537469909e-05       1.414527084964e-02 
       2.257310435923e-05       1.523296544478e-02 
       2.437387742372e-05       1.640429654626e-02 
       2.631830745176e-05       1.766569603271e-02 
       2.841785470091e-05       1.902408711146e-02 
       3.068489367268e-05       2.048692967427e-02 
       3.313278604643e-05       2.206225467531e-02 
       3.577595943165e-05       2.375870883833e-02 
       3.862999240274e-05       2.558560669802e-02 
       4.171170631739e-05       2.755297672486e-02 
       4.503926445983e-05       2.967161933390e-02 
       4.863227909323e-05       3.195316455631e-02 
       5.251192705226e-05       3.441013466108e-02 
       5.670107455699e-05       3.705601741673e-02 
       6.122441198393e-05       3.990533412805e-02 
       6.610859938837e-05       4.297372242498e-02 
       7.138242363583e-05       4.627802054814e-02 
       7.707696806873e-05       4.983636159848e-02 
       8.322579570814e-05       5.366826786891e-02 
       8.986514707061e-05       5.779476319688e-02 
       9.703415376577e-05       6.223848221787e-02 
       1.047750691338e-04       6.702379824969e-02 
       1.131335172818e-04       7.217695031024e-02 
       1.221587619877e-04       7.772619030302e-02 
       1.319039970550e-04       8.370193379977e-02 
       1.424266598317e-04       9.013692506600e-02 
       1.537887697396e-04       9.706641130327e-02 
       1.660572938097e-04       1.045283343103e-01 
       1.793045413791e-04       1.125635329177e-01 
       1.936085902737e-04       1.212159592301e-01 
       2.090537469909e-04       1.305329107427e-01 
       2.257310435923e-04       1.405652819352e-01 
       2.437387742372e-04       1.513678275066e-01 
       2.631830745176e-04       1.629994475123e-01 
       2.841785470091e-04       1.755234890468e-01 
       3.068489367268e-04       1.890080645289e-01 
       3.313278604643e-04       2.035263977421e-01 
       3.577595943165e-04       2.191571778033e-01 
       3.862999240274e-04       2.359849423249e-01 
       4.171170631739e-04       2.541004712990e-01 
       4.503926445983e-04       2.736012061147e-01 
       4.863227909323e-04       2.945916774630e-01 
       5.251192705226e-04       3.171839507851e-01 
       5.670107455699e-04       3.414980769094e-01 
       6.122441198393e-04       3.676625416287e-01 
       6.610859938837e-04       3.958147272850e-01 
       7.138242363583e-04       4.261013332050e-01 
       7.707696806873e-04       4.586787880835e-01 
       8.322579570814e-04       4.937136112807e-01 
       8.986514707061e-04       5.313826962063e-01 
       9.703415376577e-04       5.718735176791e-01 
       1.047750691338e-03       6.153841926238e-01 
       1.131335172818e-03       6.621233623112e-01 
       1.221587619877e-03       7.123098743645e-01 
       1.319039970550e-03       7.661721263781e-01 
       1.424266598317e-03       8.239547181300e-01 
       1.537887697396e-03       8.859012282819e-01 
       1.660572938097e-03       9.522589495761e-01 
       1.793045413791e-03       1.023280284738e+00 
       1.936085902737e-03       1.099216542130e+00 
       2.090537469909e-03       1.180313285064e+00 
       2.257310435923e-03       1.266804486841e+00 
       2.437387742372e-03       1.358905328501e+00 
       2.631830745176e-03       1.456803285994e+00 
       2.841785470091e-03       1.560647663089e+00 
       3.068489367268e-03       1.670537010638e+00 
       3.313278604643e-03       1.786505039712e+00 
       3.577595943165e-03       1.908504410205e+00 
       3.862999240274e-03       2.036389468861e+00 
       4.171170631739e-03       2.169898252923e+00 
       4.503926445983e-03       2.308634492112e+00 
       4.863227909323e-03       2.452050674944e+00 
       5.251192705226e-03       2.599434681332e+00 
       5.670107455699e-03       2.749901126702e+00 
       6.122441198393e-03       2.902390058613e+00 
       6.610859938837e-03       3.055671270174e+00 
       7.138242363583e-03       3.208360123271e+00 
       7.707696806873e-03       3.358926651891e+00 
       8.322579570814e-03       3.505726890539e+00 
       8.986514707061e-03       3.647012438719e+00 
       9.703415376577e-03       3.780926180480e+00 
       1.047750691338e-02       3.905492882175e+00 
       1.131335172818e-02       4.018589827993e+00 
       1.221587619877e-02       4.117902891333e+00 
       1.319039970550e-02       4.200917703686e+00 
       1.424266598317e-02       4.264943743242e+00 
       1.537887697392e-02       4.307219675212e+00 
       1.660572938023e-02       4.325062464914e+00 
       1.793045412706e-02       4.316060378922e+00 
       1.936085890181e-02       4.278228774905e+00 
       2.090537352463e-02       4.210204485883e+00 
       2.257309535333e-02       4.111418762874e+00 
       2.437382002918e-02       3.982420952573e+00 
       2.631799944462e-02       3.825168702507e+00 
       2.841644545389e-02       3.643282264156e+00 
       3.067933355377e-02       3.442198724155e+00 
       3.311368470740e-02       3.229241618491e+00 
       3.571840443502e-02       3.013516356056e+00 
       3.847720348444e-02       2.805283968754e+00 
       4.135335538431e-02       2.614410697036e+00 
       4.429361667738e-02       2.448132220449e+00 
       4.724366439141e-02       2.309240697651e+00 
       5.016480835311e-02       2.196115227526e+00 
       5.303989620246e-02       2.104369767701e+00 
       5.586870669566e-02       2.028462513127e+00 
       5.866042680613e-02       1.963155244073e+00 
       6.142798932958e-02       1.903779657705e+00 
       6.418496440164e-02       1.846479176201e+00 
       6.694418833788e-02       1.788197458373e+00 
       6.971731106057e-02       1.726715675577e+00 
       7.251476155766e-02       1.660654411615e+00 
       7.534587671527e-02       1.589470604177e+00 
       7.821907666265e-02       1.513437440958e+00 
       8.114203772912e-02       1.433569650027e+00 
       8.412184535029e-02       1.351493076998e+00 
       8.716512279304e-02       1.269273860928e+00 
       9.027813695930e-02       1.189193355021e+00 
       9.346688431697e-02       1.113501361262e+00 
       9.673716028276e-02       1.044174698163e+00 
       1.000946150830e-01       9.827062401478e-01 
       1.035447986537e-01       9.299376254244e-01 
       1.070931966762e-01       8.859588308541e-01 
       1.107452594425e-01       8.500714568530e-01 
       1.145064249153e-01       8.208037001536e-01 
       1.183821370918e-01       7.960245736595e-01 
       1.223778605862e-01       7.731459274262e-01 
       1.264990921987e-01       7.494522045727e-01 
       1.307513701367e-01       7.225572882848e-01 
       1.351402814784e-01       6.909086333109e-01 
       1.396714684203e-01       6.541808933580e-01 
       1.443506338194e-01       6.134264415613e-01 
       1.491835465229e-01       5.708676220673e-01 
       1.541760469708e-01       5.293631132842e-01 
       1.593340535561e-01       4.917108348633e-01 
       1.646635702297e-01       4.599197364051e-01 
       1.701706958456e-01       4.347277578996e-01 
       1.758616357459e-01       4.154080003761e-01 
       1.817427160982e-01       3.999367092350e-01 
       1.878204015065e-01       3.856821871831e-01 
       1.941013164283e-01       3.698088297143e-01 
       2.005922709503e-01       3.505458673594e-01 
       2.073002914972e-01       3.280424935908e-01 
       2.142326570816e-01       3.042129169117e-01 
       2.213969417533e-01       2.816118044591e-01 
       2.288010639706e-01       2.622564715301e-01 
       2.364533437147e-01       2.469613110451e-01 
       2.443625682930e-01       2.350121809728e-01 
       2.525380679504e-01       2.244169758267e-01 
       2.609898026346e-01       2.130929168655e-01 
       2.697284615565e-01       2.001008264486e-01 
       2.787655775689e-01       1.860189643002e-01 
       2.881136588829e-01       1.725162868776e-01 
       2.977863412677e-01       1.610649036882e-01 
       3.077985646929e-01       1.517598074432e-01 
       3.181667794071e-01       1.435581119433e-01 
       3.289091877812e-01       1.351803064023e-01 
       3.400460299658e-01       1.261630460753e-01 
       3.515999236474e-01       1.172004263728e-01 
       3.635962711085e-01       1.091754061484e-01 
       3.760637506334e-01       1.023079763031e-01 
       3.890349143879e-01       9.593592215772e-02 
       4.025469216825e-01       8.950586216317e-02 
       4.166424456376e-01       8.310977069117e-02 
       4.313708035863e-01       7.721350782669e-02 
       4.467893782977e-01       7.189858605009e-02 
       4.629654199664e-01       6.686700922204e-02 
       4.799783501994e-01       6.191532411677e-02 
       4.979227319373e-01       5.721993883753e-02 
       5.169121270864e-01       5.290043403776e-02 
       5.370841404489e-01       4.876717426030e-02 
       5.586070464571e-01       4.478814696600e-02 
       5.816885094930e-01       4.104905374724e-02 
       6.065870144995e-01       3.748694507446e-02 
       6.336266468475e-01       3.407315976374e-02 
       6.632156059511e-01       3.083129624571e-02 
       6.958678639263e-01       2.772485564794e-02 
       7.322247985589e-01       2.476340970139e-02 
       7.730680195114e-01       2.193566512481e-02 
       8.193049553677e-01       1.925206689879e-02 
       8.718988016039e-01       1.672487610019e-02 
       9.317218031082e-01       1.437950020164e-02 
       9.993660908989e-01       1.224565293079e-02 
       1.075037110174e+00       1.034721802941e-02 
       1.158653485707e+00       8.693913931710e-03 
       1.250099157308e+00       7.278358354656e-03 
       1.349432401273e+00       6.078816492783e-03 
       1.456947457397e+00       5.068615519727e-03 
       1.573135111331e+00       4.220699728735e-03 
       1.698621895592e+00       3.510489107654e-03 
       1.834127512934e+00       2.916385441282e-03 
       1.980444934528e+00       2.420033052730e-03 
       2.138435191726e+00       2.005838228067e-03 
       2.309029199186e+00       1.660538273976e-03 
       2.493232377687e+00       1.372990529284e-03 
       2.692130395285e+00       1.133750736766e-03 
       2.906895534573e+00       9.348951776568e-04 
       3.138793597714e+00       7.697432018036e-04 
       3.389191366484e+00       6.326949934889e-04 
       3.659564657905e+00       5.190658326252e-04 
       3.951507022538e+00       4.249197010336e-04 
       4.266739136701e+00       3.469817026975e-04 
       4.607118943941e+00       2.825056336743e-04 
       4.974652605557e+00       2.292152256594e-04 
       5.371506324689e+00       1.852037012614e-04 
       5.800019113685e+00       1.488981149440e-04 
       6.262716579983e+00       1.189860402375e-04 
       6.762325811764e+00       9.438461133544e-05 
       7.301791451110e+00       7.419856118683e-05 
       7.884293049406e+00       5.768549365066e-05 
       8.513263807261e+00       4.423416311380e-05 
       9.192410809424e+00       3.334486288443e-05 
       9.925736873929e+00       2.459984699305e-05 
       1.071756414427e+01       1.765718686720e-05 
       1.157255956364e+01       1.223094120632e-05 
       1.249576238137e+01       8.081900212006e-06 
       1.349261385375e+01       5.004770125690e-06 
       1.456898931416e+01       2.821043455854e-06 
       1.573123280165e+01       1.370931730902e-06 
       1.698619445202e+01       5.076881272186e-07 
       1.834127087176e+01       9.419952318279e-08 
       1.980444873285e+01       1.793688551715e-09 
       2.138435184532e+01       1.106417081830e-07 
       2.309029198506e+01       3.141122865126e-07 
       2.493232377636e+01       5.231774644352e-07 
       2.692130395282e+01       6.731416774618e-07 
       2.906895534573e+01       7.273539481996e-07 
       3.138793597714e+01       6.772177019063e-07 
       3.389191366484e+01       5.477622644863e-07 
       3.659564657905e+01       3.759602699167e-07 
       3.951507022538e+01       2.074826372131e-07 
       4.266739136701e+01       8.227030126638e-08 
       4.607118943941e+01       1.515585402755e-08 
       4.974652605557e+01       2.285126273969e-10 
       5.371506324689e+01       1.544546541378e-08 
       5.800019113685e+01       2.738354815816e-08 
       6.262716579983e+01       3.736265119177e-08 
       6.762325811764e+01       2.717627697942e-08 
       7.301791451110e+01       1.173888934672e-08 
       7.884293049406e+01       1.778678595853e-09 
       8.513263807261e+01       1.361545604266e-10 
       9.192410809424e+01       1.863394396211e-09 
       9.925736873929e+01       2.308052548254e-09 
       1.071756414427e+02       1.187385070460e-09 
       1.157255956364e+02       1.464849234641e-10 
       1.249576238137e+02       3.689726374277e-11 
       1.349261385375e+02       1.996342493908e-10 
