# Matter power spectrum P(k) at redshift z=99
# for k=1.04775e-05 to 67.6233 h/Mpc,
# number of wavenumbers equal to 246
#    1:k (h/Mpc)              2:P (Mpc/h)^3        
       1.047750691338e-05       7.261927673487e-03 
       1.131335172818e-05       7.820331746133e-03 
       1.221587619877e-05       8.421675986917e-03 
       1.319039970550e-05       9.069258192654e-03 
       1.424266598317e-05       9.766638404916e-03 
       1.537887697396e-05       1.051764069734e-02 
       1.660572938097e-05       1.132639105577e-02 
       1.793045413791e-05       1.219733231478e-02 
       1.936085902737e-05       1.313524224447e-02 
       2.090537469909e-05       1.414527121965e-02 
       2.257310435923e-05       1.523296272269e-02 
       2.437387742372e-05       1.640429444613e-02 
       2.631830745176e-05       1.766569582271e-02 
       2.841785470091e-05       1.902408601880e-02 
       3.068489367268e-05       2.048692970696e-02 
       3.313278604643e-05       2.206225513705e-02 
       3.577595943165e-05       2.375870705027e-02 
       3.862999240274e-05       2.558560727608e-02 
       4.171170631739e-05       2.755297763483e-02 
       4.503926445983e-05       2.967161927472e-02 
       4.863227909323e-05       3.195316450994e-02 
       5.251192705226e-05       3.441013519458e-02 
       5.670107455699e-05       3.705601722707e-02 
       6.122441198393e-05       3.990533413802e-02 
       6.610859938837e-05       4.297372168420e-02 
       7.138242363583e-05       4.627802141925e-02 
       7.707696806873e-05       4.983636194411e-02 
       8.322579570814e-05       5.366826847502e-02 
       8.986514707061e-05       5.779476394858e-02 
       9.703415376577e-05       6.223848244213e-02 
       1.047750691338e-04       6.702379865979e-02 
       1.131335172818e-04       7.217695153752e-02 
       1.221587619877e-04       7.772619073995e-02 
       1.319039970550e-04       8.370193432806e-02 
       1.424266598317e-04       9.013692507997e-02 
       1.537887697396e-04       9.706641243059e-02 
       1.660572938097e-04       1.045283354324e-01 
       1.793045413791e-04       1.125635349125e-01 
       1.936085902737e-04       1.212159615029e-01 
       2.090537469909e-04       1.305329132780e-01 
       2.257310435923e-04       1.405652846285e-01 
       2.437387742372e-04       1.513678302616e-01 
       2.631830745176e-04       1.629994504951e-01 
       2.841785470091e-04       1.755234921311e-01 
       3.068489367268e-04       1.890080670506e-01 
       3.313278604643e-04       2.035264002535e-01 
       3.577595943165e-04       2.191571803788e-01 
       3.862999240274e-04       2.359849437707e-01 
       4.171170631739e-04       2.541004741661e-01 
       4.503926445983e-04       2.736012080409e-01 
       4.863227909323e-04       2.945916791105e-01 
       5.251192705226e-04       3.171839525331e-01 
       5.670107455699e-04       3.414980764159e-01 
       6.122441198393e-04       3.676625413267e-01 
       6.610859938837e-04       3.958147252480e-01 
       7.138242363583e-04       4.261013285093e-01 
       7.707696806873e-04       4.586787792547e-01 
       8.322579570814e-04       4.937136001555e-01 
       8.986514707061e-04       5.313826801608e-01 
       9.703415376577e-04       5.718734972370e-01 
       1.047750691338e-03       6.153841629716e-01 
       1.131335172818e-03       6.621233239677e-01 
       1.221587619877e-03       7.123098220624e-01 
       1.319039970550e-03       7.661720584849e-01 
       1.424266598317e-03       8.239546297900e-01 
       1.537887697396e-03       8.859011173609e-01 
       1.660572938097e-03       9.522588006490e-01 
       1.793045413791e-03       1.023280099813e+00 
       1.936085902737e-03       1.099216304550e+00 
       2.090537469909e-03       1.180312990389e+00 
       2.257310435923e-03       1.266804115731e+00 
       2.437387742372e-03       1.358904853201e+00 
       2.631830745176e-03       1.456802682826e+00 
       2.841785470091e-03       1.560646890003e+00 
       3.068489367268e-03       1.670536061705e+00 
       3.313278604643e-03       1.786503850950e+00 
       3.577595943165e-03       1.908502928970e+00 
       3.862999240274e-03       2.036387727995e+00 
       4.171170631739e-03       2.169896200843e+00 
       4.503926445983e-03       2.308631873003e+00 
       4.863227909323e-03       2.452047282089e+00 
       5.251192705226e-03       2.599430614961e+00 
       5.670107455699e-03       2.749896912555e+00 
       6.122441198393e-03       2.902386484773e+00 
       6.610859938837e-03       3.055668672192e+00 
       7.138242363583e-03       3.208356399180e+00 
       7.707696806873e-03       3.358923801472e+00 
       8.322579570814e-03       3.505724949310e+00 
       8.986514707061e-03       3.647009939729e+00 
       9.703415376577e-03       3.780923019092e+00 
       1.047750691338e-02       3.905490856675e+00 
       1.131335172818e-02       4.018587343203e+00 
       1.221587619877e-02       4.117902207842e+00 
       1.319039970550e-02       4.200913845006e+00 
       1.424266598317e-02       4.264940516186e+00 
       1.537887697392e-02       4.307214921157e+00 
       1.660572938023e-02       4.325056988945e+00 
       1.793045412706e-02       4.316053852292e+00 
       1.936085890181e-02       4.278224760016e+00 
       2.090537352463e-02       4.210195831402e+00 
       2.257309535333e-02       4.111410523461e+00 
       2.437382002918e-02       3.982398320686e+00 
       2.631799944462e-02       3.825140558674e+00 
       2.841644545389e-02       3.643250066844e+00 
       3.067933355377e-02       3.442164408993e+00 
       3.311368470740e-02       3.229179492319e+00 
       3.571840443502e-02       3.013448089378e+00 
       3.847720348444e-02       2.805211085277e+00 
       4.135335538431e-02       2.614311418026e+00 
       4.429361667738e-02       2.448027226181e+00 
       4.724366439141e-02       2.309105817375e+00 
       5.016480835311e-02       2.195966946906e+00 
       5.303989620246e-02       2.104190232791e+00 
       5.586870669566e-02       2.028266967750e+00 
       5.866042680613e-02       1.962934518668e+00 
       6.142798932958e-02       1.903534004441e+00 
       6.418496440164e-02       1.846206678495e+00 
       6.694418833788e-02       1.787895548269e+00 
       6.971731106057e-02       1.726384405896e+00 
       7.251476155766e-02       1.660287179036e+00 
       7.534587671527e-02       1.589069591577e+00 
       7.821907666265e-02       1.513001906211e+00 
       8.114203772912e-02       1.433097212031e+00 
       8.412184535029e-02       1.350981614013e+00 
       8.716512279304e-02       1.268727425879e+00 
       9.027813695930e-02       1.188604776709e+00 
       9.346688431697e-02       1.112870851126e+00 
       9.673716028276e-02       1.043505792205e+00 
       1.000946150830e-01       9.819937406266e-01 
       1.035447986537e-01       9.291784011029e-01 
       1.070931966762e-01       8.851541102214e-01 
       1.107452594425e-01       8.492109914087e-01 
       1.145064249153e-01       8.198860848493e-01 
       1.183821370918e-01       7.950435198355e-01 
       1.223778605862e-01       7.720977573475e-01 
       1.264990921987e-01       7.483325025550e-01 
       1.307513701367e-01       7.213607750838e-01 
       1.351402814784e-01       6.896367198545e-01 
       1.396714684203e-01       6.528321849560e-01 
       1.443506338194e-01       6.120021226957e-01 
       1.491835465229e-01       5.693684045850e-01 
       1.541760469708e-01       5.277885061924e-01 
       1.593340535561e-01       4.900590058633e-01 
       1.646635702297e-01       4.581837434810e-01 
       1.701706958456e-01       4.328978385058e-01 
       1.758616357459e-01       4.134733599954e-01 
       1.817427160982e-01       3.978865082139e-01 
       1.878204015065e-01       3.835098168764e-01 
       1.941013164283e-01       3.675089342950e-01 
       2.005922709503e-01       3.481232573411e-01 
       2.073002914972e-01       3.255040714698e-01 
       2.142326570816e-01       3.015641455251e-01 
       2.213969417533e-01       2.788491058691e-01 
       2.288010639706e-01       2.593733741925e-01 
       2.364533437147e-01       2.439405379403e-01 
       2.443625682930e-01       2.318356327325e-01 
       2.525380679504e-01       2.210734519691e-01 
       2.609898026346e-01       2.095838946664e-01 
       2.697284615565e-01       1.964366213998e-01 
       2.787655775689e-01       1.822087122972e-01 
       2.881136588829e-01       1.685600563714e-01 
       2.977863412677e-01       1.569479874559e-01 
       3.077985646929e-01       1.474621196850e-01 
       3.181667794071e-01       1.390664915682e-01 
       3.289091877812e-01       1.304974159980e-01 
       3.400460299658e-01       1.213017737077e-01 
       3.515999236474e-01       1.121656077843e-01 
       3.635962711085e-01       1.039559755847e-01 
       3.760637506334e-01       9.688565794996e-02 
       3.890349143879e-01       9.030424543283e-02 
       4.025469216825e-01       8.367148820895e-02 
       4.166424456376e-01       7.708011265723e-02 
       4.313708035863e-01       7.098207596867e-02 
       4.467893782977e-01       6.545311509593e-02 
       4.629654199664e-01       6.020593016568e-02 
       4.799783501994e-01       5.504624234194e-02 
       4.979227319373e-01       5.014278175409e-02 
       5.169121270864e-01       4.560772351769e-02 
       5.370841404489e-01       4.126271936165e-02 
       5.586070464571e-01       3.707781881334e-02 
       5.816885094930e-01       3.313334059194e-02 
       6.065870144995e-01       2.937225775995e-02 
       6.336266468475e-01       2.577066459642e-02 
       6.632156059511e-01       2.235223218092e-02 
       6.958678639263e-01       1.908942712225e-02 
       7.322247985589e-01       1.599808097799e-02 
       7.730680195114e-01       1.307975654591e-02 
       8.193049553677e-01       1.036005850142e-02 
       8.718988016039e-01       7.873300437949e-03 
       9.317218031082e-01       5.669444298148e-03 
       9.993660908989e-01       3.803172340234e-03 
       1.075037110174e+00       2.317068210854e-03 
       1.158653485707e+00       1.226218140148e-03 
       1.250099157308e+00       5.118846289757e-04 
       1.349432401273e+00       1.259499276521e-04 
       1.456947457397e+00       1.101015300766e-06 
       1.573135111331e+00       5.887725242948e-05 
       1.698621895592e+00       2.171192229681e-04 
       1.834127512934e+00       3.979643259298e-04 
       1.980444934528e+00       5.371735095404e-04 
       2.138435191726e+00       5.932468767118e-04 
       2.309029199186e+00       5.539963885680e-04 
       2.493232377687e+00       4.370572842135e-04 
       2.692130395285e+00       2.824949409847e-04 
       2.906895534573e+00       1.378121356830e-04 
       3.138793597714e+00       3.996011708529e-05 
       3.389191366484e+00       1.520230974746e-06 
       3.659564657905e+00       8.310542467980e-06 
       3.951507022538e+00       3.060186504771e-05 
       4.266739136701e+00       4.199970951206e-05 
       4.607118943941e+00       3.397090088081e-05 
       4.974652605557e+00       1.607382618217e-05 
       5.371506324689e+00       2.885611429003e-06 
       5.800019113685e+00       1.357166014284e-07 
       6.262716579983e+00       2.637914100628e-06 
       6.762325811764e+00       3.444449176705e-06 
       7.301791451110e+00       1.601176280150e-06 
       7.884293049406e+00       1.223284134993e-07 
       8.513263807261e+00       1.294925843652e-07 
       9.192410809424e+00       3.261566535065e-07 
       9.925736873929e+00       1.228155366936e-07 
       1.071756414427e+01       5.536331691633e-11 
       1.157255956364e+01       2.925508929655e-08 
       1.249576238137e+01       1.559098605962e-08 
       1.349261385375e+01       1.436895050030e-12 
       1.456898931416e+01       2.949164973551e-09 
       1.573123280165e+01       4.606942746010e-10 
       1.698619445202e+01       2.268146509146e-10 
       1.834127087176e+01       1.380307202426e-10 
       1.980444873285e+01       9.695655729360e-12 
       2.138435184532e+01       9.007942989928e-12 
       2.309029198506e+01       3.469202242652e-12 
       2.493232377636e+01       1.110724710398e-12 
       2.692130395282e+01       1.552388994638e-14 
       2.906895534573e+01       1.738453895900e-13 
       3.138793597714e+01       1.070294978881e-13 
       3.389191366484e+01       2.119893464159e-14 
       3.659564657905e+01       5.648551403928e-14 
       3.951507022538e+01       4.284397427835e-14 
       4.266739136701e+01       1.364061343485e-14 
       4.607118943941e+01       1.288391277772e-14 
       4.974652605557e+01       2.001539943674e-14 
       5.371506324689e+01       3.223223648762e-15 
       5.800019113685e+01       8.116635913058e-15 
       6.262716579983e+01       3.713844185332e-15 
       6.762325811764e+01       2.347680530940e-15 
