# Matter power spectrum P(k) at redshift z=99
# for k=1.04775e-05 to 134.926 h/Mpc,
# number of wavenumbers equal to 255
#    1:k (h/Mpc)              2:P (Mpc/h)^3        
       1.047750691338e-05       7.261927095747e-03 
       1.131335172818e-05       7.820332151253e-03 
       1.221587619877e-05       8.421675382866e-03 
       1.319039970550e-05       9.069257738580e-03 
       1.424266598317e-05       9.766636451747e-03 
       1.537887697396e-05       1.051763973708e-02 
       1.660572938097e-05       1.132639250824e-02 
       1.793045413791e-05       1.219733201583e-02 
       1.936085902737e-05       1.313524187287e-02 
       2.090537469909e-05       1.414527085068e-02 
       2.257310435923e-05       1.523296544590e-02 
       2.437387742372e-05       1.640429654746e-02 
       2.631830745176e-05       1.766569603400e-02 
       2.841785470091e-05       1.902408711287e-02 
       3.068489367268e-05       2.048692967577e-02 
       3.313278604643e-05       2.206225467692e-02 
       3.577595943165e-05       2.375870884007e-02 
       3.862999240274e-05       2.558560669988e-02 
       4.171170631739e-05       2.755297672697e-02 
       4.503926445983e-05       2.967161933606e-02 
       4.863227909323e-05       3.195316455865e-02 
       5.251192705226e-05       3.441013466359e-02 
       5.670107455699e-05       3.705601741944e-02 
       6.122441198393e-05       3.990533413098e-02 
       6.610859938837e-05       4.297372242813e-02 
       7.138242363583e-05       4.627802055353e-02 
       7.707696806873e-05       4.983636160211e-02 
       8.322579570814e-05       5.366826787285e-02 
       8.986514707061e-05       5.779476320111e-02 
       9.703415376577e-05       6.223848222243e-02 
       1.047750691338e-04       6.702379825461e-02 
       1.131335172818e-04       7.217695031381e-02 
       1.221587619877e-04       7.772619030843e-02 
       1.319039970550e-04       8.370193380837e-02 
       1.424266598317e-04       9.013692507196e-02 
       1.537887697396e-04       9.706641131015e-02 
       1.660572938097e-04       1.045283343180e-01 
       1.793045413791e-04       1.125635329259e-01 
       1.936085902737e-04       1.212159591608e-01 
       2.090537469909e-04       1.305329107520e-01 
       2.257310435923e-04       1.405652819454e-01 
       2.437387742372e-04       1.513678275170e-01 
       2.631830745176e-04       1.629994475239e-01 
       2.841785470091e-04       1.755234890593e-01 
       3.068489367268e-04       1.890080645424e-01 
       3.313278604643e-04       2.035263977565e-01 
       3.577595943165e-04       2.191571778188e-01 
       3.862999240274e-04       2.359849423415e-01 
       4.171170631739e-04       2.541004713168e-01 
       4.503926445983e-04       2.736012061336e-01 
       4.863227909323e-04       2.945916774832e-01 
       5.251192705226e-04       3.171839508066e-01 
       5.670107455699e-04       3.414980769323e-01 
       6.122441198393e-04       3.676625416529e-01 
       6.610859938837e-04       3.958147273106e-01 
       7.138242363583e-04       4.261013332318e-01 
       7.707696806873e-04       4.586787881116e-01 
       8.322579570814e-04       4.937136113099e-01 
       8.986514707061e-04       5.313826962364e-01 
       9.703415376577e-04       5.718735177099e-01 
       1.047750691338e-03       6.153841926548e-01 
       1.131335172818e-03       6.621233623419e-01 
       1.221587619877e-03       7.123098743942e-01 
       1.319039970550e-03       7.661721264057e-01 
       1.424266598317e-03       8.239547181556e-01 
       1.537887697396e-03       8.859012283028e-01 
       1.660572938097e-03       9.522589495865e-01 
       1.793045413791e-03       1.023280284730e+00 
       1.936085902737e-03       1.099216542090e+00 
       2.090537469909e-03       1.180313284975e+00 
       2.257310435923e-03       1.266804486675e+00 
       2.437387742372e-03       1.358905328220e+00 
       2.631830745176e-03       1.456803285543e+00 
       2.841785470091e-03       1.560647662383e+00 
       3.068489367268e-03       1.670537009562e+00 
       3.313278604643e-03       1.786505038083e+00 
       3.577595943165e-03       1.908504407789e+00 
       3.862999240274e-03       2.036389538333e+00 
       4.171170631739e-03       2.169898507480e+00 
       4.503926445983e-03       2.308634595245e+00 
       4.863227909323e-03       2.452050704637e+00 
       5.251192705226e-03       2.599434732329e+00 
       5.670107455699e-03       2.749900958609e+00 
       6.122441198393e-03       2.902390056320e+00 
       6.610859938837e-03       3.055671912801e+00 
       7.138242363583e-03       3.208359671715e+00 
       7.707696806873e-03       3.358926427192e+00 
       8.322579570814e-03       3.505727924407e+00 
       8.986514707061e-03       3.647012496817e+00 
       9.703415376577e-03       3.780925718765e+00 
       1.047750691338e-02       3.905492353315e+00 
       1.131335172818e-02       4.018589174022e+00 
       1.221587619877e-02       4.117901974003e+00 
       1.319039970550e-02       4.200916468960e+00 
       1.424266598317e-02       4.264941979004e+00 
       1.537887697392e-02       4.307217239418e+00 
       1.660572938023e-02       4.325059052050e+00 
       1.793045412706e-02       4.316055720949e+00 
       1.936085890181e-02       4.278222561031e+00 
       2.090537352463e-02       4.210195997005e+00 
       2.257309535333e-02       4.111407316906e+00 
       2.437382002918e-02       3.982405803442e+00 
       2.631799944462e-02       3.825148778712e+00 
       2.841644545389e-02       3.643259547093e+00 
       3.067933355377e-02       3.442164588696e+00 
       3.311368470740e-02       3.229199984011e+00 
       3.571840443502e-02       3.013463914988e+00 
       3.847720348444e-02       2.805218918366e+00 
       4.135335538431e-02       2.614332773605e+00 
       4.429361667738e-02       2.448041694965e+00 
       4.724366439141e-02       2.309130618917e+00 
       5.016480835311e-02       2.195989272369e+00 
       5.303989620246e-02       2.104225936389e+00 
       5.586870669566e-02       2.028299884189e+00 
       5.866042680613e-02       1.962972818568e+00 
       6.142798932958e-02       1.903576360882e+00 
       6.418496440164e-02       1.846253720487e+00 
       6.694418833788e-02       1.787949083207e+00 
       6.971731106057e-02       1.726442780338e+00 
       7.251476155766e-02       1.660356171055e+00 
       7.534587671527e-02       1.589145692734e+00 
       7.821907666265e-02       1.513085452585e+00 
       8.114203772912e-02       1.433188650135e+00 
       8.412184535029e-02       1.351082658097e+00 
       8.716512279304e-02       1.268834457143e+00 
       9.027813695930e-02       1.188723272720e+00 
       9.346688431697e-02       1.113000378686e+00 
       9.673716028276e-02       1.043641577701e+00 
       1.000946150830e-01       9.821396188012e-01 
       1.035447986537e-01       9.293346274258e-01 
       1.070931966762e-01       8.853188120231e-01 
       1.107452594425e-01       8.493897633601e-01 
       1.145064249153e-01       8.200783000391e-01 
       1.183821370918e-01       7.952500349153e-01 
       1.223778605862e-01       7.723205180622e-01 
       1.264990921987e-01       7.485714650274e-01 
       1.307513701367e-01       7.216219785267e-01 
       1.351402814784e-01       6.899166968024e-01 
       1.396714684203e-01       6.531327697674e-01 
       1.443506338194e-01       6.123230186500e-01 
       1.491835465229e-01       5.697100842651e-01 
       1.541760469708e-01       5.281512319340e-01 
       1.593340535561e-01       4.904419094784e-01 
       1.646635702297e-01       4.585896248026e-01 
       1.701706958456e-01       4.333295021179e-01 
       1.758616357459e-01       4.139334844096e-01 
       1.817427160982e-01       3.983773525994e-01 
       1.878204015065e-01       3.840341483782e-01 
       1.941013164283e-01       3.680696182260e-01 
       2.005922709503e-01       3.487201965215e-01 
       2.073002914972e-01       3.261355793814e-01 
       2.142326570816e-01       3.022311185063e-01 
       2.213969417533e-01       2.795522231504e-01 
       2.288010639706e-01       2.601129865134e-01 
       2.364533437147e-01       2.447218411296e-01 
       2.443625682930e-01       2.326642279225e-01 
       2.525380679504e-01       2.219535448445e-01 
       2.609898026346e-01       2.105153523192e-01 
       2.697284615565e-01       1.974183384275e-01 
       2.787655775689e-01       1.832393443920e-01 
       2.881136588829e-01       1.696397897044e-01 
       2.977863412677e-01       1.580811667341e-01 
       3.077985646929e-01       1.486542326385e-01 
       3.181667794071e-01       1.403224963871e-01 
       3.289091877812e-01       1.318178231777e-01 
       3.400460299658e-01       1.226835596843e-01 
       3.515999236474e-01       1.136081858971e-01 
       3.635962711085e-01       1.054627925393e-01 
       3.760637506334e-01       9.846249439677e-02 
       3.890349143879e-01       9.195366482197e-02 
       4.025469216825e-01       8.539262561256e-02 
       4.166424456376e-01       7.887106944654e-02 
       4.313708035863e-01       7.284483978790e-02 
       4.467893782977e-01       6.739171682629e-02 
       4.629654199664e-01       6.222090322810e-02 
       4.799783501994e-01       5.713564880921e-02 
       4.979227319373e-01       5.230642110014e-02 
       5.169121270864e-01       4.784766066808e-02 
       5.370841404489e-01       4.357669075556e-02 
       5.586070464571e-01       3.946338337358e-02 
       5.816885094930e-01       3.558901107171e-02 
       6.065870144995e-01       3.189350224498e-02 
       6.336266468475e-01       2.835113298168e-02 
       6.632156059511e-01       2.498468501165e-02 
       6.958678639263e-01       2.176175503067e-02 
       7.322247985589e-01       1.869445832077e-02 
       7.730680195114e-01       1.577774896080e-02 
       8.193049553677e-01       1.302896634419e-02 
       8.718988016039e-01       1.047124780471e-02 
       9.317218031082e-01       8.142777926147e-03 
       9.993660908989e-01       6.087585245685e-03 
       1.075037110174e+00       4.342465133068e-03 
       1.158653485707e+00       2.925384363781e-03 
       1.250099157308e+00       1.830833401606e-03 
       1.349432401273e+00       1.033653924857e-03 
       1.456947457397e+00       4.964296037167e-04 
       1.573135111331e+00       1.764691408623e-04 
       1.698621895592e+00       2.773758805671e-05 
       1.834127512934e+00       2.765155957976e-06 
       1.980444934528e+00       5.470602743838e-05 
       2.138435191726e+00       1.400474470233e-04 
       2.309029199186e+00       2.220958445032e-04 
       2.493232377687e+00       2.745096058922e-04 
       2.692130395285e+00       2.841126784626e-04 
       2.906895534573e+00       2.514548927963e-04 
       3.138793597714e+00       1.896740556602e-04 
       3.389191366484e+00       1.175537538572e-04 
       3.659564657905e+00       5.519709369744e-05 
       3.951507022538e+00       1.536620344072e-05 
       4.266739136701e+00       5.292481550194e-07 
       4.607118943941e+00       3.224677565756e-06 
       4.974652605557e+00       1.151494038771e-05 
       5.371506324689e+00       1.567341057774e-05 
       5.800019113685e+00       1.284215692155e-05 
       6.262716579983e+00       6.433928494198e-06 
       6.762325811764e+00       1.427726204225e-06 
       7.301791451110e+00       4.883957127716e-10 
       7.884293049406e+00       6.793347061144e-07 
       8.513263807261e+00       1.128525976915e-06 
       9.192410809424e+00       6.477350759571e-07 
       9.925736873929e+00       1.006215201201e-07 
       1.071756414427e+01       1.545047161171e-08 
       1.157255956364e+01       8.099969373999e-08 
       1.249576238137e+01       5.188644945032e-08 
       1.349261385375e+01       4.359975076296e-09 
       1.456898931416e+01       5.287257612863e-09 
       1.573123280165e+01       2.524206377446e-09 
       1.698619445202e+01       6.594108655451e-09 
       1.834127087176e+01       2.079122397280e-11 
       1.980444873285e+01       1.130990747593e-09 
       2.138435184532e+01       1.476354791207e-11 
       2.309029198506e+01       6.890582196397e-10 
       2.493232377636e+01       2.285253573582e-09 
       2.692130395282e+01       5.400962536769e-09 
       2.906895534573e+01       2.250882214527e-09 
       3.138793597714e+01       2.672310548828e-09 
       3.389191366484e+01       1.003228196512e-08 
       3.659564657905e+01       2.721297430051e-09 
       3.951507022538e+01       3.569476399924e-08 
       4.266739136701e+01       3.336443502919e-08 
       4.607118943941e+01       9.081131709841e-08 
       4.974652605557e+01       7.397893393481e-09 
       5.371506324689e+01       2.597611163366e-08 
       5.800019113685e+01       1.869045598451e-09 
       6.262716579983e+01       1.471740975688e-07 
       6.762325811764e+01       5.569981890856e-08 
       7.301791451110e+01       2.219659157781e-07 
       7.884293049406e+01       1.384993929779e-08 
       8.513263807261e+01       4.274569507290e-07 
       9.192410809424e+01       3.542418176529e-08 
       9.925736873929e+01       3.283989296115e-10 
       1.071756414427e+02       4.179498728170e-09 
       1.157255956364e+02       3.876843625245e-08 
       1.249576238137e+02       2.352729908896e-09 
       1.349261385375e+02       1.363775440038e-08 
