# Matter power spectrum P(k) at redshift z=99
# for k=1.04775e-05 to 67.6233 h/Mpc,
# number of wavenumbers equal to 246
#    1:k (h/Mpc)              2:P (Mpc/h)^3        
       1.047750691338e-05       7.261927673119e-03 
       1.131335172818e-05       7.820331745737e-03 
       1.221587619877e-05       8.421675986489e-03 
       1.319039970550e-05       9.069258192194e-03 
       1.424266598317e-05       9.766638404421e-03 
       1.537887697396e-05       1.051764069682e-02 
       1.660572938097e-05       1.132639105520e-02 
       1.793045413791e-05       1.219733231416e-02 
       1.936085902737e-05       1.313524224380e-02 
       2.090537469909e-05       1.414527121893e-02 
       2.257310435923e-05       1.523296272192e-02 
       2.437387742372e-05       1.640429444530e-02 
       2.631830745176e-05       1.766569582177e-02 
       2.841785470091e-05       1.902408601793e-02 
       3.068489367268e-05       2.048692970592e-02 
       3.313278604643e-05       2.206225513594e-02 
       3.577595943165e-05       2.375870704909e-02 
       3.862999240274e-05       2.558560727479e-02 
       4.171170631739e-05       2.755297763344e-02 
       4.503926445983e-05       2.967161927316e-02 
       4.863227909323e-05       3.195316450832e-02 
       5.251192705226e-05       3.441013519284e-02 
       5.670107455699e-05       3.705601722526e-02 
       6.122441198393e-05       3.990533413561e-02 
       6.610859938837e-05       4.297372168203e-02 
       7.138242363583e-05       4.627802141688e-02 
       7.707696806873e-05       4.983636194159e-02 
       8.322579570814e-05       5.366826847231e-02 
       8.986514707061e-05       5.779476394569e-02 
       9.703415376577e-05       6.223848243885e-02 
       1.047750691338e-04       6.702379865640e-02 
       1.131335172818e-04       7.217695153381e-02 
       1.221587619877e-04       7.772619073574e-02 
       1.319039970550e-04       8.370193432376e-02 
       1.424266598317e-04       9.013692507547e-02 
       1.537887697396e-04       9.706641242570e-02 
       1.660572938097e-04       1.045283354271e-01 
       1.793045413791e-04       1.125635349068e-01 
       1.936085902737e-04       1.212159614968e-01 
       2.090537469909e-04       1.305329132714e-01 
       2.257310435923e-04       1.405652846215e-01 
       2.437387742372e-04       1.513678302540e-01 
       2.631830745176e-04       1.629994504870e-01 
       2.841785470091e-04       1.755234921224e-01 
       3.068489367268e-04       1.890080670413e-01 
       3.313278604643e-04       2.035264002435e-01 
       3.577595943165e-04       2.191571803681e-01 
       3.862999240274e-04       2.359849437591e-01 
       4.171170631739e-04       2.541004741539e-01 
       4.503926445983e-04       2.736012080277e-01 
       4.863227909323e-04       2.945916790965e-01 
       5.251192705226e-04       3.171839525183e-01 
       5.670107455699e-04       3.414980764002e-01 
       6.122441198393e-04       3.676625413100e-01 
       6.610859938837e-04       3.958147252304e-01 
       7.138242363583e-04       4.261013284903e-01 
       7.707696806873e-04       4.586787792354e-01 
       8.322579570814e-04       4.937136001343e-01 
       8.986514707061e-04       5.313826801402e-01 
       9.703415376577e-04       5.718734972157e-01 
       1.047750691338e-03       6.153841629505e-01 
       1.131335172818e-03       6.621233239466e-01 
       1.221587619877e-03       7.123098220427e-01 
       1.319039970550e-03       7.661720584572e-01 
       1.424266598317e-03       8.239546297730e-01 
       1.537887697396e-03       8.859011173466e-01 
       1.660572938097e-03       9.522588006419e-01 
       1.793045413791e-03       1.023280099819e+00 
       1.936085902737e-03       1.099216304579e+00 
       2.090537469909e-03       1.180312990453e+00 
       2.257310435923e-03       1.266804115852e+00 
       2.437387742372e-03       1.358904853406e+00 
       2.631830745176e-03       1.456802683156e+00 
       2.841785470091e-03       1.560646890522e+00 
       3.068489367268e-03       1.670536062499e+00 
       3.313278604643e-03       1.786503852164e+00 
       3.577595943165e-03       1.908502930790e+00 
       3.862999240274e-03       2.036387730709e+00 
       4.171170631739e-03       2.169896178632e+00 
       4.503926445983e-03       2.308631878994e+00 
       4.863227909323e-03       2.452047290962e+00 
       5.251192705226e-03       2.599430628087e+00 
       5.670107455699e-03       2.749896931792e+00 
       6.122441198393e-03       2.902386513384e+00 
       6.610859938837e-03       3.055668699920e+00 
       7.138242363583e-03       3.208356461546e+00 
       7.707696806873e-03       3.358923891639e+00 
       8.322579570814e-03       3.505725595124e+00 
       8.986514707061e-03       3.647009930398e+00 
       9.703415376577e-03       3.780923304313e+00 
       1.047750691338e-02       3.905490659855e+00 
       1.131335172818e-02       4.018587648188e+00 
       1.221587619877e-02       4.117901587634e+00 
       1.319039970550e-02       4.200915363262e+00 
       1.424266598317e-02       4.264942552554e+00 
       1.537887697392e-02       4.307216239708e+00 
       1.660572938023e-02       4.325062798328e+00 
       1.793045412706e-02       4.316060335145e+00 
       1.936085890181e-02       4.278229846013e+00 
       2.090537352463e-02       4.210198888923e+00 
       2.257309535333e-02       4.111416706832e+00 
       2.437382002918e-02       3.982414746186e+00 
       2.631799944462e-02       3.825154301003e+00 
       2.841644545389e-02       3.643276880014e+00 
       3.067933355377e-02       3.442187597452e+00 
       3.311368470740e-02       3.229233915887e+00 
       3.571840443502e-02       3.013515194279e+00 
       3.847720348444e-02       2.805278344932e+00 
       4.135335538431e-02       2.614401339733e+00 
       4.429361667738e-02       2.448134788427e+00 
       4.724366439141e-02       2.309233953801e+00 
       5.016480835311e-02       2.196113047483e+00 
       5.303989620246e-02       2.104361565329e+00 
       5.586870669566e-02       2.028465439159e+00 
       5.866042680613e-02       1.963154017984e+00 
       6.142798932958e-02       1.903779281569e+00 
       6.418496440164e-02       1.846482505871e+00 
       6.694418833788e-02       1.788198302877e+00 
       6.971731106057e-02       1.726716355577e+00 
       7.251476155766e-02       1.660654161125e+00 
       7.534587671527e-02       1.589471737729e+00 
       7.821907666265e-02       1.513438508218e+00 
       8.114203772912e-02       1.433569422402e+00 
       8.412184535029e-02       1.351495918131e+00 
       8.716512279304e-02       1.269276166978e+00 
       9.027813695930e-02       1.189191809759e+00 
       9.346688431697e-02       1.113502501332e+00 
       9.673716028276e-02       1.044172897151e+00 
       1.000946150830e-01       9.827067452321e-01 
       1.035447986537e-01       9.299368657289e-01 
       1.070931966762e-01       8.859591991230e-01 
       1.107452594425e-01       8.500705994349e-01 
       1.145064249153e-01       8.208042291996e-01 
       1.183821370918e-01       7.960256215184e-01 
       1.223778605862e-01       7.731459003631e-01 
       1.264990921987e-01       7.494527997913e-01 
       1.307513701367e-01       7.225580161231e-01 
       1.351402814784e-01       6.909091259317e-01 
       1.396714684203e-01       6.541806697556e-01 
       1.443506338194e-01       6.134268023171e-01 
       1.491835465229e-01       5.708682739108e-01 
       1.541760469708e-01       5.293633866836e-01 
       1.593340535561e-01       4.917099653652e-01 
       1.646635702297e-01       4.599192574259e-01 
       1.701706958456e-01       4.347285269125e-01 
       1.758616357459e-01       4.154081908296e-01 
       1.817427160982e-01       3.999378197144e-01 
       1.878204015065e-01       3.856825079014e-01 
       1.941013164283e-01       3.698093891133e-01 
       2.005922709503e-01       3.505461339833e-01 
       2.073002914972e-01       3.280427557265e-01 
       2.142326570816e-01       3.042140227694e-01 
       2.213969417533e-01       2.816126074038e-01 
       2.288010639706e-01       2.622565848450e-01 
       2.364533437147e-01       2.469617057552e-01 
       2.443625682930e-01       2.350129827283e-01 
       2.525380679504e-01       2.244185261422e-01 
       2.609898026346e-01       2.130938411614e-01 
       2.697284615565e-01       2.001017419929e-01 
       2.787655775689e-01       1.860197842852e-01 
       2.881136588829e-01       1.725170933746e-01 
       2.977863412677e-01       1.610660064890e-01 
       3.077985646929e-01       1.517607142299e-01 
       3.181667794071e-01       1.435593884953e-01 
       3.289091877812e-01       1.351815361296e-01 
       3.400460299658e-01       1.261645030457e-01 
       3.515999236474e-01       1.172019349993e-01 
       3.635962711085e-01       1.091768651367e-01 
       3.760637506334e-01       1.023093834162e-01 
       3.890349143879e-01       9.593760609928e-02 
       4.025469216825e-01       8.950782726468e-02 
       4.166424456376e-01       8.311174618444e-02 
       4.313708035863e-01       7.721563754864e-02 
       4.467893782977e-01       7.190060170442e-02 
       4.629654199664e-01       6.686902216525e-02 
       4.799783501994e-01       6.191744162323e-02 
       4.979227319373e-01       5.722224305976e-02 
       5.169121270864e-01       5.290292209788e-02 
       5.370841404489e-01       4.876974242987e-02 
       5.586070464571e-01       4.479082919780e-02 
       5.816885094930e-01       4.105181857281e-02 
       6.065870144995e-01       3.748986782561e-02 
       6.336266468475e-01       3.407613279360e-02 
       6.632156059511e-01       3.083456494640e-02 
       6.958678639263e-01       2.772822727954e-02 
       7.322247985589e-01       2.476707880689e-02 
       7.730680195114e-01       2.193946678619e-02 
       8.193049553677e-01       1.925604685853e-02 
       8.718988016039e-01       1.672915519376e-02 
       9.317218031082e-01       1.438408894595e-02 
       9.993660908989e-01       1.225055917076e-02 
       1.075037110174e+00       1.035243808683e-02 
       1.158653485707e+00       8.699526287104e-03 
       1.250099157308e+00       7.284382586149e-03 
       1.349432401273e+00       6.085279727414e-03 
       1.456947457397e+00       5.075514059796e-03 
       1.573135111331e+00       4.228066426484e-03 
       1.698621895592e+00       3.518297126996e-03 
       1.834127512934e+00       2.924684797307e-03 
       1.980444934528e+00       2.428855352847e-03 
       2.138435191726e+00       2.015172601118e-03 
       2.309029199186e+00       1.670412477922e-03 
       2.493232377687e+00       1.383405256609e-03 
       2.692130395285e+00       1.144711217617e-03 
       2.906895534573e+00       9.464030868615e-04 
       3.138793597714e+00       7.818027675334e-04 
       3.389191366484e+00       6.452987222755e-04 
       3.659564657905e+00       5.322079250758e-04 
       3.951507022538e+00       4.385826402330e-04 
       4.266739136701e+00       3.611439166995e-04 
       4.607118943941e+00       2.971357127536e-04 
       4.974652605557e+00       2.442721241553e-04 
       5.371506324689e+00       2.006471211584e-04 
       5.800019113685e+00       1.646647817565e-04 
       6.262716579983e+00       1.350077869334e-04 
       6.762325811764e+00       1.105786427248e-04 
       7.301791451110e+00       9.046720510225e-05 
       7.884293049406e+00       7.391769566179e-05 
       8.513263807261e+00       6.030731774297e-05 
       9.192410809424e+00       4.911843113708e-05 
       9.925736873929e+00       3.992308453603e-05 
       1.071756414427e+01       3.236988812713e-05 
       1.157255956364e+01       2.616753853949e-05 
       1.249576238137e+01       2.107647088970e-05 
       1.349261385375e+01       1.689948976113e-05 
       1.456898931416e+01       1.347498796775e-05 
       1.573123280165e+01       1.066964521407e-05 
       1.698619445202e+01       8.374883309520e-06 
       1.834127087176e+01       6.501828335447e-06 
       1.980444873285e+01       4.978041777223e-06 
       2.138435184532e+01       3.744536655189e-06 
       2.309029198506e+01       2.753284423721e-06 
       2.493232377636e+01       1.965275383030e-06 
       2.692130395282e+01       1.348660622410e-06 
       2.906895534573e+01       8.771796040006e-07 
       3.138793597714e+01       5.286294199878e-07 
       3.389191366484e+01       2.838125227648e-07 
       3.659564657905e+01       1.253300673393e-07 
       3.951507022538e+01       3.680987200939e-08 
       4.266739136701e+01       2.270728493875e-09 
       4.607118943941e+01       5.908188228186e-09 
       4.974652605557e+01       3.229569288695e-08 
       5.371506324689e+01       6.705821120780e-08 
       5.800019113685e+01       9.792955995803e-08 
       6.262716579983e+01       1.160490449460e-07 
       6.762325811764e+01       1.170609450283e-07 
