# Matter power spectrum P(k) at redshift z=99
# for k=1.04775e-05 to 134.926 h/Mpc,
# number of wavenumbers equal to 255
#    1:k (h/Mpc)              2:P (Mpc/h)^3        
       1.047750691338e-05       7.261927095281e-03 
       1.131335172818e-05       7.820332150751e-03 
       1.221587619877e-05       8.421675382326e-03 
       1.319039970550e-05       9.069257737999e-03 
       1.424266598317e-05       9.766636451121e-03 
       1.537887697396e-05       1.051763973641e-02 
       1.660572938097e-05       1.132639250751e-02 
       1.793045413791e-05       1.219733201508e-02 
       1.936085902737e-05       1.313524187203e-02 
       2.090537469909e-05       1.414527084977e-02 
       2.257310435923e-05       1.523296544492e-02 
       2.437387742372e-05       1.640429654641e-02 
       2.631830745176e-05       1.766569603287e-02 
       2.841785470091e-05       1.902408711164e-02 
       3.068489367268e-05       2.048692967446e-02 
       3.313278604643e-05       2.206225467551e-02 
       3.577595943165e-05       2.375870883855e-02 
       3.862999240274e-05       2.558560669825e-02 
       4.171170631739e-05       2.755297672511e-02 
       4.503926445983e-05       2.967161933417e-02 
       4.863227909323e-05       3.195316455660e-02 
       5.251192705226e-05       3.441013466140e-02 
       5.670107455699e-05       3.705601741708e-02 
       6.122441198393e-05       3.990533412842e-02 
       6.610859938837e-05       4.297372242537e-02 
       7.138242363583e-05       4.627802054857e-02 
       7.707696806873e-05       4.983636159894e-02 
       8.322579570814e-05       5.366826786941e-02 
       8.986514707061e-05       5.779476319741e-02 
       9.703415376577e-05       6.223848221845e-02 
       1.047750691338e-04       6.702379825031e-02 
       1.131335172818e-04       7.217695031090e-02 
       1.221587619877e-04       7.772619030374e-02 
       1.319039970550e-04       8.370193380054e-02 
       1.424266598317e-04       9.013692506682e-02 
       1.537887697396e-04       9.706641130416e-02 
       1.660572938097e-04       1.045283343113e-01 
       1.793045413791e-04       1.125635329188e-01 
       1.936085902737e-04       1.212159592312e-01 
       2.090537469909e-04       1.305329107439e-01 
       2.257310435923e-04       1.405652819364e-01 
       2.437387742372e-04       1.513678275080e-01 
       2.631830745176e-04       1.629994475138e-01 
       2.841785470091e-04       1.755234890484e-01 
       3.068489367268e-04       1.890080645306e-01 
       3.313278604643e-04       2.035263977439e-01 
       3.577595943165e-04       2.191571778053e-01 
       3.862999240274e-04       2.359849423269e-01 
       4.171170631739e-04       2.541004713012e-01 
       4.503926445983e-04       2.736012061170e-01 
       4.863227909323e-04       2.945916774655e-01 
       5.251192705226e-04       3.171839507876e-01 
       5.670107455699e-04       3.414980769122e-01 
       6.122441198393e-04       3.676625416315e-01 
       6.610859938837e-04       3.958147272880e-01 
       7.138242363583e-04       4.261013332081e-01 
       7.707696806873e-04       4.586787880867e-01 
       8.322579570814e-04       4.937136112839e-01 
       8.986514707061e-04       5.313826962095e-01 
       9.703415376577e-04       5.718735176823e-01 
       1.047750691338e-03       6.153841926269e-01 
       1.131335172818e-03       6.621233623140e-01 
       1.221587619877e-03       7.123098743669e-01 
       1.319039970550e-03       7.661721263800e-01 
       1.424266598317e-03       8.239547181309e-01 
       1.537887697396e-03       8.859012282815e-01 
       1.660572938097e-03       9.522589495737e-01 
       1.793045413791e-03       1.023280284733e+00 
       1.936085902737e-03       1.099216542122e+00 
       2.090537469909e-03       1.180313285051e+00 
       2.257310435923e-03       1.266804486822e+00 
       2.437387742372e-03       1.358905328474e+00 
       2.631830745176e-03       1.456803285958e+00 
       2.841785470091e-03       1.560647663040e+00 
       3.068489367268e-03       1.670537010572e+00 
       3.313278604643e-03       1.786505039625e+00 
       3.577595943165e-03       1.908504410091e+00 
       3.862999240274e-03       2.036389468713e+00 
       4.171170631739e-03       2.169898252732e+00 
       4.503926445983e-03       2.308634491866e+00 
       4.863227909323e-03       2.452050674626e+00 
       5.251192705226e-03       2.599434680925e+00 
       5.670107455699e-03       2.749901126171e+00 
       6.122441198393e-03       2.902390057930e+00 
       6.610859938837e-03       3.055671468825e+00 
       7.138242363583e-03       3.208360200730e+00 
       7.707696806873e-03       3.358926682876e+00 
       8.322579570814e-03       3.505728065889e+00 
       8.986514707061e-03       3.647012857601e+00 
       9.703415376577e-03       3.780926001635e+00 
       1.047750691338e-02       3.905492859715e+00 
       1.131335172818e-02       4.018589833513e+00 
       1.221587619877e-02       4.117902878899e+00 
       1.319039970550e-02       4.200917691392e+00 
       1.424266598317e-02       4.264943732565e+00 
       1.537887697392e-02       4.307219643354e+00 
       1.660572938023e-02       4.325062371551e+00 
       1.793045412706e-02       4.316060259280e+00 
       1.936085890181e-02       4.278228733595e+00 
       2.090537352463e-02       4.210204314149e+00 
       2.257309535333e-02       4.111418414915e+00 
       2.437382002918e-02       3.982420484644e+00 
       2.631799944462e-02       3.825167972351e+00 
       2.841644545389e-02       3.643281224783e+00 
       3.067933355377e-02       3.442197124433e+00 
       3.311368470740e-02       3.229239177895e+00 
       3.571840443502e-02       3.013513079562e+00 
       3.847720348444e-02       2.805279468037e+00 
       4.135335538431e-02       2.614404878360e+00 
       4.429361667738e-02       2.448124561083e+00 
       4.724366439141e-02       2.309231208044e+00 
       5.016480835311e-02       2.196103792246e+00 
       5.303989620246e-02       2.104356378331e+00 
       5.586870669566e-02       2.028446895095e+00 
       5.866042680613e-02       1.963137249595e+00 
       6.142798932958e-02       1.903759116580e+00 
       6.418496440164e-02       1.846455898622e+00 
       6.694418833788e-02       1.788171395648e+00 
       6.971731106057e-02       1.726686348228e+00 
       7.251476155766e-02       1.660621757932e+00 
       7.534587671527e-02       1.589433737848e+00 
       7.821907666265e-02       1.513396872841e+00 
       8.114203772912e-02       1.433525331588e+00 
       8.412184535029e-02       1.351445109707e+00 
       8.716512279304e-02       1.269222712980e+00 
       9.027813695930e-02       1.189138099579e+00 
       9.346688431697e-02       1.113441594934e+00 
       9.673716028276e-02       1.044111186898e+00 
       1.000946150830e-01       9.826383759669e-01 
       1.035447986537e-01       9.298664494902e-01 
       1.070931966762e-01       8.858826954461e-01 
       1.107452594425e-01       8.499878422952e-01 
       1.145064249153e-01       8.207149426159e-01 
       1.183821370918e-01       7.959286023391e-01 
       1.223778605862e-01       7.730429504652e-01 
       1.264990921987e-01       7.493405823834e-01 
       1.307513701367e-01       7.224377924556e-01 
       1.351402814784e-01       6.907802957664e-01 
       1.396714684203e-01       6.540436612382e-01 
       1.443506338194e-01       6.132802298528e-01 
       1.491835465229e-01       5.707128091154e-01 
       1.541760469708e-01       5.291999140721e-01 
       1.593340535561e-01       4.915378421105e-01 
       1.646635702297e-01       4.597371944366e-01 
       1.701706958456e-01       4.345347315791e-01 
       1.758616357459e-01       4.152026840339e-01 
       1.817427160982e-01       3.997176158275e-01 
       1.878204015065e-01       3.854480598118e-01 
       1.941013164283e-01       3.695588302659e-01 
       2.005922709503e-01       3.502796547083e-01 
       2.073002914972e-01       3.277612877664e-01 
       2.142326570816e-01       3.039169742302e-01 
       2.213969417533e-01       2.813003962647e-01 
       2.288010639706e-01       2.619291230847e-01 
       2.364533437147e-01       2.466157733486e-01 
       2.443625682930e-01       2.346458452484e-01 
       2.525380679504e-01       2.240279188855e-01 
       2.609898026346e-01       2.126805244868e-01 
       2.697284615565e-01       1.996652263996e-01 
       2.787655775689e-01       1.855612069910e-01 
       2.881136588829e-01       1.720360846064e-01 
       2.977863412677e-01       1.605604234963e-01 
       3.077985646929e-01       1.512275785704e-01 
       3.181667794071e-01       1.429957925282e-01 
       3.289091877812e-01       1.345869078797e-01 
       3.400460299658e-01       1.255393755357e-01 
       3.515999236474e-01       1.165464486741e-01 
       3.635962711085e-01       1.084889316388e-01 
       3.760637506334e-01       1.015853962511e-01 
       3.890349143879e-01       9.517519301703e-02 
       4.025469216825e-01       8.870637677705e-02 
       4.166424456376e-01       8.227099995365e-02 
       4.313708035863e-01       7.633304368180e-02 
       4.467893782977e-01       7.097299599754e-02 
       4.629654199664e-01       6.589382760333e-02 
       4.799783501994e-01       6.089339289149e-02 
       4.979227319373e-01       5.614681817708e-02 
       5.169121270864e-01       5.177210239393e-02 
       5.370841404489e-01       4.758055613944e-02 
       5.586070464571e-01       4.354031023571e-02 
       5.816885094930e-01       3.973548893586e-02 
       6.065870144995e-01       3.610307635119e-02 
       6.336266468475e-01       3.261418764760e-02 
       6.632156059511e-01       2.929100780979e-02 
       6.958678639263e-01       2.609691154600e-02 
       7.322247985589e-01       2.304010124025e-02 
       7.730680195114e-01       2.010889143783e-02 
       8.193049553677e-01       1.731309583010e-02 
       8.718988016039e-01       1.466550400733e-02 
       9.317218031082e-01       1.219353540116e-02 
       9.993660908989e-01       9.930765700180e-03 
       1.075037110174e+00       7.907836382287e-03 
       1.158653485707e+00       6.142268660506e-03 
       1.250099157308e+00       4.635983017139e-03 
       1.349432401273e+00       3.376525830454e-03 
       1.456947457397e+00       2.346548626391e-03 
       1.573135111331e+00       1.528028833462e-03 
       1.698621895592e+00       9.039410576026e-04 
       1.834127512934e+00       4.581377020084e-04 
       1.980444934528e+00       1.735364816515e-04 
       2.138435191726e+00       3.006086197166e-05 
       2.309029199186e+00       2.355978567518e-06 
       2.493232377687e+00       5.930146441717e-05 
       2.692130395285e+00       1.640728512781e-04 
       2.906895534573e+00       2.774679395339e-04 
       3.138793597714e+00       3.622300216851e-04 
       3.389191366484e+00       3.915286101972e-04 
       3.659564657905e+00       3.558676672610e-04 
       3.951507022538e+00       2.670134915957e-04 
       4.266739136701e+00       1.548572453442e-04 
       4.607118943941e+00       5.819137508558e-05 
       4.974652605557e+00       6.298864658013e-06 
       5.371506324689e+00       4.754224488017e-06 
       5.800019113685e+00       3.234618899572e-05 
       6.262716579983e+00       5.505184085222e-05 
       6.762325811764e+00       5.117471674948e-05 
       7.301791451110e+00       2.626008968715e-05 
       7.884293049406e+00       4.331176851932e-06 
       8.513263807261e+00       8.199012676517e-07 
       9.192410809424e+00       7.842862789222e-06 
       9.925736873929e+00       9.215871501306e-06 
       1.071756414427e+01       3.156506594242e-06 
       1.157255956364e+01       1.323670742165e-10 
       1.249576238137e+01       1.408920413559e-06 
       1.349261385375e+01       1.378694515895e-06 
       1.456898931416e+01       1.277799348285e-07 
       1.573123280165e+01       2.141351613731e-07 
       1.698619445202e+01       2.772416323859e-07 
       1.834127087176e+01       1.178332088877e-08 
       1.980444873285e+01       8.132467483557e-08 
       2.138435184532e+01       4.169407985525e-09 
       2.309029198506e+01       9.999671090538e-09 
       2.493232377636e+01       5.625373920428e-09 
       2.692130395282e+01       2.006500264837e-09 
       2.906895534573e+01       2.256916265437e-08 
       3.138793597714e+01       4.983116469097e-10 
       3.389191366484e+01       1.283026117059e-08 
       3.659564657905e+01       2.327056086950e-10 
       3.951507022538e+01       4.664829407389e-09 
       4.266739136701e+01       1.497034244909e-09 
       4.607118943941e+01       2.078815248829e-08 
       4.974652605557e+01       2.708484142959e-08 
       5.371506324689e+01       7.458895293745e-09 
       5.800019113685e+01       2.074284643772e-08 
       6.262716579983e+01       2.298398370566e-08 
       6.762325811764e+01       1.851331165533e-07 
       7.301791451110e+01       4.470024824763e-08 
       7.884293049406e+01       1.032054576098e-08 
       8.513263807261e+01       6.327158344997e-10 
       9.192410809424e+01       1.774460229327e-08 
       9.925736873929e+01       8.423008476164e-08 
       1.071756414427e+02       4.080087980387e-08 
       1.157255956364e+02       4.543735450822e-07 
       1.249576238137e+02       9.492540364415e-09 
       1.349261385375e+02       1.728885385753e-07 
