# Matter power spectrum P(k) at redshift z=99
# for k=1.04775e-05 to 67.6233 h/Mpc,
# number of wavenumbers equal to 246
#    1:k (h/Mpc)              2:P (Mpc/h)^3        
       1.047750691338e-05       7.261927673138e-03 
       1.131335172818e-05       7.820331745758e-03 
       1.221587619877e-05       8.421675986511e-03 
       1.319039970550e-05       9.069258192218e-03 
       1.424266598317e-05       9.766638404447e-03 
       1.537887697396e-05       1.051764069684e-02 
       1.660572938097e-05       1.132639105523e-02 
       1.793045413791e-05       1.219733231420e-02 
       1.936085902737e-05       1.313524224384e-02 
       2.090537469909e-05       1.414527121897e-02 
       2.257310435923e-05       1.523296272196e-02 
       2.437387742372e-05       1.640429444534e-02 
       2.631830745176e-05       1.766569582182e-02 
       2.841785470091e-05       1.902408601798e-02 
       3.068489367268e-05       2.048692970597e-02 
       3.313278604643e-05       2.206225513599e-02 
       3.577595943165e-05       2.375870704915e-02 
       3.862999240274e-05       2.558560727486e-02 
       4.171170631739e-05       2.755297763351e-02 
       4.503926445983e-05       2.967161927323e-02 
       4.863227909323e-05       3.195316450840e-02 
       5.251192705226e-05       3.441013519293e-02 
       5.670107455699e-05       3.705601722538e-02 
       6.122441198393e-05       3.990533413572e-02 
       6.610859938837e-05       4.297372168214e-02 
       7.138242363583e-05       4.627802141700e-02 
       7.707696806873e-05       4.983636194172e-02 
       8.322579570814e-05       5.366826847245e-02 
       8.986514707061e-05       5.779476394584e-02 
       9.703415376577e-05       6.223848243901e-02 
       1.047750691338e-04       6.702379865657e-02 
       1.131335172818e-04       7.217695153400e-02 
       1.221587619877e-04       7.772619073592e-02 
       1.319039970550e-04       8.370193432398e-02 
       1.424266598317e-04       9.013692507570e-02 
       1.537887697396e-04       9.706641242596e-02 
       1.660572938097e-04       1.045283354274e-01 
       1.793045413791e-04       1.125635349071e-01 
       1.936085902737e-04       1.212159614971e-01 
       2.090537469909e-04       1.305329132718e-01 
       2.257310435923e-04       1.405652846218e-01 
       2.437387742372e-04       1.513678302544e-01 
       2.631830745176e-04       1.629994504875e-01 
       2.841785470091e-04       1.755234921229e-01 
       3.068489367268e-04       1.890080670418e-01 
       3.313278604643e-04       2.035264002440e-01 
       3.577595943165e-04       2.191571803687e-01 
       3.862999240274e-04       2.359849437597e-01 
       4.171170631739e-04       2.541004741545e-01 
       4.503926445983e-04       2.736012080284e-01 
       4.863227909323e-04       2.945916790972e-01 
       5.251192705226e-04       3.171839525190e-01 
       5.670107455699e-04       3.414980764010e-01 
       6.122441198393e-04       3.676625413109e-01 
       6.610859938837e-04       3.958147252312e-01 
       7.138242363583e-04       4.261013284930e-01 
       7.707696806873e-04       4.586787792360e-01 
       8.322579570814e-04       4.937136001368e-01 
       8.986514707061e-04       5.313826801411e-01 
       9.703415376577e-04       5.718734972167e-01 
       1.047750691338e-03       6.153841629512e-01 
       1.131335172818e-03       6.621233239474e-01 
       1.221587619877e-03       7.123098220436e-01 
       1.319039970550e-03       7.661720584121e-01 
       1.424266598317e-03       8.239546297725e-01 
       1.537887697396e-03       8.859011173465e-01 
       1.660572938097e-03       9.522588006396e-01 
       1.793045413791e-03       1.023280099818e+00 
       1.936085902737e-03       1.099216304577e+00 
       2.090537469909e-03       1.180312990449e+00 
       2.257310435923e-03       1.266804115842e+00 
       2.437387742372e-03       1.358904853399e+00 
       2.631830745176e-03       1.456802683146e+00 
       2.841785470091e-03       1.560646890508e+00 
       3.068489367268e-03       1.670536062480e+00 
       3.313278604643e-03       1.786503852132e+00 
       3.577595943165e-03       1.908502930757e+00 
       3.862999240274e-03       2.036387730667e+00 
       4.171170631739e-03       2.169896176659e+00 
       4.503926445983e-03       2.308631878926e+00 
       4.863227909323e-03       2.452047290875e+00 
       5.251192705226e-03       2.599430627977e+00 
       5.670107455699e-03       2.749896931702e+00 
       6.122441198393e-03       2.902386513208e+00 
       6.610859938837e-03       3.055668701434e+00 
       7.138242363583e-03       3.208356461270e+00 
       7.707696806873e-03       3.358923893010e+00 
       8.322579570814e-03       3.505725594700e+00 
       8.986514707061e-03       3.647009586749e+00 
       9.703415376577e-03       3.780923303678e+00 
       1.047750691338e-02       3.905491308165e+00 
       1.131335172818e-02       4.018588527474e+00 
       1.221587619877e-02       4.117901583828e+00 
       1.319039970550e-02       4.200915369867e+00 
       1.424266598317e-02       4.264943080710e+00 
       1.537887697392e-02       4.307216425378e+00 
       1.660572938023e-02       4.325061948922e+00 
       1.793045412706e-02       4.316058026399e+00 
       1.936085890181e-02       4.278229830698e+00 
       2.090537352463e-02       4.210203745563e+00 
       2.257309535333e-02       4.111419975924e+00 
       2.437382002918e-02       3.982420508919e+00 
       2.631799944462e-02       3.825177639686e+00 
       2.841644545389e-02       3.643276624070e+00 
       3.067933355377e-02       3.442194679268e+00 
       3.311368470740e-02       3.229230361254e+00 
       3.571840443502e-02       3.013503131406e+00 
       3.847720348444e-02       2.805283283022e+00 
       4.135335538431e-02       2.614411043743e+00 
       4.429361667738e-02       2.448136936555e+00 
       4.724366439141e-02       2.309239791156e+00 
       5.016480835311e-02       2.196118036623e+00 
       5.303989620246e-02       2.104373348414e+00 
       5.586870669566e-02       2.028464766053e+00 
       5.866042680613e-02       1.963147137601e+00 
       6.142798932958e-02       1.903779080082e+00 
       6.418496440164e-02       1.846478642334e+00 
       6.694418833788e-02       1.788198975253e+00 
       6.971731106057e-02       1.726713956360e+00 
       7.251476155766e-02       1.660652567301e+00 
       7.534587671527e-02       1.589468989954e+00 
       7.821907666265e-02       1.513437072147e+00 
       8.114203772912e-02       1.433569085707e+00 
       8.412184535029e-02       1.351492290016e+00 
       8.716512279304e-02       1.269275300881e+00 
       9.027813695930e-02       1.189193502236e+00 
       9.346688431697e-02       1.113502431171e+00 
       9.673716028276e-02       1.044174580271e+00 
       1.000946150830e-01       9.827081124946e-01 
       1.035447986537e-01       9.299391551132e-01 
       1.070931966762e-01       8.859607772342e-01 
       1.107452594425e-01       8.500696088178e-01 
       1.145064249153e-01       8.208032645375e-01 
       1.183821370918e-01       7.960241939156e-01 
       1.223778605862e-01       7.731475003497e-01 
       1.264990921987e-01       7.494518797092e-01 
       1.307513701367e-01       7.225570500778e-01 
       1.351402814784e-01       6.909098290693e-01 
       1.396714684203e-01       6.541832302016e-01 
       1.443506338194e-01       6.134287521337e-01 
       1.491835465229e-01       5.708689817532e-01 
       1.541760469708e-01       5.293641330376e-01 
       1.593340535561e-01       4.917104198331e-01 
       1.646635702297e-01       4.599206147491e-01 
       1.701706958456e-01       4.347289445947e-01 
       1.758616357459e-01       4.154074939410e-01 
       1.817427160982e-01       3.999364078023e-01 
       1.878204015065e-01       3.856852715023e-01 
       1.941013164283e-01       3.698145654163e-01 
       2.005922709503e-01       3.505507460618e-01 
       2.073002914972e-01       3.280463392689e-01 
       2.142326570816e-01       3.042131209090e-01 
       2.213969417533e-01       2.816113839805e-01 
       2.288010639706e-01       2.622567594013e-01 
       2.364533437147e-01       2.469619251051e-01 
       2.443625682930e-01       2.350121970791e-01 
       2.525380679504e-01       2.244203459016e-01 
       2.609898026346e-01       2.130956451148e-01 
       2.697284615565e-01       2.001027436430e-01 
       2.787655775689e-01       1.860189970734e-01 
       2.881136588829e-01       1.725169369133e-01 
       2.977863412677e-01       1.610659521970e-01 
       3.077985646929e-01       1.517607239665e-01 
       3.181667794071e-01       1.435591194438e-01 
       3.289091877812e-01       1.351817770501e-01 
       3.400460299658e-01       1.261637829459e-01 
       3.515999236474e-01       1.172019995417e-01 
       3.635962711085e-01       1.091763697182e-01 
       3.760637506334e-01       1.023093148796e-01 
       3.890349143879e-01       9.593754787252e-02 
       4.025469216825e-01       8.950739133127e-02 
       4.166424456376e-01       8.311166878094e-02 
       4.313708035863e-01       7.721506847073e-02 
       4.467893782977e-01       7.190047301427e-02 
       4.629654199664e-01       6.686893601315e-02 
       4.799783501994e-01       6.191729910719e-02 
       4.979227319373e-01       5.722191509141e-02 
       5.169121270864e-01       5.290265886095e-02 
       5.370841404489e-01       4.876965714733e-02 
       5.586070464571e-01       4.479056958694e-02 
       5.816885094930e-01       4.105153699047e-02 
       6.065870144995e-01       3.748968085508e-02 
       6.336266468475e-01       3.407601419849e-02 
       6.632156059511e-01       3.083423490633e-02 
       6.958678639263e-01       2.772810971542e-02 
       7.322247985589e-01       2.476688234822e-02 
       7.730680195114e-01       2.193941210438e-02 
       8.193049553677e-01       1.925591419826e-02 
       8.718988016039e-01       1.672904503692e-02 
       9.317218031082e-01       1.438401360436e-02 
       9.993660908989e-01       1.225042181191e-02 
       1.075037110174e+00       1.035238767983e-02 
       1.158653485707e+00       8.699496564505e-03 
       1.250099157308e+00       7.284353517854e-03 
       1.349432401273e+00       6.085242134621e-03 
       1.456947457397e+00       5.075520211212e-03 
       1.573135111331e+00       4.228096502959e-03 
       1.698621895592e+00       3.518330837603e-03 
       1.834127512934e+00       2.924762341021e-03 
       1.980444934528e+00       2.428943705461e-03 
       2.138435191726e+00       2.015289137122e-03 
       2.309029199186e+00       1.670543332730e-03 
       2.493232377687e+00       1.383575643248e-03 
       2.692130395285e+00       1.144919212898e-03 
       2.906895534573e+00       9.466449295723e-04 
       3.138793597714e+00       7.820758413874e-04 
       3.389191366484e+00       6.456190881841e-04 
       3.659564657905e+00       5.325624124605e-04 
       3.951507022538e+00       4.389827715453e-04 
       4.266739136701e+00       3.615883154806e-04 
       4.607118943941e+00       2.976292334309e-04 
       4.974652605557e+00       2.448187329864e-04 
       5.371506324689e+00       2.012448015834e-04 
       5.800019113685e+00       1.653188954963e-04 
       6.262716579983e+00       1.357187512839e-04 
       6.762325811764e+00       1.113484685752e-04 
       7.301791451110e+00       9.129744934564e-05 
       7.884293049406e+00       7.481240842446e-05 
       8.513263807261e+00       6.126588717035e-05 
       9.192410809424e+00       5.014199501898e-05 
       9.925736873929e+00       4.101234184540e-05 
       1.071756414427e+01       3.352468710648e-05 
       1.157255956364e+01       2.738652411916e-05 
       1.249576238137e+01       2.235793256450e-05 
       1.349261385375e+01       1.824048973124e-05 
       1.456898931416e+01       1.487121565490e-05 
       1.573123280165e+01       1.211526245165e-05 
       1.698619445202e+01       9.862369514530e-06 
       1.834127087176e+01       8.021790350659e-06 
       1.980444873285e+01       6.518811230175e-06 
       2.138435184532e+01       5.292190322571e-06 
       2.309029198506e+01       4.291738292735e-06 
       2.493232377636e+01       3.476111671922e-06 
       2.692130395282e+01       2.811660292585e-06 
       2.906895534573e+01       2.270672228677e-06 
       3.138793597714e+01       1.830491952449e-06 
       3.389191366484e+01       1.472634761261e-06 
       3.659564657905e+01       1.181933214469e-06 
       3.951507022538e+01       9.459984602351e-07 
       4.266739136701e+01       7.547316527561e-07 
       4.607118943941e+01       5.998672437852e-07 
       4.974652605557e+01       4.746587002094e-07 
       5.371506324689e+01       3.735977231715e-07 
       5.800019113685e+01       2.922229391989e-07 
       6.262716579983e+01       2.268713849055e-07 
       6.762325811764e+01       1.745623357835e-07 
