# Matter power spectrum P(k) at redshift z=99
# for k=1.04775e-05 to 67.6233 h/Mpc,
# number of wavenumbers equal to 246
#    1:k (h/Mpc)              2:P (Mpc/h)^3        
       1.047750691338e-05       7.261927673119e-03 
       1.131335172818e-05       7.820331745737e-03 
       1.221587619877e-05       8.421675986488e-03 
       1.319039970550e-05       9.069258192194e-03 
       1.424266598317e-05       9.766638404421e-03 
       1.537887697396e-05       1.051764069682e-02 
       1.660572938097e-05       1.132639105520e-02 
       1.793045413791e-05       1.219733231416e-02 
       1.936085902737e-05       1.313524224380e-02 
       2.090537469909e-05       1.414527121893e-02 
       2.257310435923e-05       1.523296272192e-02 
       2.437387742372e-05       1.640429444530e-02 
       2.631830745176e-05       1.766569582177e-02 
       2.841785470091e-05       1.902408601793e-02 
       3.068489367268e-05       2.048692970591e-02 
       3.313278604643e-05       2.206225513594e-02 
       3.577595943165e-05       2.375870704909e-02 
       3.862999240274e-05       2.558560727479e-02 
       4.171170631739e-05       2.755297763344e-02 
       4.503926445983e-05       2.967161927315e-02 
       4.863227909323e-05       3.195316450832e-02 
       5.251192705226e-05       3.441013519284e-02 
       5.670107455699e-05       3.705601722525e-02 
       6.122441198393e-05       3.990533413560e-02 
       6.610859938837e-05       4.297372168203e-02 
       7.138242363583e-05       4.627802141688e-02 
       7.707696806873e-05       4.983636194159e-02 
       8.322579570814e-05       5.366826847231e-02 
       8.986514707061e-05       5.779476394568e-02 
       9.703415376577e-05       6.223848243885e-02 
       1.047750691338e-04       6.702379865640e-02 
       1.131335172818e-04       7.217695153381e-02 
       1.221587619877e-04       7.772619073573e-02 
       1.319039970550e-04       8.370193432376e-02 
       1.424266598317e-04       9.013692507546e-02 
       1.537887697396e-04       9.706641242570e-02 
       1.660572938097e-04       1.045283354271e-01 
       1.793045413791e-04       1.125635349068e-01 
       1.936085902737e-04       1.212159614968e-01 
       2.090537469909e-04       1.305329132714e-01 
       2.257310435923e-04       1.405652846215e-01 
       2.437387742372e-04       1.513678302540e-01 
       2.631830745176e-04       1.629994504871e-01 
       2.841785470091e-04       1.755234921224e-01 
       3.068489367268e-04       1.890080670413e-01 
       3.313278604643e-04       2.035264002435e-01 
       3.577595943165e-04       2.191571803681e-01 
       3.862999240274e-04       2.359849437593e-01 
       4.171170631739e-04       2.541004741539e-01 
       4.503926445983e-04       2.736012080277e-01 
       4.863227909323e-04       2.945916790965e-01 
       5.251192705226e-04       3.171839525183e-01 
       5.670107455699e-04       3.414980764002e-01 
       6.122441198393e-04       3.676625413100e-01 
       6.610859938837e-04       3.958147252304e-01 
       7.138242363583e-04       4.261013284918e-01 
       7.707696806873e-04       4.586787792354e-01 
       8.322579570814e-04       4.937136001342e-01 
       8.986514707061e-04       5.313826801402e-01 
       9.703415376577e-04       5.718734972158e-01 
       1.047750691338e-03       6.153841629505e-01 
       1.131335172818e-03       6.621233239466e-01 
       1.221587619877e-03       7.123098220423e-01 
       1.319039970550e-03       7.661720584775e-01 
       1.424266598317e-03       8.239546297730e-01 
       1.537887697396e-03       8.859011173466e-01 
       1.660572938097e-03       9.522588006418e-01 
       1.793045413791e-03       1.023280099819e+00 
       1.936085902737e-03       1.099216304579e+00 
       2.090537469909e-03       1.180312990454e+00 
       2.257310435923e-03       1.266804115852e+00 
       2.437387742372e-03       1.358904853406e+00 
       2.631830745176e-03       1.456802683156e+00 
       2.841785470091e-03       1.560646890522e+00 
       3.068489367268e-03       1.670536062501e+00 
       3.313278604643e-03       1.786503852162e+00 
       3.577595943165e-03       1.908502930788e+00 
       3.862999240274e-03       2.036387730709e+00 
       4.171170631739e-03       2.169896178484e+00 
       4.503926445983e-03       2.308631878994e+00 
       4.863227909323e-03       2.452047290962e+00 
       5.251192705226e-03       2.599430628088e+00 
       5.670107455699e-03       2.749896931867e+00 
       6.122441198393e-03       2.902386513385e+00 
       6.610859938837e-03       3.055668705782e+00 
       7.138242363583e-03       3.208356461543e+00 
       7.707696806873e-03       3.358923893040e+00 
       8.322579570814e-03       3.505725595411e+00 
       8.986514707061e-03       3.647009629002e+00 
       9.703415376577e-03       3.780923304330e+00 
       1.047750691338e-02       3.905491153031e+00 
       1.131335172818e-02       4.018587641322e+00 
       1.221587619877e-02       4.117901587380e+00 
       1.319039970550e-02       4.200915308034e+00 
       1.424266598317e-02       4.264943121634e+00 
       1.537887697392e-02       4.307218761383e+00 
       1.660572938023e-02       4.325061904740e+00 
       1.793045412706e-02       4.316057954364e+00 
       1.936085890181e-02       4.278228872988e+00 
       2.090537352463e-02       4.210204780737e+00 
       2.257309535333e-02       4.111420300947e+00 
       2.437382002918e-02       3.982415154761e+00 
       2.631799944462e-02       3.825177625451e+00 
       2.841644545389e-02       3.643275545746e+00 
       3.067933355377e-02       3.442195628184e+00 
       3.311368470740e-02       3.229230903481e+00 
       3.571840443502e-02       3.013515058377e+00 
       3.847720348444e-02       2.805271693670e+00 
       4.135335538431e-02       2.614406581594e+00 
       4.429361667738e-02       2.448126003072e+00 
       4.724366439141e-02       2.309239420675e+00 
       5.016480835311e-02       2.196111725378e+00 
       5.303989620246e-02       2.104366979876e+00 
       5.586870669566e-02       2.028464822890e+00 
       5.866042680613e-02       1.963154596612e+00 
       6.142798932958e-02       1.903782571812e+00 
       6.418496440164e-02       1.846479562472e+00 
       6.694418833788e-02       1.788198335715e+00 
       6.971731106057e-02       1.726717587557e+00 
       7.251476155766e-02       1.660655204797e+00 
       7.534587671527e-02       1.589473084695e+00 
       7.821907666265e-02       1.513440058140e+00 
       8.114203772912e-02       1.433572645246e+00 
       8.412184535029e-02       1.351492640045e+00 
       8.716512279304e-02       1.269272847320e+00 
       9.027813695930e-02       1.189193684842e+00 
       9.346688431697e-02       1.113503533289e+00 
       9.673716028276e-02       1.044175154122e+00 
       1.000946150830e-01       9.827060201707e-01 
       1.035447986537e-01       9.299368949160e-01 
       1.070931966762e-01       8.859609557149e-01 
       1.107452594425e-01       8.500706036883e-01 
       1.145064249153e-01       8.208034965779e-01 
       1.183821370918e-01       7.960256718981e-01 
       1.223778605862e-01       7.731455694551e-01 
       1.264990921987e-01       7.494509474824e-01 
       1.307513701367e-01       7.225582795130e-01 
       1.351402814784e-01       6.909083337993e-01 
       1.396714684203e-01       6.541804513446e-01 
       1.443506338194e-01       6.134262410457e-01 
       1.491835465229e-01       5.708675013935e-01 
       1.541760469708e-01       5.293641669490e-01 
       1.593340535561e-01       4.917118871615e-01 
       1.646635702297e-01       4.599201279542e-01 
       1.701706958456e-01       4.347291126449e-01 
       1.758616357459e-01       4.154082007069e-01 
       1.817427160982e-01       3.999377266491e-01 
       1.878204015065e-01       3.856832475072e-01 
       1.941013164283e-01       3.698095072573e-01 
       2.005922709503e-01       3.505458448700e-01 
       2.073002914972e-01       3.280446076413e-01 
       2.142326570816e-01       3.042134048595e-01 
       2.213969417533e-01       2.816118523595e-01 
       2.288010639706e-01       2.622567148854e-01 
       2.364533437147e-01       2.469625322627e-01 
       2.443625682930e-01       2.350128586506e-01 
       2.525380679504e-01       2.244180324517e-01 
       2.609898026346e-01       2.130937849993e-01 
       2.697284615565e-01       2.001017876379e-01 
       2.787655775689e-01       1.860196035648e-01 
       2.881136588829e-01       1.725175381001e-01 
       2.977863412677e-01       1.610661774488e-01 
       3.077985646929e-01       1.517609742915e-01 
       3.181667794071e-01       1.435596939488e-01 
       3.289091877812e-01       1.351815291510e-01 
       3.400460299658e-01       1.261642256196e-01 
       3.515999236474e-01       1.172018229627e-01 
       3.635962711085e-01       1.091771343721e-01 
       3.760637506334e-01       1.023097625711e-01 
       3.890349143879e-01       9.593774567803e-02 
       4.025469216825e-01       8.950750329690e-02 
       4.166424456376e-01       8.311162071512e-02 
       4.313708035863e-01       7.721552933327e-02 
       4.467893782977e-01       7.190073042837e-02 
       4.629654199664e-01       6.686905679111e-02 
       4.799783501994e-01       6.191765729445e-02 
       4.979227319373e-01       5.722233254859e-02 
       5.169121270864e-01       5.290279890156e-02 
       5.370841404489e-01       4.876977701263e-02 
       5.586070464571e-01       4.479090212648e-02 
       5.816885094930e-01       4.105199135316e-02 
       6.065870144995e-01       3.748987499518e-02 
       6.336266468475e-01       3.407631808547e-02 
       6.632156059511e-01       3.083470255803e-02 
       6.958678639263e-01       2.772831804045e-02 
       7.322247985589e-01       2.476709362157e-02 
       7.730680195114e-01       2.193962733069e-02 
       8.193049553677e-01       1.925614359632e-02 
       8.718988016039e-01       1.672930446602e-02 
       9.317218031082e-01       1.438425526098e-02 
       9.993660908989e-01       1.225064687623e-02 
       1.075037110174e+00       1.035260157371e-02 
       1.158653485707e+00       8.699707647626e-03 
       1.250099157308e+00       7.284617594232e-03 
       1.349432401273e+00       6.085491381506e-03 
       1.456947457397e+00       5.075735365790e-03 
       1.573135111331e+00       4.228296009710e-03 
       1.698621895592e+00       3.518554016304e-03 
       1.834127512934e+00       2.924977837625e-03 
       1.980444934528e+00       2.429160423865e-03 
       2.138435191726e+00       2.015512351778e-03 
       2.309029199186e+00       1.670774536518e-03 
       2.493232377687e+00       1.383790133561e-03 
       2.692130395285e+00       1.145126857919e-03 
       2.906895534573e+00       9.468544110516e-04 
       3.138793597714e+00       7.822876146937e-04 
       3.389191366484e+00       6.458235863800e-04 
       3.659564657905e+00       5.327688293229e-04 
       3.951507022538e+00       4.391859231831e-04 
       4.266739136701e+00       3.617885179632e-04 
       4.607118943941e+00       2.978281434415e-04 
       4.974652605557e+00       2.450128408745e-04 
       5.371506324689e+00       2.014373356170e-04 
       5.800019113685e+00       1.655073339898e-04 
       6.262716579983e+00       1.359041710809e-04 
       6.762325811764e+00       1.115305966690e-04 
       7.301791451110e+00       9.147623743291e-05 
       7.884293049406e+00       7.498608233595e-05 
       8.513263807261e+00       6.143627645488e-05 
       9.192410809424e+00       5.030833596999e-05 
       9.925736873929e+00       4.117516390377e-05 
       1.071756414427e+01       3.368339496151e-05 
       1.157255956364e+01       2.754158067310e-05 
       1.249576238137e+01       2.250882011178e-05 
       1.349261385375e+01       1.838739397019e-05 
       1.456898931416e+01       1.501416257075e-05 
       1.573123280165e+01       1.225435068036e-05 
       1.698619445202e+01       9.997710576554e-06 
       1.834127087176e+01       8.153089720647e-06 
       1.980444873285e+01       6.646244859521e-06 
       2.138435184532e+01       5.415699304751e-06 
       2.309029198506e+01       4.411351226223e-06 
       2.493232377636e+01       3.591856805205e-06 
       2.692130395282e+01       2.923561965311e-06 
       2.906895534573e+01       2.378734879384e-06 
       3.138793597714e+01       1.934768634168e-06 
       3.389191366484e+01       1.573113125172e-06 
       3.659564657905e+01       1.278619088150e-06 
       3.951507022538e+01       1.038907366504e-06 
       4.266739136701e+01       8.438644650512e-07 
       4.607118943941e+01       6.852074400999e-07 
       4.974652605557e+01       5.562003336929e-07 
       5.371506324689e+01       4.513426587329e-07 
       5.800019113685e+01       3.661293899440e-07 
       6.262716579983e+01       2.969141566592e-07 
       6.762325811764e+01       2.407037740318e-07 
