# Matter power spectrum P(k) at redshift z=99
# for k=1.04775e-05 to 67.6233 h/Mpc,
# number of wavenumbers equal to 246
#    1:k (h/Mpc)              2:P (Mpc/h)^3        
       1.047750691338e-05       7.261927673119e-03 
       1.131335172818e-05       7.820331745737e-03 
       1.221587619877e-05       8.421675986488e-03 
       1.319039970550e-05       9.069258192194e-03 
       1.424266598317e-05       9.766638404421e-03 
       1.537887697396e-05       1.051764069682e-02 
       1.660572938097e-05       1.132639105520e-02 
       1.793045413791e-05       1.219733231416e-02 
       1.936085902737e-05       1.313524224380e-02 
       2.090537469909e-05       1.414527121893e-02 
       2.257310435923e-05       1.523296272192e-02 
       2.437387742372e-05       1.640429444530e-02 
       2.631830745176e-05       1.766569582177e-02 
       2.841785470091e-05       1.902408601793e-02 
       3.068489367268e-05       2.048692970591e-02 
       3.313278604643e-05       2.206225513594e-02 
       3.577595943165e-05       2.375870704909e-02 
       3.862999240274e-05       2.558560727479e-02 
       4.171170631739e-05       2.755297763344e-02 
       4.503926445983e-05       2.967161927316e-02 
       4.863227909323e-05       3.195316450832e-02 
       5.251192705226e-05       3.441013519284e-02 
       5.670107455699e-05       3.705601722525e-02 
       6.122441198393e-05       3.990533413563e-02 
       6.610859938837e-05       4.297372168203e-02 
       7.138242363583e-05       4.627802141688e-02 
       7.707696806873e-05       4.983636194159e-02 
       8.322579570814e-05       5.366826847231e-02 
       8.986514707061e-05       5.779476394568e-02 
       9.703415376577e-05       6.223848243885e-02 
       1.047750691338e-04       6.702379865640e-02 
       1.131335172818e-04       7.217695153381e-02 
       1.221587619877e-04       7.772619073572e-02 
       1.319039970550e-04       8.370193432376e-02 
       1.424266598317e-04       9.013692507549e-02 
       1.537887697396e-04       9.706641242570e-02 
       1.660572938097e-04       1.045283354271e-01 
       1.793045413791e-04       1.125635349068e-01 
       1.936085902737e-04       1.212159614968e-01 
       2.090537469909e-04       1.305329132714e-01 
       2.257310435923e-04       1.405652846215e-01 
       2.437387742372e-04       1.513678302540e-01 
       2.631830745176e-04       1.629994504870e-01 
       2.841785470091e-04       1.755234921224e-01 
       3.068489367268e-04       1.890080670413e-01 
       3.313278604643e-04       2.035264002435e-01 
       3.577595943165e-04       2.191571803681e-01 
       3.862999240274e-04       2.359849437593e-01 
       4.171170631739e-04       2.541004741539e-01 
       4.503926445983e-04       2.736012080277e-01 
       4.863227909323e-04       2.945916790965e-01 
       5.251192705226e-04       3.171839525183e-01 
       5.670107455699e-04       3.414980764002e-01 
       6.122441198393e-04       3.676625413100e-01 
       6.610859938837e-04       3.958147252304e-01 
       7.138242363583e-04       4.261013284919e-01 
       7.707696806873e-04       4.586787792351e-01 
       8.322579570814e-04       4.937136001343e-01 
       8.986514707061e-04       5.313826801402e-01 
       9.703415376577e-04       5.718734972158e-01 
       1.047750691338e-03       6.153841629505e-01 
       1.131335172818e-03       6.621233239465e-01 
       1.221587619877e-03       7.123098220424e-01 
       1.319039970550e-03       7.661720584613e-01 
       1.424266598317e-03       8.239546297730e-01 
       1.537887697396e-03       8.859011173467e-01 
       1.660572938097e-03       9.522588006420e-01 
       1.793045413791e-03       1.023280099819e+00 
       1.936085902737e-03       1.099216304579e+00 
       2.090537469909e-03       1.180312990453e+00 
       2.257310435923e-03       1.266804115850e+00 
       2.437387742372e-03       1.358904853406e+00 
       2.631830745176e-03       1.456802683156e+00 
       2.841785470091e-03       1.560646890522e+00 
       3.068489367268e-03       1.670536062500e+00 
       3.313278604643e-03       1.786503852159e+00 
       3.577595943165e-03       1.908502930788e+00 
       3.862999240274e-03       2.036387730709e+00 
       4.171170631739e-03       2.169896178511e+00 
       4.503926445983e-03       2.308631878994e+00 
       4.863227909323e-03       2.452047290962e+00 
       5.251192705226e-03       2.599430628088e+00 
       5.670107455699e-03       2.749896931764e+00 
       6.122441198393e-03       2.902386513383e+00 
       6.610859938837e-03       3.055668700192e+00 
       7.138242363583e-03       3.208356461547e+00 
       7.707696806873e-03       3.358923893103e+00 
       8.322579570814e-03       3.505724928177e+00 
       8.986514707061e-03       3.647008939185e+00 
       9.703415376577e-03       3.780923304277e+00 
       1.047750691338e-02       3.905491316038e+00 
       1.131335172818e-02       4.018587641073e+00 
       1.221587619877e-02       4.117901583623e+00 
       1.319039970550e-02       4.200915427699e+00 
       1.424266598317e-02       4.264941966559e+00 
       1.537887697392e-02       4.307219293317e+00 
       1.660572938023e-02       4.325058810559e+00 
       1.793045412706e-02       4.316056925211e+00 
       1.936085890181e-02       4.278229884931e+00 
       2.090537352463e-02       4.210199693814e+00 
       2.257309535333e-02       4.111411795051e+00 
       2.437382002918e-02       3.982426019691e+00 
       2.631799944462e-02       3.825164926633e+00 
       2.841644545389e-02       3.643282028331e+00 
       3.067933355377e-02       3.442190087788e+00 
       3.311368470740e-02       3.229235233812e+00 
       3.571840443502e-02       3.013518568205e+00 
       3.847720348444e-02       2.805289076560e+00 
       4.135335538431e-02       2.614410882821e+00 
       4.429361667738e-02       2.448134767883e+00 
       4.724366439141e-02       2.309236856038e+00 
       5.016480835311e-02       2.196110017814e+00 
       5.303989620246e-02       2.104366004059e+00 
       5.586870669566e-02       2.028467717046e+00 
       5.866042680613e-02       1.963154032982e+00 
       6.142798932958e-02       1.903781464328e+00 
       6.418496440164e-02       1.846478237678e+00 
       6.694418833788e-02       1.788197434419e+00 
       6.971731106057e-02       1.726718524671e+00 
       7.251476155766e-02       1.660656847096e+00 
       7.534587671527e-02       1.589468158744e+00 
       7.821907666265e-02       1.513438596060e+00 
       8.114203772912e-02       1.433570935252e+00 
       8.412184535029e-02       1.351491969491e+00 
       8.716512279304e-02       1.269272967276e+00 
       9.027813695930e-02       1.189193885908e+00 
       9.346688431697e-02       1.113500721336e+00 
       9.673716028276e-02       1.044175474847e+00 
       1.000946150830e-01       9.827066466564e-01 
       1.035447986537e-01       9.299363020785e-01 
       1.070931966762e-01       8.859618423186e-01 
       1.107452594425e-01       8.500696505909e-01 
       1.145064249153e-01       8.208045125822e-01 
       1.183821370918e-01       7.960248912351e-01 
       1.223778605862e-01       7.731445634344e-01 
       1.264990921987e-01       7.494520470689e-01 
       1.307513701367e-01       7.225563120544e-01 
       1.351402814784e-01       6.909078195620e-01 
       1.396714684203e-01       6.541826576637e-01 
       1.443506338194e-01       6.134267852730e-01 
       1.491835465229e-01       5.708684916033e-01 
       1.541760469708e-01       5.293632520213e-01 
       1.593340535561e-01       4.917113028518e-01 
       1.646635702297e-01       4.599200841792e-01 
       1.701706958456e-01       4.347288919144e-01 
       1.758616357459e-01       4.154089536975e-01 
       1.817427160982e-01       3.999369831942e-01 
       1.878204015065e-01       3.856828491559e-01 
       1.941013164283e-01       3.698096547618e-01 
       2.005922709503e-01       3.505469782694e-01 
       2.073002914972e-01       3.280434241015e-01 
       2.142326570816e-01       3.042137553313e-01 
       2.213969417533e-01       2.816124357470e-01 
       2.288010639706e-01       2.622572603641e-01 
       2.364533437147e-01       2.469619177511e-01 
       2.443625682930e-01       2.350132540670e-01 
       2.525380679504e-01       2.244176362852e-01 
       2.609898026346e-01       2.130936735805e-01 
       2.697284615565e-01       2.001013632105e-01 
       2.787655775689e-01       1.860193621801e-01 
       2.881136588829e-01       1.725172508979e-01 
       2.977863412677e-01       1.610658424885e-01 
       3.077985646929e-01       1.517613703898e-01 
       3.181667794071e-01       1.435596175462e-01 
       3.289091877812e-01       1.351818295082e-01 
       3.400460299658e-01       1.261642029826e-01 
       3.515999236474e-01       1.172022053434e-01 
       3.635962711085e-01       1.091766707278e-01 
       3.760637506334e-01       1.023095271917e-01 
       3.890349143879e-01       9.593779547524e-02 
       4.025469216825e-01       8.950769639828e-02 
       4.166424456376e-01       8.311194374664e-02 
       4.313708035863e-01       7.721553594653e-02 
       4.467893782977e-01       7.190072577836e-02 
       4.629654199664e-01       6.686908041255e-02 
       4.799783501994e-01       6.191748745305e-02 
       4.979227319373e-01       5.722231734323e-02 
       5.169121270864e-01       5.290287495397e-02 
       5.370841404489e-01       4.876981657013e-02 
       5.586070464571e-01       4.479087873448e-02 
       5.816885094930e-01       4.105195147834e-02 
       6.065870144995e-01       3.748995312867e-02 
       6.336266468475e-01       3.407619172576e-02 
       6.632156059511e-01       3.083456028144e-02 
       6.958678639263e-01       2.772834650123e-02 
       7.322247985589e-01       2.476709196077e-02 
       7.730680195114e-01       2.193957471945e-02 
       8.193049553677e-01       1.925614092233e-02 
       8.718988016039e-01       1.672923030367e-02 
       9.317218031082e-01       1.438416485704e-02 
       9.993660908989e-01       1.225066672834e-02 
       1.075037110174e+00       1.035260578364e-02 
       1.158653485707e+00       8.699710067223e-03 
       1.250099157308e+00       7.284575403044e-03 
       1.349432401273e+00       6.085460147492e-03 
       1.456947457397e+00       5.075718396968e-03 
       1.573135111331e+00       4.228308507989e-03 
       1.698621895592e+00       3.518536070728e-03 
       1.834127512934e+00       2.924966333096e-03 
       1.980444934528e+00       2.429148697167e-03 
       2.138435191726e+00       2.015493699429e-03 
       2.309029199186e+00       1.670746810787e-03 
       2.493232377687e+00       1.383769426756e-03 
       2.692130395285e+00       1.145106313096e-03 
       2.906895534573e+00       9.468274497919e-04 
       3.138793597714e+00       7.822600772925e-04 
       3.389191366484e+00       6.457903698685e-04 
       3.659564657905e+00       5.327327411862e-04 
       3.951507022538e+00       4.391439661452e-04 
       4.266739136701e+00       3.617441741238e-04 
       4.607118943941e+00       2.977779076347e-04 
       4.974652605557e+00       2.449579229789e-04 
       5.371506324689e+00       2.013761041704e-04 
       5.800019113685e+00       1.654400767246e-04 
       6.262716579983e+00       1.358310523779e-04 
       6.762325811764e+00       1.114516053465e-04 
       7.301791451110e+00       9.139062565673e-05 
       7.884293049406e+00       7.489287283448e-05 
       8.513263807261e+00       6.133458166768e-05 
       9.192410809424e+00       5.019762208844e-05 
       9.925736873929e+00       4.105483421736e-05 
       1.071756414427e+01       3.355324650494e-05 
       1.157255956364e+01       2.740039583588e-05 
       1.249576238137e+01       2.235625707559e-05 
       1.349261385375e+01       1.822272120832e-05 
       1.456898931416e+01       1.483623607141e-05 
       1.573123280165e+01       1.206274029286e-05 
       1.698619445202e+01       9.791768133952e-06 
       1.834127087176e+01       7.932242818969e-06 
       1.980444873285e+01       6.410066438124e-06 
       2.138435184532e+01       5.163845401748e-06 
       2.309029198506e+01       4.143586359755e-06 
       2.493232377636e+01       3.308332965249e-06 
       2.692130395282e+01       2.624599914279e-06 
       2.906895534573e+01       2.065174545895e-06 
       3.138793597714e+01       1.607872431928e-06 
       3.389191366484e+01       1.234743822515e-06 
       3.659564657905e+01       9.313343687794e-07 
       3.951507022538e+01       6.860402598507e-07 
       4.266739136701e+01       4.895812296684e-07 
       4.607118943941e+01       3.345691025227e-07 
       4.974652605557e+01       2.151023376994e-07 
       5.371506324689e+01       1.263413334430e-07 
       5.800019113685e+01       6.419287684644e-08 
       6.262716579983e+01       2.492968053844e-08 
       6.762325811764e+01       4.866737177427e-09 
