# Matter power spectrum P(k) at redshift z=0
# for k=1.04775e-05 to 67.6233 h/Mpc,
# number of wavenumbers equal to 246
#    1:k (h/Mpc)              2:P (Mpc/h)^3        
       1.047750691338e-05       5.020964806750e+01 
       1.131335172818e-05       5.407048206553e+01 
       1.221587619877e-05       5.822819064005e+01 
       1.319039970550e-05       6.270562589682e+01 
       1.424266598317e-05       6.752731788102e+01 
       1.537887697396e-05       7.271977200257e+01 
       1.660572938097e-05       7.831147241542e+01 
       1.793045413791e-05       8.433311815128e+01 
       1.936085902737e-05       9.081778242446e+01 
       2.090537469909e-05       9.780108061340e+01 
       2.257310435923e-05       1.053213197032e+02 
       2.437387742372e-05       1.134197377001e+02 
       2.631830745176e-05       1.221408202816e+02 
       2.841785470091e-05       1.315324720916e+02 
       3.068489367268e-05       1.416462093730e+02 
       3.313278604643e-05       1.525374500691e+02 
       3.577595943165e-05       1.642660687078e+02 
       3.862999240274e-05       1.768963504868e+02 
       4.171170631739e-05       1.904975992460e+02 
       4.503926445983e-05       2.051444490305e+02 
       4.863227909323e-05       2.209171463752e+02 
       5.251192705226e-05       2.379022222314e+02 
       5.670107455699e-05       2.561927925420e+02 
       6.122441198393e-05       2.758890441790e+02 
       6.610859938837e-05       2.970989225466e+02 
       7.138242363583e-05       3.199385558200e+02 
       7.707696806873e-05       3.445329780878e+02 
       8.322579570814e-05       3.710167315928e+02 
       8.986514707061e-05       3.995346440954e+02 
       9.703415376577e-05       4.302425403884e+02 
       1.047750691338e-04       4.633080762974e+02 
       1.131335172818e-04       4.989116267507e+02 
       1.221587619877e-04       5.372471946561e+02 
       1.319039970550e-04       5.785234124630e+02 
       1.424266598317e-04       6.229645930980e+02 
       1.537887697396e-04       6.708118484951e+02 
       1.660572938097e-04       7.223242660220e+02 
       1.793045413791e-04       7.777801553059e+02 
       1.936085902737e-04       8.374783607333e+02 
       2.090537469909e-04       9.017396264495e+02 
       2.257310435923e-04       9.709080260152e+02 
       2.437387742372e-04       1.045352448644e+03 
       2.631830745176e-04       1.125468122836e+03 
       2.841785470091e-04       1.211678179511e+03 
       3.068489367268e-04       1.304435249091e+03 
       3.313278604643e-04       1.404223052541e+03 
       3.577595943165e-04       1.511558013390e+03 
       3.862999240274e-04       1.626990836467e+03 
       4.171170631739e-04       1.751108027370e+03 
       4.503926445983e-04       1.884533381345e+03 
       4.863227909323e-04       2.027929376470e+03 
       5.251192705226e-04       2.181998446367e+03 
       5.670107455699e-04       2.347484100857e+03 
       6.122441198393e-04       2.525171869337e+03 
       6.610859938837e-04       2.715889981401e+03 
       7.138242363583e-04       2.920509686090e+03 
       7.707696806873e-04       3.139945097710e+03 
       8.322579570814e-04       3.375152334396e+03 
       8.986514707061e-04       3.627127828231e+03 
       9.703415376577e-04       3.896905450016e+03 
       1.047750691338e-03       4.185552170962e+03 
       1.131335172818e-03       4.494162426791e+03 
       1.221587619877e-03       4.823850702667e+03 
       1.319039970550e-03       5.175742739414e+03 
       1.424266598317e-03       5.551019592515e+03 
       1.537887697396e-03       5.950788335884e+03 
       1.660572938097e-03       6.376123046808e+03 
       1.793045413791e-03       6.828073896114e+03 
       1.936085902737e-03       7.307625375386e+03 
       2.090537469909e-03       7.815671853154e+03 
       2.257310435923e-03       8.352990369403e+03 
       2.437387742372e-03       8.920211057512e+03 
       2.631830745176e-03       9.517783061889e+03 
       2.841785470091e-03       1.014593703671e+04 
       3.068489367268e-03       1.080464505742e+04 
       3.313278604643e-03       1.149357459544e+04 
       3.577595943165e-03       1.221203620826e+04 
       3.862999240274e-03       1.295892538505e+04 
       4.171170631739e-03       1.373266002343e+04 
       4.503926445983e-03       1.453111834595e+04 
       4.863227909323e-03       1.535154984213e+04 
       5.251192705226e-03       1.619063613355e+04 
       5.670107455699e-03       1.704431256600e+04 
       6.122441198393e-03       1.790755938493e+04 
       6.610859938837e-03       1.877460416701e+04 
       7.138242363583e-03       1.963872429251e+04 
       7.707696806873e-03       2.049215713310e+04 
       8.322579570814e-03       2.132606961116e+04 
       8.986514707061e-03       2.213054846682e+04 
       9.703415376577e-03       2.289445471413e+04 
       1.047750691338e-02       2.360548967751e+04 
       1.131335172818e-02       2.425022855523e+04 
       1.221587619877e-02       2.481423923486e+04 
       1.319039970550e-02       2.528218638542e+04 
       1.424266598317e-02       2.563814843296e+04 
       1.537887697392e-02       2.586606220530e+04 
       1.660572938023e-02       2.595026889807e+04 
       1.793045412706e-02       2.587634614290e+04 
       1.936085890181e-02       2.563219039666e+04 
       2.090537352463e-02       2.520937116089e+04 
       2.257309535333e-02       2.460446895686e+04 
       2.437382002918e-02       2.382092309811e+04 
       2.631799944462e-02       2.287045487328e+04 
       2.841644545389e-02       2.177452395352e+04 
       3.067933355377e-02       2.056555476860e+04 
       3.311368470740e-02       1.928735138813e+04 
       3.571840443502e-02       1.799400266865e+04 
       3.847720348444e-02       1.674684598839e+04 
       4.135335538431e-02       1.560456966568e+04 
       4.429361667738e-02       1.461040303195e+04 
       4.724366439141e-02       1.378054386351e+04 
       5.016480835311e-02       1.310508756379e+04 
       5.303989620246e-02       1.255715815430e+04 
       5.586870669566e-02       1.210424715060e+04 
       5.866042680613e-02       1.171465355880e+04 
       6.142798932958e-02       1.136044587148e+04 
       6.418496440164e-02       1.101855818356e+04 
       6.694418833788e-02       1.067068117719e+04 
       6.971731106057e-02       1.030358842881e+04 
       7.251476155766e-02       9.909007247839e+03 
       7.534587671527e-02       9.483750838316e+03 
       7.821907666265e-02       9.029499643164e+03 
       8.114203772912e-02       8.552307537867e+03 
       8.412184535029e-02       8.061950059972e+03 
       8.716512279304e-02       7.570781503650e+03 
       9.027813695930e-02       7.092448553483e+03 
       9.346688431697e-02       6.640496679711e+03 
       9.673716028276e-02       6.226709748978e+03 
       1.000946150830e-01       5.859933782615e+03 
       1.035447986537e-01       5.545251393742e+03 
       1.070931966762e-01       5.283135998566e+03 
       1.107452594425e-01       5.069434334604e+03 
       1.145064249153e-01       4.895230298235e+03 
       1.183821370918e-01       4.747834653005e+03 
       1.223778605862e-01       4.611721716613e+03 
       1.264990921987e-01       4.470564908764e+03 
       1.307513701367e-01       4.310262660173e+03 
       1.351402814784e-01       4.121382791386e+03 
       1.396714684203e-01       3.902045302837e+03 
       1.443506338194e-01       3.658655036760e+03 
       1.491835465229e-01       3.404472301008e+03 
       1.541760469708e-01       3.156677579080e+03 
       1.593340535561e-01       2.931960026293e+03 
       1.646635702297e-01       2.742377225134e+03 
       1.701706958456e-01       2.592252671193e+03 
       1.758616357459e-01       2.477236866398e+03 
       1.817427160982e-01       2.385176147068e+03 
       1.878204015065e-01       2.300360027173e+03 
       1.941013164283e-01       2.205759598250e+03 
       2.005922709503e-01       2.090819156802e+03 
       2.073002914972e-01       1.956464342323e+03 
       2.142326570816e-01       1.814194868298e+03 
       2.213969417533e-01       1.679283667537e+03 
       2.288010639706e-01       1.563850472868e+03 
       2.364533437147e-01       1.472686379956e+03 
       2.443625682930e-01       1.401510676620e+03 
       2.525380679504e-01       1.338411244490e+03 
       2.609898026346e-01       1.270900939956e+03 
       2.697284615565e-01       1.193377850624e+03 
       2.787655775689e-01       1.109336475944e+03 
       2.881136588829e-01       1.028767527458e+03 
       2.977863412677e-01       9.604803216370e+02 
       3.077985646929e-01       9.050236924916e+02 
       3.181667794071e-01       8.561428523887e+02 
       3.289091877812e-01       8.061860760407e+02 
       3.400460299658e-01       7.523910474886e+02 
       3.515999236474e-01       6.989218856020e+02 
       3.635962711085e-01       6.510633956894e+02 
       3.760637506334e-01       6.101210767063e+02 
       3.890349143879e-01       5.721313278062e+02 
       4.025469216825e-01       5.337807425688e+02 
       4.166424456376e-01       4.956301546639e+02 
       4.313708035863e-01       4.604683070058e+02 
       4.467893782977e-01       4.287754999581e+02 
       4.629654199664e-01       3.987723501260e+02 
       4.799783501994e-01       3.692406072834e+02 
       4.979227319373e-01       3.412375896332e+02 
       5.169121270864e-01       3.154810604203e+02 
       5.370841404489e-01       2.908336463474e+02 
       5.586070464571e-01       2.671038850560e+02 
       5.816885094930e-01       2.448066337948e+02 
       6.065870144995e-01       2.235650676981e+02 
       6.336266468475e-01       2.032080657871e+02 
       6.632156059511e-01       1.838755074597e+02 
       6.958678639263e-01       1.653515868775e+02 
       7.322247985589e-01       1.476924474956e+02 
       7.730680195114e-01       1.308295522440e+02 
       8.193049553677e-01       1.148269192059e+02 
       8.718988016039e-01       9.975810776933e+01 
       9.317218031082e-01       8.577297650659e+01 
       9.993660908989e-01       7.304912362414e+01 
       1.075037110174e+00       6.172981997813e+01 
       1.158653485707e+00       5.187209626399e+01 
       1.250099157308e+00       4.343233604006e+01 
       1.349432401273e+00       3.628064814364e+01 
       1.456947457397e+00       3.025828526447e+01 
       1.573135111331e+00       2.520379034986e+01 
       1.698621895592e+00       2.097024745515e+01 
       1.834127512934e+00       1.742933766458e+01 
       1.980444934528e+00       1.447131360612e+01 
       2.138435191726e+00       1.200313768609e+01 
       2.309029199186e+00       9.945789380382e+00 
       2.493232377687e+00       8.232851172739e+00 
       2.692130395285e+00       6.807799558932e+00 
       2.906895534573e+00       5.623539452146e+00 
       3.138793597714e+00       4.640094716409e+00 
       3.389191366484e+00       3.824120464632e+00 
       3.659564657905e+00       3.147561828338e+00 
       3.951507022538e+00       2.587019034491e+00 
       4.266739136701e+00       2.122821369123e+00 
       4.607118943941e+00       1.738613473918e+00 
       4.974652605557e+00       1.420756154850e+00 
       5.371506324689e+00       1.157844022149e+00 
       5.800019113685e+00       9.404740540133e-01 
       6.262716579983e+00       7.607584783265e-01 
       6.762325811764e+00       6.122270096255e-01 
       7.301791451110e+00       4.894942845990e-01 
       7.884293049406e+00       3.881431921739e-01 
       8.513263807261e+00       3.045351155914e-01 
       9.192410809424e+00       2.357024966534e-01 
       9.925736873929e+00       1.792266386112e-01 
       1.071756414427e+01       1.331522633762e-01 
       1.157255956364e+01       9.591100483937e-02 
       1.249576238137e+01       6.624898872621e-02 
       1.349261385375e+01       4.315206953060e-02 
       1.456898931416e+01       2.579100083346e-02 
       1.573123280165e+01       1.345571860470e-02 
       1.698619445202e+01       5.492643965525e-03 
       1.834127087176e+01       1.244587360551e-03 
       1.980444873285e+01       7.129628005681e-11 
       2.138435184532e+01       9.622888680310e-04 
       2.309029198506e+01       3.250385467366e-03 
       2.493232377636e+01       5.944590198652e-03 
       2.692130395282e+01       8.182386157864e-03 
       2.906895534573e+01       9.296289729469e-03 
       3.138793597714e+01       8.959992162452e-03 
       3.389191366484e+01       7.287124933163e-03 
       3.659564657905e+01       4.819056876882e-03 
       3.951507022538e+01       2.351485858536e-03 
       4.266739136701e+01       6.271319197847e-04 
       4.607118943941e+01       4.547065051694e-06 
       4.974652605557e+01       2.882452631031e-04 
       5.371506324689e+01       8.659818379827e-04 
       5.800019113685e+01       1.120706466676e-03 
       6.262716579983e+01       8.490040111251e-04 
       6.762325811764e+01       3.408147321289e-04 
