# Matter power spectrum P(k) at redshift z=99
# for k=1.04775e-05 to 67.6233 h/Mpc,
# number of wavenumbers equal to 246
#    1:k (h/Mpc)              2:P (Mpc/h)^3        
       1.047750691338e-05       7.261927673119e-03 
       1.131335172818e-05       7.820331745737e-03 
       1.221587619877e-05       8.421675986489e-03 
       1.319039970550e-05       9.069258192194e-03 
       1.424266598317e-05       9.766638404421e-03 
       1.537887697396e-05       1.051764069682e-02 
       1.660572938097e-05       1.132639105520e-02 
       1.793045413791e-05       1.219733231416e-02 
       1.936085902737e-05       1.313524224380e-02 
       2.090537469909e-05       1.414527121893e-02 
       2.257310435923e-05       1.523296272192e-02 
       2.437387742372e-05       1.640429444530e-02 
       2.631830745176e-05       1.766569582178e-02 
       2.841785470091e-05       1.902408601793e-02 
       3.068489367268e-05       2.048692970591e-02 
       3.313278604643e-05       2.206225513594e-02 
       3.577595943165e-05       2.375870704909e-02 
       3.862999240274e-05       2.558560727479e-02 
       4.171170631739e-05       2.755297763344e-02 
       4.503926445983e-05       2.967161927315e-02 
       4.863227909323e-05       3.195316450832e-02 
       5.251192705226e-05       3.441013519284e-02 
       5.670107455699e-05       3.705601722528e-02 
       6.122441198393e-05       3.990533413561e-02 
       6.610859938837e-05       4.297372168203e-02 
       7.138242363583e-05       4.627802141688e-02 
       7.707696806873e-05       4.983636194159e-02 
       8.322579570814e-05       5.366826847231e-02 
       8.986514707061e-05       5.779476394568e-02 
       9.703415376577e-05       6.223848243885e-02 
       1.047750691338e-04       6.702379865640e-02 
       1.131335172818e-04       7.217695153381e-02 
       1.221587619877e-04       7.772619073572e-02 
       1.319039970550e-04       8.370193432376e-02 
       1.424266598317e-04       9.013692507548e-02 
       1.537887697396e-04       9.706641242570e-02 
       1.660572938097e-04       1.045283354271e-01 
       1.793045413791e-04       1.125635349068e-01 
       1.936085902737e-04       1.212159614968e-01 
       2.090537469909e-04       1.305329132714e-01 
       2.257310435923e-04       1.405652846215e-01 
       2.437387742372e-04       1.513678302540e-01 
       2.631830745176e-04       1.629994504870e-01 
       2.841785470091e-04       1.755234921224e-01 
       3.068489367268e-04       1.890080670413e-01 
       3.313278604643e-04       2.035264002435e-01 
       3.577595943165e-04       2.191571803681e-01 
       3.862999240274e-04       2.359849437593e-01 
       4.171170631739e-04       2.541004741539e-01 
       4.503926445983e-04       2.736012080278e-01 
       4.863227909323e-04       2.945916790965e-01 
       5.251192705226e-04       3.171839525182e-01 
       5.670107455699e-04       3.414980764002e-01 
       6.122441198393e-04       3.676625413100e-01 
       6.610859938837e-04       3.958147252304e-01 
       7.138242363583e-04       4.261013284909e-01 
       7.707696806873e-04       4.586787792353e-01 
       8.322579570814e-04       4.937136001348e-01 
       8.986514707061e-04       5.313826801402e-01 
       9.703415376577e-04       5.718734972158e-01 
       1.047750691338e-03       6.153841629505e-01 
       1.131335172818e-03       6.621233239465e-01 
       1.221587619877e-03       7.123098220429e-01 
       1.319039970550e-03       7.661720584214e-01 
       1.424266598317e-03       8.239546297730e-01 
       1.537887697396e-03       8.859011173466e-01 
       1.660572938097e-03       9.522588006419e-01 
       1.793045413791e-03       1.023280099819e+00 
       1.936085902737e-03       1.099216304579e+00 
       2.090537469909e-03       1.180312990453e+00 
       2.257310435923e-03       1.266804115850e+00 
       2.437387742372e-03       1.358904853404e+00 
       2.631830745176e-03       1.456802683156e+00 
       2.841785470091e-03       1.560646890522e+00 
       3.068489367268e-03       1.670536062498e+00 
       3.313278604643e-03       1.786503852157e+00 
       3.577595943165e-03       1.908502930788e+00 
       3.862999240274e-03       2.036387730709e+00 
       4.171170631739e-03       2.169896178804e+00 
       4.503926445983e-03       2.308631878994e+00 
       4.863227909323e-03       2.452047290962e+00 
       5.251192705226e-03       2.599430628088e+00 
       5.670107455699e-03       2.749896931852e+00 
       6.122441198393e-03       2.902386513382e+00 
       6.610859938837e-03       3.055668709976e+00 
       7.138242363583e-03       3.208356461546e+00 
       7.707696806873e-03       3.358923892463e+00 
       8.322579570814e-03       3.505725595250e+00 
       8.986514707061e-03       3.647009252400e+00 
       9.703415376577e-03       3.780923304307e+00 
       1.047750691338e-02       3.905490870137e+00 
       1.131335172818e-02       4.018587952509e+00 
       1.221587619877e-02       4.117901590346e+00 
       1.319039970550e-02       4.200915463801e+00 
       1.424266598317e-02       4.264942571208e+00 
       1.537887697392e-02       4.307220211692e+00 
       1.660572938023e-02       4.325062570885e+00 
       1.793045412706e-02       4.316055664124e+00 
       1.936085890181e-02       4.278230197536e+00 
       2.090537352463e-02       4.210199964289e+00 
       2.257309535333e-02       4.111411284534e+00 
       2.437382002918e-02       3.982412251094e+00 
       2.631799944462e-02       3.825175159738e+00 
       2.841644545389e-02       3.643281030357e+00 
       3.067933355377e-02       3.442195445314e+00 
       3.311368470740e-02       3.229240652037e+00 
       3.571840443502e-02       3.013500865324e+00 
       3.847720348444e-02       2.805284732729e+00 
       4.135335538431e-02       2.614405092911e+00 
       4.429361667738e-02       2.448129745160e+00 
       4.724366439141e-02       2.309237407230e+00 
       5.016480835311e-02       2.196111707267e+00 
       5.303989620246e-02       2.104366158204e+00 
       5.586870669566e-02       2.028462337229e+00 
       5.866042680613e-02       1.963151977659e+00 
       6.142798932958e-02       1.903782339255e+00 
       6.418496440164e-02       1.846474862314e+00 
       6.694418833788e-02       1.788194515226e+00 
       6.971731106057e-02       1.726712783248e+00 
       7.251476155766e-02       1.660653279330e+00 
       7.534587671527e-02       1.589472506228e+00 
       7.821907666265e-02       1.513439517378e+00 
       8.114203772912e-02       1.433568835983e+00 
       8.412184535029e-02       1.351494169906e+00 
       8.716512279304e-02       1.269275024555e+00 
       9.027813695930e-02       1.189193933843e+00 
       9.346688431697e-02       1.113500502506e+00 
       9.673716028276e-02       1.044176441893e+00 
       1.000946150830e-01       9.827092192485e-01 
       1.035447986537e-01       9.299376143501e-01 
       1.070931966762e-01       8.859590390936e-01 
       1.107452594425e-01       8.500704544299e-01 
       1.145064249153e-01       8.208027991673e-01 
       1.183821370918e-01       7.960248763482e-01 
       1.223778605862e-01       7.731464252363e-01 
       1.264990921987e-01       7.494528003192e-01 
       1.307513701367e-01       7.225586576937e-01 
       1.351402814784e-01       6.909087796663e-01 
       1.396714684203e-01       6.541802853539e-01 
       1.443506338194e-01       6.134260439168e-01 
       1.491835465229e-01       5.708675188263e-01 
       1.541760469708e-01       5.293620020581e-01 
       1.593340535561e-01       4.917105327045e-01 
       1.646635702297e-01       4.599196162036e-01 
       1.701706958456e-01       4.347277942694e-01 
       1.758616357459e-01       4.154081337107e-01 
       1.817427160982e-01       3.999370824230e-01 
       1.878204015065e-01       3.856828702057e-01 
       1.941013164283e-01       3.698094239262e-01 
       2.005922709503e-01       3.505453604697e-01 
       2.073002914972e-01       3.280432307599e-01 
       2.142326570816e-01       3.042150332474e-01 
       2.213969417533e-01       2.816127720564e-01 
       2.288010639706e-01       2.622573074432e-01 
       2.364533437147e-01       2.469615573208e-01 
       2.443625682930e-01       2.350127378489e-01 
       2.525380679504e-01       2.244181202575e-01 
       2.609898026346e-01       2.130939600889e-01 
       2.697284615565e-01       2.001010693343e-01 
       2.787655775689e-01       1.860198687825e-01 
       2.881136588829e-01       1.725174960336e-01 
       2.977863412677e-01       1.610661665330e-01 
       3.077985646929e-01       1.517609760990e-01 
       3.181667794071e-01       1.435592686413e-01 
       3.289091877812e-01       1.351815534791e-01 
       3.400460299658e-01       1.261645481445e-01 
       3.515999236474e-01       1.172019740590e-01 
       3.635962711085e-01       1.091766317016e-01 
       3.760637506334e-01       1.023096084808e-01 
       3.890349143879e-01       9.593794320809e-02 
       4.025469216825e-01       8.950757169044e-02 
       4.166424456376e-01       8.311166776772e-02 
       4.313708035863e-01       7.721558325149e-02 
       4.467893782977e-01       7.190060176141e-02 
       4.629654199664e-01       6.686901691842e-02 
       4.799783501994e-01       6.191751226859e-02 
       4.979227319373e-01       5.722230405562e-02 
       5.169121270864e-01       5.290288279752e-02 
       5.370841404489e-01       4.876976058388e-02 
       5.586070464571e-01       4.479102859505e-02 
       5.816885094930e-01       4.105187484545e-02 
       6.065870144995e-01       3.748985573644e-02 
       6.336266468475e-01       3.407622484649e-02 
       6.632156059511e-01       3.083445796770e-02 
       6.958678639263e-01       2.772837960523e-02 
       7.322247985589e-01       2.476712167791e-02 
       7.730680195114e-01       2.193959031617e-02 
       8.193049553677e-01       1.925610004745e-02 
       8.718988016039e-01       1.672924985283e-02 
       9.317218031082e-01       1.438423280092e-02 
       9.993660908989e-01       1.225069307737e-02 
       1.075037110174e+00       1.035259105413e-02 
       1.158653485707e+00       8.699723401561e-03 
       1.250099157308e+00       7.284593622861e-03 
       1.349432401273e+00       6.085451567084e-03 
       1.456947457397e+00       5.075689225917e-03 
       1.573135111331e+00       4.228257052937e-03 
       1.698621895592e+00       3.518502673000e-03 
       1.834127512934e+00       2.924945920070e-03 
       1.980444934528e+00       2.429115968926e-03 
       2.138435191726e+00       2.015456407213e-03 
       2.309029199186e+00       1.670707558202e-03 
       2.493232377687e+00       1.383726857363e-03 
       2.692130395285e+00       1.145050365134e-03 
       2.906895534573e+00       9.467772738117e-04 
       3.138793597714e+00       7.821985434483e-04 
       3.389191366484e+00       6.457217604696e-04 
       3.659564657905e+00       5.326599990627e-04 
       3.951507022538e+00       4.390640081045e-04 
       4.266739136701e+00       3.616538441302e-04 
       4.607118943941e+00       2.976803182104e-04 
       4.974652605557e+00       2.448535793974e-04 
       5.371506324689e+00       2.012616316260e-04 
       5.800019113685e+00       1.653162895968e-04 
       6.262716579983e+00       1.356948727384e-04 
       6.762325811764e+00       1.113033955617e-04 
       7.301791451110e+00       9.122948896060e-05 
       7.884293049406e+00       7.471822114998e-05 
       8.513263807261e+00       6.114503658660e-05 
       9.192410809424e+00       4.999313463720e-05 
       9.925736873929e+00       4.083372265617e-05 
       1.071756414427e+01       3.331475576540e-05 
       1.157255956364e+01       2.714363730304e-05 
       1.249576238137e+01       2.208063267279e-05 
       1.349261385375e+01       1.792750266421e-05 
       1.456898931416e+01       1.452140903737e-05 
       1.573123280165e+01       1.172770292040e-05 
       1.698619445202e+01       9.436591260058e-06 
       1.834127087176e+01       7.557691449761e-06 
       1.980444873285e+01       6.017001785060e-06 
       2.138435184532e+01       4.754067967350e-06 
       2.309029198506e+01       3.719592677010e-06 
       2.493232377636e+01       2.873629119189e-06 
       2.692130395282e+01       2.183656040017e-06 
       2.906895534573e+01       1.623797969145e-06 
       3.138793597714e+01       1.173137158322e-06 
       3.389191366484e+01       8.150801312122e-07 
       3.659564657905e+01       5.363141493439e-07 
       3.951507022538e+01       3.260613626482e-07 
       4.266739136701e+01       1.753160080147e-07 
       4.607118943941e+01       7.603644322553e-08 
       4.974652605557e+01       2.046077705691e-08 
       5.371506324689e+01       4.881942648113e-10 
       5.800019113685e+01       7.233809422334e-09 
       6.262716579983e+01       3.093787891474e-08 
       6.762325811764e+01       6.132084590193e-08 
