# Matter power spectrum P(k) at redshift z=99
# for k=1.04775e-05 to 67.6233 h/Mpc,
# number of wavenumbers equal to 246
#    1:k (h/Mpc)              2:P (Mpc/h)^3        
       1.047750691338e-05       7.261927673156e-03 
       1.131335172818e-05       7.820331745777e-03 
       1.221587619877e-05       8.421675986531e-03 
       1.319039970550e-05       9.069258192240e-03 
       1.424266598317e-05       9.766638404470e-03 
       1.537887697396e-05       1.051764069687e-02 
       1.660572938097e-05       1.132639105525e-02 
       1.793045413791e-05       1.219733231423e-02 
       1.936085902737e-05       1.313524224387e-02 
       2.090537469909e-05       1.414527121900e-02 
       2.257310435923e-05       1.523296272200e-02 
       2.437387742372e-05       1.640429444538e-02 
       2.631830745176e-05       1.766569582186e-02 
       2.841785470091e-05       1.902408601802e-02 
       3.068489367268e-05       2.048692970602e-02 
       3.313278604643e-05       2.206225513605e-02 
       3.577595943165e-05       2.375870704921e-02 
       3.862999240274e-05       2.558560727492e-02 
       4.171170631739e-05       2.755297763358e-02 
       4.503926445983e-05       2.967161927329e-02 
       4.863227909323e-05       3.195316450848e-02 
       5.251192705226e-05       3.441013519302e-02 
       5.670107455699e-05       3.705601722544e-02 
       6.122441198393e-05       3.990533413584e-02 
       6.610859938837e-05       4.297372168225e-02 
       7.138242363583e-05       4.627802141711e-02 
       7.707696806873e-05       4.983636194184e-02 
       8.322579570814e-05       5.366826847258e-02 
       8.986514707061e-05       5.779476394598e-02 
       9.703415376577e-05       6.223848243916e-02 
       1.047750691338e-04       6.702379865673e-02 
       1.131335172818e-04       7.217695153417e-02 
       1.221587619877e-04       7.772619073612e-02 
       1.319039970550e-04       8.370193432417e-02 
       1.424266598317e-04       9.013692507591e-02 
       1.537887697396e-04       9.706641242619e-02 
       1.660572938097e-04       1.045283354277e-01 
       1.793045413791e-04       1.125635349074e-01 
       1.936085902737e-04       1.212159614974e-01 
       2.090537469909e-04       1.305329132721e-01 
       2.257310435923e-04       1.405652846222e-01 
       2.437387742372e-04       1.513678302548e-01 
       2.631830745176e-04       1.629994504878e-01 
       2.841785470091e-04       1.755234921233e-01 
       3.068489367268e-04       1.890080670422e-01 
       3.313278604643e-04       2.035264002445e-01 
       3.577595943165e-04       2.191571803691e-01 
       3.862999240274e-04       2.359849437603e-01 
       4.171170631739e-04       2.541004741551e-01 
       4.503926445983e-04       2.736012080290e-01 
       4.863227909323e-04       2.945916790978e-01 
       5.251192705226e-04       3.171839525196e-01 
       5.670107455699e-04       3.414980764017e-01 
       6.122441198393e-04       3.676625413116e-01 
       6.610859938837e-04       3.958147252320e-01 
       7.138242363583e-04       4.261013284935e-01 
       7.707696806873e-04       4.586787792369e-01 
       8.322579570814e-04       4.937136001373e-01 
       8.986514707061e-04       5.313826801419e-01 
       9.703415376577e-04       5.718734972175e-01 
       1.047750691338e-03       6.153841629525e-01 
       1.131335172818e-03       6.621233239481e-01 
       1.221587619877e-03       7.123098220428e-01 
       1.319039970550e-03       7.661720584749e-01 
       1.424266598317e-03       8.239546297737e-01 
       1.537887697396e-03       8.859011173463e-01 
       1.660572938097e-03       9.522588006336e-01 
       1.793045413791e-03       1.023280099817e+00 
       1.936085902737e-03       1.099216304575e+00 
       2.090537469909e-03       1.180312990447e+00 
       2.257310435923e-03       1.266804115838e+00 
       2.437387742372e-03       1.358904853391e+00 
       2.631830745176e-03       1.456802683136e+00 
       2.841785470091e-03       1.560646890495e+00 
       3.068489367268e-03       1.670536062464e+00 
       3.313278604643e-03       1.786503852112e+00 
       3.577595943165e-03       1.908502930728e+00 
       3.862999240274e-03       2.036387730630e+00 
       4.171170631739e-03       2.169896176620e+00 
       4.503926445983e-03       2.308631878864e+00 
       4.863227909323e-03       2.452047290796e+00 
       5.251192705226e-03       2.599430627877e+00 
       5.670107455699e-03       2.749896931550e+00 
       6.122441198393e-03       2.902386513048e+00 
       6.610859938837e-03       3.055668724624e+00 
       7.138242363583e-03       3.208356461013e+00 
       7.707696806873e-03       3.358923891879e+00 
       8.322579570814e-03       3.505725275482e+00 
       8.986514707061e-03       3.647009634146e+00 
       9.703415376577e-03       3.780923303012e+00 
       1.047750691338e-02       3.905491924747e+00 
       1.131335172818e-02       4.018587639304e+00 
       1.221587619877e-02       4.117901581535e+00 
       1.319039970550e-02       4.200915403763e+00 
       1.424266598317e-02       4.264942245208e+00 
       1.537887697392e-02       4.307214387281e+00 
       1.660572938023e-02       4.325059863998e+00 
       1.793045412706e-02       4.316057498832e+00 
       1.936085890181e-02       4.278228086978e+00 
       2.090537352463e-02       4.210201398947e+00 
       2.257309535333e-02       4.111422900422e+00 
       2.437382002918e-02       3.982412641384e+00 
       2.631799944462e-02       3.825170810151e+00 
       2.841644545389e-02       3.643281954257e+00 
       3.067933355377e-02       3.442195494427e+00 
       3.311368470740e-02       3.229237316738e+00 
       3.571840443502e-02       3.013511207956e+00 
       3.847720348444e-02       2.805282381687e+00 
       4.135335538431e-02       2.614412800222e+00 
       4.429361667738e-02       2.448137331758e+00 
       4.724366439141e-02       2.309236913135e+00 
       5.016480835311e-02       2.196110082946e+00 
       5.303989620246e-02       2.104368285289e+00 
       5.586870669566e-02       2.028463369215e+00 
       5.866042680613e-02       1.963156386311e+00 
       6.142798932958e-02       1.903780269065e+00 
       6.418496440164e-02       1.846477740273e+00 
       6.694418833788e-02       1.788197629687e+00 
       6.971731106057e-02       1.726715380744e+00 
       7.251476155766e-02       1.660656267369e+00 
       7.534587671527e-02       1.589468259424e+00 
       7.821907666265e-02       1.513439631416e+00 
       8.114203772912e-02       1.433571972911e+00 
       8.412184535029e-02       1.351493083273e+00 
       8.716512279304e-02       1.269274614516e+00 
       9.027813695930e-02       1.189192605612e+00 
       9.346688431697e-02       1.113501305259e+00 
       9.673716028276e-02       1.044174314532e+00 
       1.000946150830e-01       9.827064322782e-01 
       1.035447986537e-01       9.299363831988e-01 
       1.070931966762e-01       8.859582811484e-01 
       1.107452594425e-01       8.500720173195e-01 
       1.145064249153e-01       8.208035174552e-01 
       1.183821370918e-01       7.960256299031e-01 
       1.223778605862e-01       7.731433862293e-01 
       1.264990921987e-01       7.494503782902e-01 
       1.307513701367e-01       7.225573889644e-01 
       1.351402814784e-01       6.909093647713e-01 
       1.396714684203e-01       6.541828355022e-01 
       1.443506338194e-01       6.134273275315e-01 
       1.491835465229e-01       5.708702688454e-01 
       1.541760469708e-01       5.293652817634e-01 
       1.593340535561e-01       4.917106731303e-01 
       1.646635702297e-01       4.599196478681e-01 
       1.701706958456e-01       4.347278531930e-01 
       1.758616357459e-01       4.154073219101e-01 
       1.817427160982e-01       3.999359092288e-01 
       1.878204015065e-01       3.856853491500e-01 
       1.941013164283e-01       3.698134359347e-01 
       2.005922709503e-01       3.505510432818e-01 
       2.073002914972e-01       3.280474459320e-01 
       2.142326570816e-01       3.042140686629e-01 
       2.213969417533e-01       2.816112445241e-01 
       2.288010639706e-01       2.622564828436e-01 
       2.364533437147e-01       2.469616936373e-01 
       2.443625682930e-01       2.350124516362e-01 
       2.525380679504e-01       2.244204884340e-01 
       2.609898026346e-01       2.130959016992e-01 
       2.697284615565e-01       2.001024043602e-01 
       2.787655775689e-01       1.860195157023e-01 
       2.881136588829e-01       1.725169572057e-01 
       2.977863412677e-01       1.610650528839e-01 
       3.077985646929e-01       1.517607412804e-01 
       3.181667794071e-01       1.435591582468e-01 
       3.289091877812e-01       1.351814695843e-01 
       3.400460299658e-01       1.261637592676e-01 
       3.515999236474e-01       1.172018221162e-01 
       3.635962711085e-01       1.091764173516e-01 
       3.760637506334e-01       1.023088537033e-01 
       3.890349143879e-01       9.593701416832e-02 
       4.025469216825e-01       8.950719286070e-02 
       4.166424456376e-01       8.311131209413e-02 
       4.313708035863e-01       7.721480132988e-02 
       4.467893782977e-01       7.190021308603e-02 
       4.629654199664e-01       6.686873880072e-02 
       4.799783501994e-01       6.191727900865e-02 
       4.979227319373e-01       5.722197832680e-02 
       5.169121270864e-01       5.290245174648e-02 
       5.370841404489e-01       4.876937963982e-02 
       5.586070464571e-01       4.479033951046e-02 
       5.816885094930e-01       4.105144403857e-02 
       6.065870144995e-01       3.748948865679e-02 
       6.336266468475e-01       3.407582879592e-02 
       6.632156059511e-01       3.083417994467e-02 
       6.958678639263e-01       2.772787544154e-02 
       7.322247985589e-01       2.476660411249e-02 
       7.730680195114e-01       2.193910319948e-02 
       8.193049553677e-01       1.925566993726e-02 
       8.718988016039e-01       1.672885127977e-02 
       9.317218031082e-01       1.438378776079e-02 
       9.993660908989e-01       1.225024410273e-02 
       1.075037110174e+00       1.035219605879e-02 
       1.158653485707e+00       8.699299890533e-03 
       1.250099157308e+00       7.284174859735e-03 
       1.349432401273e+00       6.085015821098e-03 
       1.456947457397e+00       5.075288263825e-03 
       1.573135111331e+00       4.227890735231e-03 
       1.698621895592e+00       3.518121498899e-03 
       1.834127512934e+00       2.924554401207e-03 
       1.980444934528e+00       2.428737615460e-03 
       2.138435191726e+00       2.015090100127e-03 
       2.309029199186e+00       1.670354341654e-03 
       2.493232377687e+00       1.383378675276e-03 
       2.692130395285e+00       1.144715745017e-03 
       2.906895534573e+00       9.464472825167e-04 
       3.138793597714e+00       7.818864227924e-04 
       3.389191366484e+00       6.454243041446e-04 
       3.659564657905e+00       5.323780607174e-04 
       3.951507022538e+00       4.387974393448e-04 
       4.266739136701e+00       3.614042277116e-04 
       4.607118943941e+00       2.974517141026e-04 
       4.974652605557e+00       2.446420767448e-04 
       5.371506324689e+00       2.010715423839e-04 
       5.800019113685e+00       1.651470021680e-04 
       6.262716579983e+00       1.355508354018e-04 
       6.762325811764e+00       1.111840491745e-04 
       7.301791451110e+00       9.113691472396e-05 
       7.884293049406e+00       7.465468580047e-05 
       8.513263807261e+00       6.111141538709e-05 
       9.192410809424e+00       4.999058803103e-05 
       9.925736873929e+00       4.086452945876e-05 
       1.071756414427e+01       3.338019983163e-05 
       1.157255956364e+01       2.724597428279e-05 
       1.249576238137e+01       2.222104319764e-05 
       1.349261385375e+01       1.810710399684e-05 
       1.456898931416e+01       1.474141989618e-05 
       1.573123280165e+01       1.198918388944e-05 
       1.698619445202e+01       9.740062201161e-06 
       1.834127087176e+01       7.903181033646e-06 
       1.980444873285e+01       6.403888036888e-06 
       2.138435184532e+01       5.181030031289e-06 
       2.309029198506e+01       4.184262692675e-06 
       2.493232377636e+01       3.372436162005e-06 
       2.692130395282e+01       2.711775791194e-06 
       2.906895534573e+01       2.174611871450e-06 
       3.138793597714e+01       1.738347505235e-06 
       3.389191366484e+01       1.384428831113e-06 
       3.659564657905e+01       1.097732254681e-06 
       3.951507022538e+01       8.659003874177e-07 
       4.266739136701e+01       6.788003211131e-07 
       4.607118943941e+01       5.282194992798e-07 
       4.974652605557e+01       4.074104661295e-07 
       5.371506324689e+01       3.108889493839e-07 
       5.800019113685e+01       2.341824774019e-07 
       6.262716579983e+01       1.736370219161e-07 
       6.762325811764e+01       1.262772087673e-07 
