# Matter power spectrum P(k) at redshift z=99
# for k=1.04775e-05 to 67.6233 h/Mpc,
# number of wavenumbers equal to 246
#    1:k (h/Mpc)              2:P (Mpc/h)^3        
       1.047750691338e-05       7.261927673119e-03 
       1.131335172818e-05       7.820331745737e-03 
       1.221587619877e-05       8.421675986489e-03 
       1.319039970550e-05       9.069258192194e-03 
       1.424266598317e-05       9.766638404421e-03 
       1.537887697396e-05       1.051764069681e-02 
       1.660572938097e-05       1.132639105520e-02 
       1.793045413791e-05       1.219733231416e-02 
       1.936085902737e-05       1.313524224380e-02 
       2.090537469909e-05       1.414527121893e-02 
       2.257310435923e-05       1.523296272192e-02 
       2.437387742372e-05       1.640429444530e-02 
       2.631830745176e-05       1.766569582177e-02 
       2.841785470091e-05       1.902408601793e-02 
       3.068489367268e-05       2.048692970591e-02 
       3.313278604643e-05       2.206225513594e-02 
       3.577595943165e-05       2.375870704909e-02 
       3.862999240274e-05       2.558560727479e-02 
       4.171170631739e-05       2.755297763344e-02 
       4.503926445983e-05       2.967161927316e-02 
       4.863227909323e-05       3.195316450832e-02 
       5.251192705226e-05       3.441013519284e-02 
       5.670107455699e-05       3.705601722526e-02 
       6.122441198393e-05       3.990533413561e-02 
       6.610859938837e-05       4.297372168203e-02 
       7.138242363583e-05       4.627802141688e-02 
       7.707696806873e-05       4.983636194159e-02 
       8.322579570814e-05       5.366826847231e-02 
       8.986514707061e-05       5.779476394568e-02 
       9.703415376577e-05       6.223848243885e-02 
       1.047750691338e-04       6.702379865640e-02 
       1.131335172818e-04       7.217695153381e-02 
       1.221587619877e-04       7.772619073573e-02 
       1.319039970550e-04       8.370193432375e-02 
       1.424266598317e-04       9.013692507545e-02 
       1.537887697396e-04       9.706641242570e-02 
       1.660572938097e-04       1.045283354271e-01 
       1.793045413791e-04       1.125635349068e-01 
       1.936085902737e-04       1.212159614968e-01 
       2.090537469909e-04       1.305329132714e-01 
       2.257310435923e-04       1.405652846215e-01 
       2.437387742372e-04       1.513678302540e-01 
       2.631830745176e-04       1.629994504870e-01 
       2.841785470091e-04       1.755234921224e-01 
       3.068489367268e-04       1.890080670413e-01 
       3.313278604643e-04       2.035264002435e-01 
       3.577595943165e-04       2.191571803681e-01 
       3.862999240274e-04       2.359849437592e-01 
       4.171170631739e-04       2.541004741539e-01 
       4.503926445983e-04       2.736012080278e-01 
       4.863227909323e-04       2.945916790965e-01 
       5.251192705226e-04       3.171839525182e-01 
       5.670107455699e-04       3.414980764002e-01 
       6.122441198393e-04       3.676625413100e-01 
       6.610859938837e-04       3.958147252304e-01 
       7.138242363583e-04       4.261013284921e-01 
       7.707696806873e-04       4.586787792354e-01 
       8.322579570814e-04       4.937136001346e-01 
       8.986514707061e-04       5.313826801402e-01 
       9.703415376577e-04       5.718734972157e-01 
       1.047750691338e-03       6.153841629505e-01 
       1.131335172818e-03       6.621233239465e-01 
       1.221587619877e-03       7.123098220425e-01 
       1.319039970550e-03       7.661720584760e-01 
       1.424266598317e-03       8.239546297731e-01 
       1.537887697396e-03       8.859011173467e-01 
       1.660572938097e-03       9.522588006420e-01 
       1.793045413791e-03       1.023280099819e+00 
       1.936085902737e-03       1.099216304579e+00 
       2.090537469909e-03       1.180312990454e+00 
       2.257310435923e-03       1.266804115854e+00 
       2.437387742372e-03       1.358904853405e+00 
       2.631830745176e-03       1.456802683156e+00 
       2.841785470091e-03       1.560646890522e+00 
       3.068489367268e-03       1.670536062499e+00 
       3.313278604643e-03       1.786503852158e+00 
       3.577595943165e-03       1.908502930786e+00 
       3.862999240274e-03       2.036387730709e+00 
       4.171170631739e-03       2.169896177994e+00 
       4.503926445983e-03       2.308631878994e+00 
       4.863227909323e-03       2.452047290962e+00 
       5.251192705226e-03       2.599430628088e+00 
       5.670107455699e-03       2.749896931816e+00 
       6.122441198393e-03       2.902386513385e+00 
       6.610859938837e-03       3.055668702967e+00 
       7.138242363583e-03       3.208356461548e+00 
       7.707696806873e-03       3.358923892045e+00 
       8.322579570814e-03       3.505725595181e+00 
       8.986514707061e-03       3.647008937517e+00 
       9.703415376577e-03       3.780923304338e+00 
       1.047750691338e-02       3.905491396479e+00 
       1.131335172818e-02       4.018588483378e+00 
       1.221587619877e-02       4.117901584438e+00 
       1.319039970550e-02       4.200915372937e+00 
       1.424266598317e-02       4.264942451128e+00 
       1.537887697392e-02       4.307217520445e+00 
       1.660572938023e-02       4.325061035357e+00 
       1.793045412706e-02       4.316059483643e+00 
       1.936085890181e-02       4.278227984409e+00 
       2.090537352463e-02       4.210202498908e+00 
       2.257309535333e-02       4.111417213462e+00 
       2.437382002918e-02       3.982422861238e+00 
       2.631799944462e-02       3.825164780403e+00 
       2.841644545389e-02       3.643276832190e+00 
       3.067933355377e-02       3.442196862642e+00 
       3.311368470740e-02       3.229234089652e+00 
       3.571840443502e-02       3.013507341982e+00 
       3.847720348444e-02       2.805287301212e+00 
       4.135335538431e-02       2.614413932860e+00 
       4.429361667738e-02       2.448130790805e+00 
       4.724366439141e-02       2.309242396668e+00 
       5.016480835311e-02       2.196115842820e+00 
       5.303989620246e-02       2.104365865401e+00 
       5.586870669566e-02       2.028463950551e+00 
       5.866042680613e-02       1.963152410008e+00 
       6.142798932958e-02       1.903781745266e+00 
       6.418496440164e-02       1.846478533949e+00 
       6.694418833788e-02       1.788198221734e+00 
       6.971731106057e-02       1.726716851159e+00 
       7.251476155766e-02       1.660655162843e+00 
       7.534587671527e-02       1.589471591179e+00 
       7.821907666265e-02       1.513440276673e+00 
       8.114203772912e-02       1.433566462463e+00 
       8.412184535029e-02       1.351494391728e+00 
       8.716512279304e-02       1.269273412742e+00 
       9.027813695930e-02       1.189192811869e+00 
       9.346688431697e-02       1.113500839385e+00 
       9.673716028276e-02       1.044176330625e+00 
       1.000946150830e-01       9.827075975724e-01 
       1.035447986537e-01       9.299378315901e-01 
       1.070931966762e-01       8.859589764773e-01 
       1.107452594425e-01       8.500698492482e-01 
       1.145064249153e-01       8.208035705605e-01 
       1.183821370918e-01       7.960255303369e-01 
       1.223778605862e-01       7.731452315495e-01 
       1.264990921987e-01       7.494521728783e-01 
       1.307513701367e-01       7.225593934289e-01 
       1.351402814784e-01       6.909090685318e-01 
       1.396714684203e-01       6.541802700170e-01 
       1.443506338194e-01       6.134271324345e-01 
       1.491835465229e-01       5.708683839384e-01 
       1.541760469708e-01       5.293635386159e-01 
       1.593340535561e-01       4.917110739538e-01 
       1.646635702297e-01       4.599205360308e-01 
       1.701706958456e-01       4.347281350063e-01 
       1.758616357459e-01       4.154080653193e-01 
       1.817427160982e-01       3.999367619861e-01 
       1.878204015065e-01       3.856826076950e-01 
       1.941013164283e-01       3.698086249278e-01 
       2.005922709503e-01       3.505460078354e-01 
       2.073002914972e-01       3.280434954028e-01 
       2.142326570816e-01       3.042139151035e-01 
       2.213969417533e-01       2.816124720240e-01 
       2.288010639706e-01       2.622572367922e-01 
       2.364533437147e-01       2.469622314151e-01 
       2.443625682930e-01       2.350134846506e-01 
       2.525380679504e-01       2.244179238948e-01 
       2.609898026346e-01       2.130936332643e-01 
       2.697284615565e-01       2.001013344596e-01 
       2.787655775689e-01       1.860199238095e-01 
       2.881136588829e-01       1.725174880442e-01 
       2.977863412677e-01       1.610663215883e-01 
       3.077985646929e-01       1.517611849412e-01 
       3.181667794071e-01       1.435598710517e-01 
       3.289091877812e-01       1.351815241869e-01 
       3.400460299658e-01       1.261642544074e-01 
       3.515999236474e-01       1.172019430238e-01 
       3.635962711085e-01       1.091770275730e-01 
       3.760637506334e-01       1.023094806506e-01 
       3.890349143879e-01       9.593777994584e-02 
       4.025469216825e-01       8.950772277323e-02 
       4.166424456376e-01       8.311176694010e-02 
       4.313708035863e-01       7.721545236451e-02 
       4.467893782977e-01       7.190059688366e-02 
       4.629654199664e-01       6.686887482723e-02 
       4.799783501994e-01       6.191766162300e-02 
       4.979227319373e-01       5.722227520747e-02 
       5.169121270864e-01       5.290293784357e-02 
       5.370841404489e-01       4.876980411977e-02 
       5.586070464571e-01       4.479087659573e-02 
       5.816885094930e-01       4.105190856335e-02 
       6.065870144995e-01       3.749003743206e-02 
       6.336266468475e-01       3.407631169506e-02 
       6.632156059511e-01       3.083452695303e-02 
       6.958678639263e-01       2.772830553465e-02 
       7.322247985589e-01       2.476713482156e-02 
       7.730680195114e-01       2.193954865481e-02 
       8.193049553677e-01       1.925610776170e-02 
       8.718988016039e-01       1.672930113983e-02 
       9.317218031082e-01       1.438422424215e-02 
       9.993660908989e-01       1.225068858942e-02 
       1.075037110174e+00       1.035260825120e-02 
       1.158653485707e+00       8.699707738663e-03 
       1.250099157308e+00       7.284603592069e-03 
       1.349432401273e+00       6.085461943185e-03 
       1.456947457397e+00       5.075742538572e-03 
       1.573135111331e+00       4.228308367147e-03 
       1.698621895592e+00       3.518541866045e-03 
       1.834127512934e+00       2.924982693573e-03 
       1.980444934528e+00       2.429164142377e-03 
       2.138435191726e+00       2.015520201279e-03 
       2.309029199186e+00       1.670772081352e-03 
       2.493232377687e+00       1.383801552537e-03 
       2.692130395285e+00       1.145128943356e-03 
       2.906895534573e+00       9.468632706062e-04 
       3.138793597714e+00       7.822936649958e-04 
       3.389191366484e+00       6.458232652836e-04 
       3.659564657905e+00       5.327685449885e-04 
       3.951507022538e+00       4.391893126427e-04 
       4.266739136701e+00       3.617906959497e-04 
       4.607118943941e+00       2.978279837907e-04 
       4.974652605557e+00       2.450134129114e-04 
       5.371506324689e+00       2.014375666691e-04 
       5.800019113685e+00       1.655058465246e-04 
       6.262716579983e+00       1.359036743694e-04 
       6.762325811764e+00       1.115300779194e-04 
       7.301791451110e+00       9.147625461094e-05 
       7.884293049406e+00       7.498653860667e-05 
       8.513263807261e+00       6.143589596092e-05 
       9.192410809424e+00       5.030838966309e-05 
       9.925736873929e+00       4.117522161992e-05 
       1.071756414427e+01       3.368310946531e-05 
       1.157255956364e+01       2.754119449087e-05 
       1.249576238137e+01       2.250872775052e-05 
       1.349261385375e+01       1.838744054612e-05 
       1.456898931416e+01       1.501418389484e-05 
       1.573123280165e+01       1.225441720064e-05 
       1.698619445202e+01       9.997632251207e-06 
       1.834127087176e+01       8.153067101240e-06 
       1.980444873285e+01       6.646235432225e-06 
       2.138435184532e+01       5.415726102376e-06 
       2.309029198506e+01       4.411292910003e-06 
       2.493232377636e+01       3.591873439292e-06 
       2.692130395282e+01       2.923550723754e-06 
       2.906895534573e+01       2.378738829708e-06 
       3.138793597714e+01       1.934770525446e-06 
       3.389191366484e+01       1.573118898952e-06 
       3.659564657905e+01       1.278622858894e-06 
       3.951507022538e+01       1.038907785627e-06 
       4.266739136701e+01       8.438642584807e-07 
       4.607118943941e+01       6.852090148392e-07 
       4.974652605557e+01       5.562084777113e-07 
       5.371506324689e+01       4.513398185687e-07 
       5.800019113685e+01       3.661336046687e-07 
       6.262716579983e+01       2.969139966833e-07 
       6.762325811764e+01       2.407065937193e-07 
