# Matter power spectrum P(k) at redshift z=99
# for k=1.04775e-05 to 67.6233 h/Mpc,
# number of wavenumbers equal to 246
#    1:k (h/Mpc)              2:P (Mpc/h)^3        
       1.047750691338e-05       7.261927673119e-03 
       1.131335172818e-05       7.820331745737e-03 
       1.221587619877e-05       8.421675986489e-03 
       1.319039970550e-05       9.069258192194e-03 
       1.424266598317e-05       9.766638404421e-03 
       1.537887697396e-05       1.051764069682e-02 
       1.660572938097e-05       1.132639105520e-02 
       1.793045413791e-05       1.219733231416e-02 
       1.936085902737e-05       1.313524224380e-02 
       2.090537469909e-05       1.414527121893e-02 
       2.257310435923e-05       1.523296272192e-02 
       2.437387742372e-05       1.640429444530e-02 
       2.631830745176e-05       1.766569582177e-02 
       2.841785470091e-05       1.902408601793e-02 
       3.068489367268e-05       2.048692970591e-02 
       3.313278604643e-05       2.206225513594e-02 
       3.577595943165e-05       2.375870704909e-02 
       3.862999240274e-05       2.558560727479e-02 
       4.171170631739e-05       2.755297763344e-02 
       4.503926445983e-05       2.967161927314e-02 
       4.863227909323e-05       3.195316450832e-02 
       5.251192705226e-05       3.441013519284e-02 
       5.670107455699e-05       3.705601722523e-02 
       6.122441198393e-05       3.990533413563e-02 
       6.610859938837e-05       4.297372168203e-02 
       7.138242363583e-05       4.627802141688e-02 
       7.707696806873e-05       4.983636194159e-02 
       8.322579570814e-05       5.366826847231e-02 
       8.986514707061e-05       5.779476394568e-02 
       9.703415376577e-05       6.223848243885e-02 
       1.047750691338e-04       6.702379865640e-02 
       1.131335172818e-04       7.217695153381e-02 
       1.221587619877e-04       7.772619073572e-02 
       1.319039970550e-04       8.370193432376e-02 
       1.424266598317e-04       9.013692507547e-02 
       1.537887697396e-04       9.706641242570e-02 
       1.660572938097e-04       1.045283354271e-01 
       1.793045413791e-04       1.125635349068e-01 
       1.936085902737e-04       1.212159614968e-01 
       2.090537469909e-04       1.305329132714e-01 
       2.257310435923e-04       1.405652846215e-01 
       2.437387742372e-04       1.513678302540e-01 
       2.631830745176e-04       1.629994504870e-01 
       2.841785470091e-04       1.755234921224e-01 
       3.068489367268e-04       1.890080670413e-01 
       3.313278604643e-04       2.035264002435e-01 
       3.577595943165e-04       2.191571803681e-01 
       3.862999240274e-04       2.359849437591e-01 
       4.171170631739e-04       2.541004741539e-01 
       4.503926445983e-04       2.736012080278e-01 
       4.863227909323e-04       2.945916790965e-01 
       5.251192705226e-04       3.171839525183e-01 
       5.670107455699e-04       3.414980764002e-01 
       6.122441198393e-04       3.676625413100e-01 
       6.610859938837e-04       3.958147252304e-01 
       7.138242363583e-04       4.261013284906e-01 
       7.707696806873e-04       4.586787792351e-01 
       8.322579570814e-04       4.937136001356e-01 
       8.986514707061e-04       5.313826801402e-01 
       9.703415376577e-04       5.718734972158e-01 
       1.047750691338e-03       6.153841629505e-01 
       1.131335172818e-03       6.621233239465e-01 
       1.221587619877e-03       7.123098220436e-01 
       1.319039970550e-03       7.661720584547e-01 
       1.424266598317e-03       8.239546297730e-01 
       1.537887697396e-03       8.859011173467e-01 
       1.660572938097e-03       9.522588006418e-01 
       1.793045413791e-03       1.023280099819e+00 
       1.936085902737e-03       1.099216304579e+00 
       2.090537469909e-03       1.180312990453e+00 
       2.257310435923e-03       1.266804115853e+00 
       2.437387742372e-03       1.358904853406e+00 
       2.631830745176e-03       1.456802683156e+00 
       2.841785470091e-03       1.560646890522e+00 
       3.068489367268e-03       1.670536062499e+00 
       3.313278604643e-03       1.786503852161e+00 
       3.577595943165e-03       1.908502930788e+00 
       3.862999240274e-03       2.036387730709e+00 
       4.171170631739e-03       2.169896178454e+00 
       4.503926445983e-03       2.308631878994e+00 
       4.863227909323e-03       2.452047290962e+00 
       5.251192705226e-03       2.599430628088e+00 
       5.670107455699e-03       2.749896931777e+00 
       6.122441198393e-03       2.902386513385e+00 
       6.610859938837e-03       3.055668697668e+00 
       7.138242363583e-03       3.208356461543e+00 
       7.707696806873e-03       3.358923892691e+00 
       8.322579570814e-03       3.505725595180e+00 
       8.986514707061e-03       3.647008938907e+00 
       9.703415376577e-03       3.780923304265e+00 
       1.047750691338e-02       3.905491130867e+00 
       1.131335172818e-02       4.018587641362e+00 
       1.221587619877e-02       4.117901586365e+00 
       1.319039970550e-02       4.200915319035e+00 
       1.424266598317e-02       4.264942377279e+00 
       1.537887697392e-02       4.307217958234e+00 
       1.660572938023e-02       4.325065481603e+00 
       1.793045412706e-02       4.316056609719e+00 
       1.936085890181e-02       4.278227019228e+00 
       2.090537352463e-02       4.210201051993e+00 
       2.257309535333e-02       4.111420708105e+00 
       2.437382002918e-02       3.982412469510e+00 
       2.631799944462e-02       3.825165140726e+00 
       2.841644545389e-02       3.643278810121e+00 
       3.067933355377e-02       3.442199309321e+00 
       3.311368470740e-02       3.229236571731e+00 
       3.571840443502e-02       3.013514813127e+00 
       3.847720348444e-02       2.805280300155e+00 
       4.135335538431e-02       2.614406682725e+00 
       4.429361667738e-02       2.448135649278e+00 
       4.724366439141e-02       2.309233221002e+00 
       5.016480835311e-02       2.196111820329e+00 
       5.303989620246e-02       2.104365265617e+00 
       5.586870669566e-02       2.028465300307e+00 
       5.866042680613e-02       1.963153383892e+00 
       6.142798932958e-02       1.903781078563e+00 
       6.418496440164e-02       1.846479493838e+00 
       6.694418833788e-02       1.788196567633e+00 
       6.971731106057e-02       1.726716236531e+00 
       7.251476155766e-02       1.660653444693e+00 
       7.534587671527e-02       1.589467287123e+00 
       7.821907666265e-02       1.513436993255e+00 
       8.114203772912e-02       1.433567990673e+00 
       8.412184535029e-02       1.351488763683e+00 
       8.716512279304e-02       1.269272875584e+00 
       9.027813695930e-02       1.189194344741e+00 
       9.346688431697e-02       1.113498694024e+00 
       9.673716028276e-02       1.044176596923e+00 
       1.000946150830e-01       9.827062212616e-01 
       1.035447986537e-01       9.299387035275e-01 
       1.070931966762e-01       8.859593891674e-01 
       1.107452594425e-01       8.500714283542e-01 
       1.145064249153e-01       8.208026359170e-01 
       1.183821370918e-01       7.960256141490e-01 
       1.223778605862e-01       7.731463339189e-01 
       1.264990921987e-01       7.494528854638e-01 
       1.307513701367e-01       7.225573911819e-01 
       1.351402814784e-01       6.909082022695e-01 
       1.396714684203e-01       6.541822787066e-01 
       1.443506338194e-01       6.134263572513e-01 
       1.491835465229e-01       5.708685158248e-01 
       1.541760469708e-01       5.293628110295e-01 
       1.593340535561e-01       4.917105612084e-01 
       1.646635702297e-01       4.599199340814e-01 
       1.701706958456e-01       4.347292084658e-01 
       1.758616357459e-01       4.154078551368e-01 
       1.817427160982e-01       3.999370328853e-01 
       1.878204015065e-01       3.856829518333e-01 
       1.941013164283e-01       3.698091639185e-01 
       2.005922709503e-01       3.505473555727e-01 
       2.073002914972e-01       3.280432441078e-01 
       2.142326570816e-01       3.042142852893e-01 
       2.213969417533e-01       2.816119939863e-01 
       2.288010639706e-01       2.622574427881e-01 
       2.364533437147e-01       2.469619299330e-01 
       2.443625682930e-01       2.350126717695e-01 
       2.525380679504e-01       2.244177693654e-01 
       2.609898026346e-01       2.130939455700e-01 
       2.697284615565e-01       2.001026058281e-01 
       2.787655775689e-01       1.860199522839e-01 
       2.881136588829e-01       1.725169899220e-01 
       2.977863412677e-01       1.610660856634e-01 
       3.077985646929e-01       1.517611496593e-01 
       3.181667794071e-01       1.435594196480e-01 
       3.289091877812e-01       1.351816004056e-01 
       3.400460299658e-01       1.261641757838e-01 
       3.515999236474e-01       1.172018214932e-01 
       3.635962711085e-01       1.091769521098e-01 
       3.760637506334e-01       1.023096383380e-01 
       3.890349143879e-01       9.593772183229e-02 
       4.025469216825e-01       8.950759308201e-02 
       4.166424456376e-01       8.311174779859e-02 
       4.313708035863e-01       7.721569026183e-02 
       4.467893782977e-01       7.190092067901e-02 
       4.629654199664e-01       6.686902231705e-02 
       4.799783501994e-01       6.191762512806e-02 
       4.979227319373e-01       5.722226744932e-02 
       5.169121270864e-01       5.290289638911e-02 
       5.370841404489e-01       4.876983241583e-02 
       5.586070464571e-01       4.479081445330e-02 
       5.816885094930e-01       4.105194104102e-02 
       6.065870144995e-01       3.748991193015e-02 
       6.336266468475e-01       3.407635063459e-02 
       6.632156059511e-01       3.083451064556e-02 
       6.958678639263e-01       2.772826607043e-02 
       7.322247985589e-01       2.476707715283e-02 
       7.730680195114e-01       2.193959821597e-02 
       8.193049553677e-01       1.925608536551e-02 
       8.718988016039e-01       1.672924307332e-02 
       9.317218031082e-01       1.438419709405e-02 
       9.993660908989e-01       1.225065507595e-02 
       1.075037110174e+00       1.035259015353e-02 
       1.158653485707e+00       8.699714452544e-03 
       1.250099157308e+00       7.284539265341e-03 
       1.349432401273e+00       6.085404675010e-03 
       1.456947457397e+00       5.075663749187e-03 
       1.573135111331e+00       4.228236233853e-03 
       1.698621895592e+00       3.518461692108e-03 
       1.834127512934e+00       2.924902332267e-03 
       1.980444934528e+00       2.429060865477e-03 
       2.138435191726e+00       2.015406717724e-03 
       2.309029199186e+00       1.670656539400e-03 
       2.493232377687e+00       1.383662541282e-03 
       2.692130395285e+00       1.144979957876e-03 
       2.906895534573e+00       9.467022585807e-04 
       3.138793597714e+00       7.821089045304e-04 
       3.389191366484e+00       6.456304874010e-04 
       3.659564657905e+00       5.325581756676e-04 
       3.951507022538e+00       4.389518197858e-04 
       4.266739136701e+00       3.615366614156e-04 
       4.607118943941e+00       2.975494871683e-04 
       4.974652605557e+00       2.447105680708e-04 
       5.371506324689e+00       2.011039285583e-04 
       5.800019113685e+00       1.651442130383e-04 
       6.262716579983e+00       1.355105809984e-04 
       6.762325811764e+00       1.111018145784e-04 
       7.301791451110e+00       9.101081766673e-05 
       7.884293049406e+00       7.448198826377e-05 
       8.513263807261e+00       6.089057491046e-05 
       9.192410809424e+00       4.971819714286e-05 
       9.925736873929e+00       4.053856776072e-05 
       1.071756414427e+01       3.299782642852e-05 
       1.157255956364e+01       2.680508682435e-05 
       1.249576238137e+01       2.172002837269e-05 
       1.349261385375e+01       1.754457929518e-05 
       1.456898931416e+01       1.411637316694e-05 
       1.573123280165e+01       1.130192206598e-05 
       1.698619445202e+01       8.991714434783e-06 
       1.834127087176e+01       7.095996611351e-06 
       1.980444873285e+01       5.542077796081e-06 
       2.138435184532e+01       4.270537264896e-06 
       2.309029198506e+01       3.233466578656e-06 
       2.493232377636e+01       2.392353385806e-06 
       2.692130395282e+01       1.716290107109e-06 
       2.906895534573e+01       1.180685229030e-06 
       3.138793597714e+01       7.657677556373e-07 
       3.389191366484e+01       4.554792732233e-07 
       3.659564657905e+01       2.361678163912e-07 
       3.951507022538e+01       9.543285382867e-08 
       4.266739136701e+01       2.104894565740e-08 
       4.607118943941e+01       1.221587857864e-11 
       4.974652605557e+01       1.797393503582e-08 
       5.371506324689e+01       5.922876922735e-08 
       5.800019113685e+01       1.074733678513e-07 
       6.262716579983e+01       1.474803718471e-07 
       6.762325811764e+01       1.674663056813e-07 
