# Matter power spectrum P(k) at redshift z=0
# for k=1.04775e-05 to 67.6233 h/Mpc,
# number of wavenumbers equal to 246
#    1:k (h/Mpc)              2:P (Mpc/h)^3        
       1.047750691338e-05       5.020964806754e+01 
       1.131335172818e-05       5.407048206553e+01 
       1.221587619877e-05       5.822819063995e+01 
       1.319039970550e-05       6.270562589681e+01 
       1.424266598317e-05       6.752731788102e+01 
       1.537887697396e-05       7.271977200257e+01 
       1.660572938097e-05       7.831147241542e+01 
       1.793045413791e-05       8.433311815128e+01 
       1.936085902737e-05       9.081778242446e+01 
       2.090537469909e-05       9.780108061340e+01 
       2.257310435923e-05       1.053213197032e+02 
       2.437387742372e-05       1.134197377001e+02 
       2.631830745176e-05       1.221408202816e+02 
       2.841785470091e-05       1.315324720916e+02 
       3.068489367268e-05       1.416462093730e+02 
       3.313278604643e-05       1.525374500691e+02 
       3.577595943165e-05       1.642660687078e+02 
       3.862999240274e-05       1.768963504868e+02 
       4.171170631739e-05       1.904975992460e+02 
       4.503926445983e-05       2.051444490305e+02 
       4.863227909323e-05       2.209171463752e+02 
       5.251192705226e-05       2.379022222314e+02 
       5.670107455699e-05       2.561927925581e+02 
       6.122441198393e-05       2.758890441791e+02 
       6.610859938837e-05       2.970989225466e+02 
       7.138242363583e-05       3.199385558200e+02 
       7.707696806873e-05       3.445329780878e+02 
       8.322579570814e-05       3.710167315928e+02 
       8.986514707061e-05       3.995346440954e+02 
       9.703415376577e-05       4.302425403884e+02 
       1.047750691338e-04       4.633080762974e+02 
       1.131335172818e-04       4.989116267507e+02 
       1.221587619877e-04       5.372471946561e+02 
       1.319039970550e-04       5.785234124630e+02 
       1.424266598317e-04       6.229645929806e+02 
       1.537887697396e-04       6.708118484951e+02 
       1.660572938097e-04       7.223242660220e+02 
       1.793045413791e-04       7.777801557709e+02 
       1.936085902737e-04       8.374783607333e+02 
       2.090537469909e-04       9.017396264495e+02 
       2.257310435923e-04       9.709080260152e+02 
       2.437387742372e-04       1.045352448644e+03 
       2.631830745176e-04       1.125468122836e+03 
       2.841785470091e-04       1.211678179511e+03 
       3.068489367268e-04       1.304435249091e+03 
       3.313278604643e-04       1.404223052541e+03 
       3.577595943165e-04       1.511558013390e+03 
       3.862999240274e-04       1.626990836478e+03 
       4.171170631739e-04       1.751108027370e+03 
       4.503926445983e-04       1.884533381345e+03 
       4.863227909323e-04       2.027929376470e+03 
       5.251192705226e-04       2.181998446367e+03 
       5.670107455699e-04       2.347484100857e+03 
       6.122441198393e-04       2.525171869335e+03 
       6.610859938837e-04       2.715889981401e+03 
       7.138242363583e-04       2.920509686079e+03 
       7.707696806873e-04       3.139945097711e+03 
       8.322579570814e-04       3.375152334395e+03 
       8.986514707061e-04       3.627127828231e+03 
       9.703415376577e-04       3.896905450016e+03 
       1.047750691338e-03       4.185552170959e+03 
       1.131335172818e-03       4.494162426791e+03 
       1.221587619877e-03       4.823850702670e+03 
       1.319039970550e-03       5.175742734643e+03 
       1.424266598317e-03       5.551019592519e+03 
       1.537887697396e-03       5.950788335874e+03 
       1.660572938097e-03       6.376123046807e+03 
       1.793045413791e-03       6.828073896129e+03 
       1.936085902737e-03       7.307625375386e+03 
       2.090537469909e-03       7.815671859739e+03 
       2.257310435923e-03       8.352990369405e+03 
       2.437387742372e-03       8.920211057553e+03 
       2.631830745176e-03       9.517783061890e+03 
       2.841785470091e-03       1.014593703671e+04 
       3.068489367268e-03       1.080464505736e+04 
       3.313278604643e-03       1.149357459460e+04 
       3.577595943165e-03       1.221203620826e+04 
       3.862999240274e-03       1.295892538505e+04 
       4.171170631739e-03       1.373266001091e+04 
       4.503926445983e-03       1.453111834595e+04 
       4.863227909323e-03       1.535154984219e+04 
       5.251192705226e-03       1.619063613390e+04 
       5.670107455699e-03       1.704431256599e+04 
       6.122441198393e-03       1.790755938486e+04 
       6.610859938837e-03       1.877460421958e+04 
       7.138242363583e-03       1.963872429182e+04 
       7.707696806873e-03       2.049215712446e+04 
       8.322579570814e-03       2.132606949285e+04 
       8.986514707061e-03       2.213055230264e+04 
       9.703415376577e-03       2.289445471147e+04 
       1.047750691338e-02       2.360548776162e+04 
       1.131335172818e-02       2.425022856019e+04 
       1.221587619877e-02       2.481423922400e+04 
       1.319039970550e-02       2.528218876796e+04 
       1.424266598317e-02       2.563814323704e+04 
       1.537887697392e-02       2.586606654692e+04 
       1.660572938023e-02       2.595026976612e+04 
       1.793045412706e-02       2.587635494804e+04 
       1.936085890181e-02       2.563219283363e+04 
       2.090537352463e-02       2.520930977383e+04 
       2.257309535333e-02       2.460446808760e+04 
       2.437382002918e-02       2.382088558262e+04 
       2.631799944462e-02       2.287042921987e+04 
       2.841644545389e-02       2.177450119491e+04 
       3.067933355377e-02       2.056556868702e+04 
       3.311368470740e-02       1.928726707890e+04 
       3.571840443502e-02       1.799400695903e+04 
       3.847720348444e-02       1.674684999047e+04 
       4.135335538431e-02       1.560464197167e+04 
       4.429361667738e-02       1.461037441452e+04 
       4.724366439141e-02       1.378050924097e+04 
       5.016480835311e-02       1.310505603349e+04 
       5.303989620246e-02       1.255714819409e+04 
       5.586870669566e-02       1.210427246183e+04 
       5.866042680613e-02       1.171465626337e+04 
       6.142798932958e-02       1.136046613100e+04 
       6.418496440164e-02       1.101853045526e+04 
       6.694418833788e-02       1.067069696648e+04 
       6.971731106057e-02       1.030359170513e+04 
       7.251476155766e-02       9.909009478606e+03 
       7.534587671527e-02       9.483770043466e+03 
       7.821907666265e-02       9.029547497857e+03 
       8.114203772912e-02       8.552304040715e+03 
       8.412184535029e-02       8.061904261479e+03 
       8.716512279304e-02       7.570774690693e+03 
       9.027813695930e-02       7.092469047514e+03 
       9.346688431697e-02       6.640510174642e+03 
       9.673716028276e-02       6.226664736065e+03 
       1.000946150830e-01       5.859897614130e+03 
       1.035447986537e-01       5.545245332241e+03 
       1.070931966762e-01       5.283164784789e+03 
       1.107452594425e-01       5.069418671510e+03 
       1.145064249153e-01       4.895240676436e+03 
       1.183821370918e-01       4.747829980334e+03 
       1.223778605862e-01       4.611755414577e+03 
       1.264990921987e-01       4.470611463392e+03 
       1.307513701367e-01       4.310267932477e+03 
       1.351402814784e-01       4.121365113286e+03 
       1.396714684203e-01       3.902071724282e+03 
       1.443506338194e-01       3.658651167079e+03 
       1.491835465229e-01       3.404462786386e+03 
       1.541760469708e-01       3.156668903041e+03 
       1.593340535561e-01       2.931984694221e+03 
       1.646635702297e-01       2.742380563014e+03 
       1.701706958456e-01       2.592263262916e+03 
       1.758616357459e-01       2.477238684002e+03 
       1.817427160982e-01       2.385185298666e+03 
       1.878204015065e-01       2.300359944983e+03 
       1.941013164283e-01       2.205757467719e+03 
       2.005922709503e-01       2.090813968049e+03 
       2.073002914972e-01       1.956471012942e+03 
       2.142326570816e-01       1.814194292928e+03 
       2.213969417533e-01       1.679281216834e+03 
       2.288010639706e-01       1.563843052528e+03 
       2.364533437147e-01       1.472680323970e+03 
       2.443625682930e-01       1.401509108606e+03 
       2.525380679504e-01       1.338411601431e+03 
       2.609898026346e-01       1.270900472524e+03 
       2.697284615565e-01       1.193379700088e+03 
       2.787655775689e-01       1.109339631785e+03 
       2.881136588829e-01       1.028768949610e+03 
       2.977863412677e-01       9.604813290339e+02 
       3.077985646929e-01       9.050208226357e+02 
       3.181667794071e-01       8.561423063584e+02 
       3.289091877812e-01       8.061880479919e+02 
       3.400460299658e-01       7.523891453243e+02 
       3.515999236474e-01       6.989221820342e+02 
       3.635962711085e-01       6.510608291420e+02 
       3.760637506334e-01       6.101200902258e+02 
       3.890349143879e-01       5.721312996717e+02 
       4.025469216825e-01       5.337818215578e+02 
       4.166424456376e-01       4.956317703611e+02 
       4.313708035863e-01       4.604682428295e+02 
       4.467893782977e-01       4.287756222212e+02 
       4.629654199664e-01       3.987731708172e+02 
       4.799783501994e-01       3.692425227226e+02 
       4.979227319373e-01       3.412401676414e+02 
       5.169121270864e-01       3.154828931897e+02 
       5.370841404489e-01       2.908357059991e+02 
       5.586070464571e-01       2.671055507209e+02 
       5.816885094930e-01       2.448099497745e+02 
       6.065870144995e-01       2.235670720214e+02 
       6.336266468475e-01       2.032104252564e+02 
       6.632156059511e-01       1.838788000625e+02 
       6.958678639263e-01       1.653541774926e+02 
       7.322247985589e-01       1.476953367115e+02 
       7.730680195114e-01       1.308334248075e+02 
       8.193049553677e-01       1.148310193330e+02 
       8.718988016039e-01       9.976222642399e+01 
       9.317218031082e-01       8.577735457779e+01 
       9.993660908989e-01       7.305427892472e+01 
       1.075037110174e+00       6.173527454876e+01 
       1.158653485707e+00       5.187848133938e+01 
       1.250099157308e+00       4.343939477923e+01 
       1.349432401273e+00       3.628857930737e+01 
       1.456947457397e+00       3.026700539699e+01 
       1.573135111331e+00       2.521326943541e+01 
       1.698621895592e+00       2.098064999498e+01 
       1.834127512934e+00       1.744085996935e+01 
       1.980444934528e+00       1.448396375962e+01 
       2.138435191726e+00       1.201706854525e+01 
       2.309029199186e+00       9.961090229196e+00 
       2.493232377687e+00       8.249563737804e+00 
       2.692130395285e+00       6.826114121982e+00 
       2.906895534573e+00       5.643466822905e+00 
       3.138793597714e+00       4.661812175062e+00 
       3.389191366484e+00       3.847737381322e+00 
       3.659564657905e+00       3.173241068656e+00 
       3.951507022538e+00       2.614825388968e+00 
       4.266739136701e+00       2.152918229931e+00 
       4.607118943941e+00       1.771114289803e+00 
       4.974652605557e+00       1.455736459426e+00 
       5.371506324689e+00       1.195410806992e+00 
       5.800019113685e+00       9.806717069811e-01 
       6.262716579983e+00       8.036244378488e-01 
       6.762325811764e+00       6.577191437763e-01 
       7.301791451110e+00       5.375432513635e-01 
       7.884293049406e+00       4.385986580214e-01 
       8.513263807261e+00       3.571451229408e-01 
       9.192410809424e+00       2.901176180935e-01 
       9.925736873929e+00       2.349647488553e-01 
       1.071756414427e+01       1.895857942378e-01 
       1.157255956364e+01       1.522536987781e-01 
       1.249576238137e+01       1.215473524239e-01 
       1.349261385375e+01       9.629800059072e-02 
       1.456898931416e+01       7.555494056509e-02 
       1.573123280165e+01       5.853938219140e-02 
       1.698619445202e+01       4.462056052890e-02 
       1.834127087176e+01       3.329165636451e-02 
       1.980444873285e+01       2.414348771686e-02 
       2.138435184532e+01       1.684961800389e-02 
       2.309029198506e+01       1.114912341015e-02 
       2.493232377636e+01       6.830226600851e-03 
       2.692130395282e+01       3.715053002389e-03 
       2.906895534573e+01       1.645059335327e-03 
       3.138793597714e+01       4.665828643570e-04 
       3.389191366484e+01       1.838940802516e-05 
       3.659564657905e+01       1.228589941791e-04 
       3.951507022538e+01       5.836546734755e-04 
       4.266739136701e+01       1.192703424505e-03 
       4.607118943941e+01       1.748506448326e-03 
       4.974652605557e+01       2.084702833088e-03 
       5.371506324689e+01       2.103102796979e-03 
       5.800019113685e+01       1.800428837813e-03 
       6.262716579983e+01       1.273804507940e-03 
       6.762325811764e+01       6.926342754963e-04 
