# Matter power spectrum P(k) at redshift z=0
# for k=1.04775e-05 to 67.6233 h/Mpc,
# number of wavenumbers equal to 246
#    1:k (h/Mpc)              2:P (Mpc/h)^3        
       1.047750691338e-05       5.020964806755e+01 
       1.131335172818e-05       5.407048206554e+01 
       1.221587619877e-05       5.822819063745e+01 
       1.319039970550e-05       6.270562589675e+01 
       1.424266598317e-05       6.752731788102e+01 
       1.537887697396e-05       7.271977200258e+01 
       1.660572938097e-05       7.831147241542e+01 
       1.793045413791e-05       8.433311815128e+01 
       1.936085902737e-05       9.081778242446e+01 
       2.090537469909e-05       9.780108061338e+01 
       2.257310435923e-05       1.053213197032e+02 
       2.437387742372e-05       1.134197377001e+02 
       2.631830745176e-05       1.221408202816e+02 
       2.841785470091e-05       1.315324720916e+02 
       3.068489367268e-05       1.416462093730e+02 
       3.313278604643e-05       1.525374500691e+02 
       3.577595943165e-05       1.642660687078e+02 
       3.862999240274e-05       1.768963504868e+02 
       4.171170631739e-05       1.904975992460e+02 
       4.503926445983e-05       2.051444490305e+02 
       4.863227909323e-05       2.209171463752e+02 
       5.251192705226e-05       2.379022222314e+02 
       5.670107455699e-05       2.561927925422e+02 
       6.122441198393e-05       2.758890441791e+02 
       6.610859938837e-05       2.970989225465e+02 
       7.138242363583e-05       3.199385558200e+02 
       7.707696806873e-05       3.445329780878e+02 
       8.322579570814e-05       3.710167315928e+02 
       8.986514707061e-05       3.995346440954e+02 
       9.703415376577e-05       4.302425403884e+02 
       1.047750691338e-04       4.633080762974e+02 
       1.131335172818e-04       4.989116267507e+02 
       1.221587619877e-04       5.372471946561e+02 
       1.319039970550e-04       5.785234124640e+02 
       1.424266598317e-04       6.229645930980e+02 
       1.537887697396e-04       6.708118484951e+02 
       1.660572938097e-04       7.223242660220e+02 
       1.793045413791e-04       7.777801553711e+02 
       1.936085902737e-04       8.374783607333e+02 
       2.090537469909e-04       9.017396264495e+02 
       2.257310435923e-04       9.709080260152e+02 
       2.437387742372e-04       1.045352448644e+03 
       2.631830745176e-04       1.125468122836e+03 
       2.841785470091e-04       1.211678179511e+03 
       3.068489367268e-04       1.304435249091e+03 
       3.313278604643e-04       1.404223052541e+03 
       3.577595943165e-04       1.511558013390e+03 
       3.862999240274e-04       1.626990836504e+03 
       4.171170631739e-04       1.751108027370e+03 
       4.503926445983e-04       1.884533381345e+03 
       4.863227909323e-04       2.027929376470e+03 
       5.251192705226e-04       2.181998446367e+03 
       5.670107455699e-04       2.347484100857e+03 
       6.122441198393e-04       2.525171869336e+03 
       6.610859938837e-04       2.715889981401e+03 
       7.138242363583e-04       2.920509686087e+03 
       7.707696806873e-04       3.139945097711e+03 
       8.322579570814e-04       3.375152334396e+03 
       8.986514707061e-04       3.627127828231e+03 
       9.703415376577e-04       3.896905450016e+03 
       1.047750691338e-03       4.185552170959e+03 
       1.131335172818e-03       4.494162426791e+03 
       1.221587619877e-03       4.823850702667e+03 
       1.319039970550e-03       5.175742742011e+03 
       1.424266598317e-03       5.551019592527e+03 
       1.537887697396e-03       5.950788335886e+03 
       1.660572938097e-03       6.376123046805e+03 
       1.793045413791e-03       6.828073896123e+03 
       1.936085902737e-03       7.307625375387e+03 
       2.090537469909e-03       7.815671856170e+03 
       2.257310435923e-03       8.352990369403e+03 
       2.437387742372e-03       8.920211057519e+03 
       2.631830745176e-03       9.517783061890e+03 
       2.841785470091e-03       1.014593703671e+04 
       3.068489367268e-03       1.080464505730e+04 
       3.313278604643e-03       1.149357459482e+04 
       3.577595943165e-03       1.221203620826e+04 
       3.862999240274e-03       1.295892538505e+04 
       4.171170631739e-03       1.373266002118e+04 
       4.503926445983e-03       1.453111834595e+04 
       4.863227909323e-03       1.535154984227e+04 
       5.251192705226e-03       1.619063613433e+04 
       5.670107455699e-03       1.704431256563e+04 
       6.122441198393e-03       1.790755938458e+04 
       6.610859938837e-03       1.877460418085e+04 
       7.138242363583e-03       1.963872429100e+04 
       7.707696806873e-03       2.049215713117e+04 
       8.322579570814e-03       2.132607230530e+04 
       8.986514707061e-03       2.213054864889e+04 
       9.703415376577e-03       2.289445470809e+04 
       1.047750691338e-02       2.360548488691e+04 
       1.131335172818e-02       2.425022856759e+04 
       1.221587619877e-02       2.481423922438e+04 
       1.319039970550e-02       2.528218936975e+04 
       1.424266598317e-02       2.563814392198e+04 
       1.537887697392e-02       2.586607031586e+04 
       1.660572938023e-02       2.595029122747e+04 
       1.793045412706e-02       2.587633972000e+04 
       1.936085890181e-02       2.563218779458e+04 
       2.090537352463e-02       2.520934682533e+04 
       2.257309535333e-02       2.460445724767e+04 
       2.437382002918e-02       2.382092468265e+04 
       2.631799944462e-02       2.287044705546e+04 
       2.841644545389e-02       2.177450148632e+04 
       3.067933355377e-02       2.056553826716e+04 
       3.311368470740e-02       1.928719293585e+04 
       3.571840443502e-02       1.799400919438e+04 
       3.847720348444e-02       1.674678915893e+04 
       4.135335538431e-02       1.560464332789e+04 
       4.429361667738e-02       1.461037027011e+04 
       4.724366439141e-02       1.378055142004e+04 
       5.016480835311e-02       1.310507887748e+04 
       5.303989620246e-02       1.255717082717e+04 
       5.586870669566e-02       1.210425963959e+04 
       5.866042680613e-02       1.171466022181e+04 
       6.142798932958e-02       1.136047619006e+04 
       6.418496440164e-02       1.101858878864e+04 
       6.694418833788e-02       1.067072759603e+04 
       6.971731106057e-02       1.030357994387e+04 
       7.251476155766e-02       9.909009932684e+03 
       7.534587671527e-02       9.483764301764e+03 
       7.821907666265e-02       9.029504988213e+03 
       8.114203772912e-02       8.552336208207e+03 
       8.412184535029e-02       8.061934588586e+03 
       8.716512279304e-02       7.570773666755e+03 
       9.027813695930e-02       7.092496860046e+03 
       9.346688431697e-02       6.640504204356e+03 
       9.673716028276e-02       6.226702245500e+03 
       1.000946150830e-01       5.859933700652e+03 
       1.035447986537e-01       5.545263076260e+03 
       1.070931966762e-01       5.283123593378e+03 
       1.107452594425e-01       5.069426270671e+03 
       1.145064249153e-01       4.895239213070e+03 
       1.183821370918e-01       4.747854314171e+03 
       1.223778605862e-01       4.611737523162e+03 
       1.264990921987e-01       4.470620797251e+03 
       1.307513701367e-01       4.310279620887e+03 
       1.351402814784e-01       4.121388109258e+03 
       1.396714684203e-01       3.902067563347e+03 
       1.443506338194e-01       3.658644265739e+03 
       1.491835465229e-01       3.404488812270e+03 
       1.541760469708e-01       3.156665924217e+03 
       1.593340535561e-01       2.931974409016e+03 
       1.646635702297e-01       2.742375847261e+03 
       1.701706958456e-01       2.592255451649e+03 
       1.758616357459e-01       2.477238599344e+03 
       1.817427160982e-01       2.385183978364e+03 
       1.878204015065e-01       2.300360601880e+03 
       1.941013164283e-01       2.205758233410e+03 
       2.005922709503e-01       2.090815544759e+03 
       2.073002914972e-01       1.956465624092e+03 
       2.142326570816e-01       1.814196058142e+03 
       2.213969417533e-01       1.679296099555e+03 
       2.288010639706e-01       1.563851930855e+03 
       2.364533437147e-01       1.472686576796e+03 
       2.443625682930e-01       1.401511998271e+03 
       2.525380679504e-01       1.338412651346e+03 
       2.609898026346e-01       1.270905411041e+03 
       2.697284615565e-01       1.193384796362e+03 
       2.787655775689e-01       1.109341421156e+03 
       2.881136588829e-01       1.028770990235e+03 
       2.977863412677e-01       9.604802848204e+02 
       3.077985646929e-01       9.050251456013e+02 
       3.181667794071e-01       8.561459035364e+02 
       3.289091877812e-01       8.061899234464e+02 
       3.400460299658e-01       7.523905892902e+02 
       3.515999236474e-01       6.989234348046e+02 
       3.635962711085e-01       6.510615253753e+02 
       3.760637506334e-01       6.101244067676e+02 
       3.890349143879e-01       5.721305088092e+02 
       4.025469216825e-01       5.337808894755e+02 
       4.166424456376e-01       4.956331960827e+02 
       4.313708035863e-01       4.604691392244e+02 
       4.467893782977e-01       4.287786482324e+02 
       4.629654199664e-01       3.987732071984e+02 
       4.799783501994e-01       3.692415899421e+02 
       4.979227319373e-01       3.412400811806e+02 
       5.169121270864e-01       3.154839464822e+02 
       5.370841404489e-01       2.908367985546e+02 
       5.586070464571e-01       2.671071901082e+02 
       5.816885094930e-01       2.448095606739e+02 
       6.065870144995e-01       2.235681179579e+02 
       6.336266468475e-01       2.032103609117e+02 
       6.632156059511e-01       1.838790612533e+02 
       6.958678639263e-01       1.653549896761e+02 
       7.322247985589e-01       1.476963254939e+02 
       7.730680195114e-01       1.308336739298e+02 
       8.193049553677e-01       1.148314192811e+02 
       8.718988016039e-01       9.976232778051e+01 
       9.317218031082e-01       8.577794327785e+01 
       9.993660908989e-01       7.305505440669e+01 
       1.075037110174e+00       6.173599823205e+01 
       1.158653485707e+00       5.187943418882e+01 
       1.250099157308e+00       4.344009630755e+01 
       1.349432401273e+00       3.628930451210e+01 
       1.456947457397e+00       3.026798540726e+01 
       1.573135111331e+00       2.521467394368e+01 
       1.698621895592e+00       2.098196019284e+01 
       1.834127512934e+00       1.744241878974e+01 
       1.980444934528e+00       1.448568000611e+01 
       2.138435191726e+00       1.201896438075e+01 
       2.309029199186e+00       9.963189479018e+00 
       2.493232377687e+00       8.251828450062e+00 
       2.692130395285e+00       6.828561855407e+00 
       2.906895534573e+00       5.646253385574e+00 
       3.138793597714e+00       4.664876012842e+00 
       3.389191366484e+00       3.851122435325e+00 
       3.659564657905e+00       3.176937612908e+00 
       3.951507022538e+00       2.618815494546e+00 
       4.266739136701e+00       2.157345965901e+00 
       4.607118943941e+00       1.775947288878e+00 
       4.974652605557e+00       1.460981583954e+00 
       5.371506324689e+00       1.201133355711e+00 
       5.800019113685e+00       9.868764688599e-01 
       6.262716579983e+00       8.103487037237e-01 
       6.762325811764e+00       6.650075491819e-01 
       7.301791451110e+00       5.454253439702e-01 
       7.884293049406e+00       4.470991684616e-01 
       8.513263807261e+00       3.662961010589e-01 
       9.192410809424e+00       2.999408219938e-01 
       9.925736873929e+00       2.454804971758e-01 
       1.071756414427e+01       2.008068364975e-01 
       1.157255956364e+01       1.641833014553e-01 
       1.249576238137e+01       1.341769931702e-01 
       1.349261385375e+01       1.096019856290e-01 
       1.456898931416e+01       8.948826173621e-02 
       1.573123280165e+01       7.303312383841e-02 
       1.698619445202e+01       5.957762276988e-02 
       1.834127087176e+01       4.857948167517e-02 
       1.980444873285e+01       3.959578714279e-02 
       2.138435184532e+01       3.225980891460e-02 
       2.309029198506e+01       2.627218770002e-02 
       2.493232377636e+01       2.138670003563e-02 
       2.692130395282e+01       1.740296929043e-02 
       2.906895534573e+01       1.415553707466e-02 
       3.138793597714e+01       1.150927381591e-02 
       3.389191366484e+01       9.353946562485e-03 
       3.659564657905e+01       7.598968602860e-03 
       3.951507022538e+01       6.170633275327e-03 
       4.266739136701e+01       5.008421475294e-03 
       4.607118943941e+01       4.063293857981e-03 
       4.974652605557e+01       3.294884139787e-03 
       5.371506324689e+01       2.670347554152e-03 
       5.800019113685e+01       2.162993503752e-03 
       6.262716579983e+01       1.750840870624e-03 
       6.762325811764e+01       1.416303212155e-03 
