# Matter power spectrum P(k) at redshift z=99
# for k=1.04775e-05 to 134.926 h/Mpc,
# number of wavenumbers equal to 255
#    1:k (h/Mpc)              2:P (Mpc/h)^3        
       1.047750691338e-05       7.261927095429e-03 
       1.131335172818e-05       7.820332150910e-03 
       1.221587619877e-05       8.421675382497e-03 
       1.319039970550e-05       9.069257738183e-03 
       1.424266598317e-05       9.766636451319e-03 
       1.537887697396e-05       1.051763973662e-02 
       1.660572938097e-05       1.132639250774e-02 
       1.793045413791e-05       1.219733201533e-02 
       1.936085902737e-05       1.313524187229e-02 
       2.090537469909e-05       1.414527085006e-02 
       2.257310435923e-05       1.523296544523e-02 
       2.437387742372e-05       1.640429654674e-02 
       2.631830745176e-05       1.766569603323e-02 
       2.841785470091e-05       1.902408711202e-02 
       3.068489367268e-05       2.048692967488e-02 
       3.313278604643e-05       2.206225467596e-02 
       3.577595943165e-05       2.375870883903e-02 
       3.862999240274e-05       2.558560669877e-02 
       4.171170631739e-05       2.755297672567e-02 
       4.503926445983e-05       2.967161933477e-02 
       4.863227909323e-05       3.195316455725e-02 
       5.251192705226e-05       3.441013466209e-02 
       5.670107455699e-05       3.705601741783e-02 
       6.122441198393e-05       3.990533412923e-02 
       6.610859938837e-05       4.297372242625e-02 
       7.138242363583e-05       4.627802054951e-02 
       7.707696806873e-05       4.983636159995e-02 
       8.322579570814e-05       5.366826787049e-02 
       8.986514707061e-05       5.779476319858e-02 
       9.703415376577e-05       6.223848221971e-02 
       1.047750691338e-04       6.702379825167e-02 
       1.131335172818e-04       7.217695031236e-02 
       1.221587619877e-04       7.772619030531e-02 
       1.319039970550e-04       8.370193380222e-02 
       1.424266598317e-04       9.013692506864e-02 
       1.537887697396e-04       9.706641130611e-02 
       1.660572938097e-04       1.045283343134e-01 
       1.793045413791e-04       1.125635329210e-01 
       1.936085902737e-04       1.212159592336e-01 
       2.090537469909e-04       1.305329107465e-01 
       2.257310435923e-04       1.405652819392e-01 
       2.437387742372e-04       1.513678275110e-01 
       2.631830745176e-04       1.629994475170e-01 
       2.841785470091e-04       1.755234890518e-01 
       3.068489367268e-04       1.890080645342e-01 
       3.313278604643e-04       2.035263977478e-01 
       3.577595943165e-04       2.191571778095e-01 
       3.862999240274e-04       2.359849423314e-01 
       4.171170631739e-04       2.541004713060e-01 
       4.503926445983e-04       2.736012061221e-01 
       4.863227909323e-04       2.945916774709e-01 
       5.251192705226e-04       3.171839507933e-01 
       5.670107455699e-04       3.414980769182e-01 
       6.122441198393e-04       3.676625416378e-01 
       6.610859938837e-04       3.958147272946e-01 
       7.138242363583e-04       4.261013332149e-01 
       7.707696806873e-04       4.586787880937e-01 
       8.322579570814e-04       4.937136112910e-01 
       8.986514707061e-04       5.313826962166e-01 
       9.703415376577e-04       5.718735176893e-01 
       1.047750691338e-03       6.153841926336e-01 
       1.131335172818e-03       6.621233623203e-01 
       1.221587619877e-03       7.123098743723e-01 
       1.319039970550e-03       7.661721263842e-01 
       1.424266598317e-03       8.239547181330e-01 
       1.537887697396e-03       8.859012282805e-01 
       1.660572938097e-03       9.522589495685e-01 
       1.793045413791e-03       1.023280284723e+00 
       1.936085902737e-03       1.099216542103e+00 
       2.090537469909e-03       1.180313285023e+00 
       2.257310435923e-03       1.266804486781e+00 
       2.437387742372e-03       1.358905328416e+00 
       2.631830745176e-03       1.456803285878e+00 
       2.841785470091e-03       1.560647662932e+00 
       3.068489367268e-03       1.670537010429e+00 
       3.313278604643e-03       1.786505039437e+00 
       3.577595943165e-03       1.908504409847e+00 
       3.862999240274e-03       2.036389468397e+00 
       4.171170631739e-03       2.169898252327e+00 
       4.503926445983e-03       2.308634491349e+00 
       4.863227909323e-03       2.452050673971e+00 
       5.251192705226e-03       2.599434680098e+00 
       5.670107455699e-03       2.749901125142e+00 
       6.122441198393e-03       2.902390056649e+00 
       6.610859938837e-03       3.055671267707e+00 
       7.138242363583e-03       3.208360120185e+00 
       7.707696806873e-03       3.358926648043e+00 
       8.322579570814e-03       3.505726885754e+00 
       8.986514707061e-03       3.647012432791e+00 
       9.703415376577e-03       3.780926173157e+00 
       1.047750691338e-02       3.905492873160e+00 
       1.131335172818e-02       4.018589816935e+00 
       1.221587619877e-02       4.117902877815e+00 
       1.319039970550e-02       4.200917687223e+00 
       1.424266598317e-02       4.264943723277e+00 
       1.537887697392e-02       4.307219651101e+00 
       1.660572938023e-02       4.325062435929e+00 
       1.793045412706e-02       4.316060366326e+00 
       1.936085890181e-02       4.278228901686e+00 
       2.090537352463e-02       4.210204437113e+00 
       2.257309535333e-02       4.111418705534e+00 
       2.437382002918e-02       3.982420885599e+00 
       2.631799944462e-02       3.825168624811e+00 
       2.841644545389e-02       3.643282175132e+00 
       3.067933355377e-02       3.442198621713e+00 
       3.311368470740e-02       3.229241501634e+00 
       3.571840443502e-02       3.013516224552e+00 
       3.847720348444e-02       2.805283821212e+00 
       4.135335538431e-02       2.614410532738e+00 
       4.429361667738e-02       2.448132037608e+00 
       4.724366439141e-02       2.309240491591e+00 
       5.016480835311e-02       2.196115028380e+00 
       5.303989620246e-02       2.104369683765e+00 
       5.586870669566e-02       2.028462410097e+00 
       5.866042680613e-02       1.963155121638e+00 
       6.142798932958e-02       1.903779513479e+00 
       6.418496440164e-02       1.846479008032e+00 
       6.694418833788e-02       1.788197269304e+00 
       6.971731106057e-02       1.726715464209e+00 
       7.251476155766e-02       1.660654166100e+00 
       7.534587671527e-02       1.589469621137e+00 
       7.821907666265e-02       1.513436335767e+00 
       8.114203772912e-02       1.433568518514e+00 
       8.412184535029e-02       1.351492010827e+00 
       8.716512279304e-02       1.269273482155e+00 
       9.027813695930e-02       1.189192914747e+00 
       9.346688431697e-02       1.113500849837e+00 
       9.673716028276e-02       1.044174185127e+00 
       1.000946150830e-01       9.827057082213e-01 
       1.035447986537e-01       9.299318346456e-01 
       1.070931966762e-01       8.859581909489e-01 
       1.107452594425e-01       8.500707502031e-01 
       1.145064249153e-01       8.208029676144e-01 
       1.183821370918e-01       7.960238529301e-01 
       1.223778605862e-01       7.731452339777e-01 
       1.264990921987e-01       7.494516226538e-01 
       1.307513701367e-01       7.225570779540e-01 
       1.351402814784e-01       6.909091072576e-01 
       1.396714684203e-01       6.541819025884e-01 
       1.443506338194e-01       6.134273560158e-01 
       1.491835465229e-01       5.708680087083e-01 
       1.541760469708e-01       5.293633125697e-01 
       1.593340535561e-01       4.917098425311e-01 
       1.646635702297e-01       4.599189243482e-01 
       1.701706958456e-01       4.347268402786e-01 
       1.758616357459e-01       4.154067020270e-01 
       1.817427160982e-01       3.999350727081e-01 
       1.878204015065e-01       3.856846047334e-01 
       1.941013164283e-01       3.698128714082e-01 
       2.005922709503e-01       3.505502401081e-01 
       2.073002914972e-01       3.280451621793e-01 
       2.142326570816e-01       3.042120794038e-01 
       2.213969417533e-01       2.816102234328e-01 
       2.288010639706e-01       2.622554174978e-01 
       2.364533437147e-01       2.469603615349e-01 
       2.443625682930e-01       2.350114586619e-01 
       2.525380679504e-01       2.244188425556e-01 
       2.609898026346e-01       2.130945220335e-01 
       2.697284615565e-01       2.001010073614e-01 
       2.787655775689e-01       1.860182179932e-01 
       2.881136588829e-01       1.725154290557e-01 
       2.977863412677e-01       1.610642873681e-01 
       3.077985646929e-01       1.517589940332e-01 
       3.181667794071e-01       1.435576815489e-01 
       3.289091877812e-01       1.351799839045e-01 
       3.400460299658e-01       1.261624732955e-01 
       3.515999236474e-01       1.172000176861e-01 
       3.635962711085e-01       1.091748099747e-01 
       3.760637506334e-01       1.023074820344e-01 
       3.890349143879e-01       9.593567296086e-02 
       4.025469216825e-01       8.950566662061e-02 
       4.166424456376e-01       8.310970601473e-02 
       4.313708035863e-01       7.721339576043e-02 
       4.467893782977e-01       7.189849482857e-02 
       4.629654199664e-01       6.686692042631e-02 
       4.799783501994e-01       6.191539029137e-02 
       4.979227319373e-01       5.722005075638e-02 
       5.169121270864e-01       5.290066662163e-02 
       5.370841404489e-01       4.876756974110e-02 
       5.586070464571e-01       4.478849367670e-02 
       5.816885094930e-01       4.104965420427e-02 
       6.065870144995e-01       3.748763715825e-02 
       6.336266468475e-01       3.407392752685e-02 
       6.632156059511e-01       3.083223124466e-02 
       6.958678639263e-01       2.772604231787e-02 
       7.322247985589e-01       2.476480130940e-02 
       7.730680195114e-01       2.193724971989e-02 
       8.193049553677e-01       1.925377278984e-02 
       8.718988016039e-01       1.672692121267e-02 
       9.317218031082e-01       1.438176806740e-02 
       9.993660908989e-01       1.224823531339e-02 
       1.075037110174e+00       1.035015351066e-02 
       1.158653485707e+00       8.697216276080e-03 
       1.250099157308e+00       7.282114404185e-03 
       1.349432401273e+00       6.082978241192e-03 
       1.456947457397e+00       5.073249851381e-03 
       1.573135111331e+00       4.225820738981e-03 
       1.698621895592e+00       3.516061309964e-03 
       1.834127512934e+00       2.922501607992e-03 
       1.980444934528e+00       2.426691665468e-03 
       2.138435191726e+00       2.013050678532e-03 
       2.309029199186e+00       1.668330340457e-03 
       2.493232377687e+00       1.381364914039e-03 
       2.692130395285e+00       1.142723186885e-03 
       2.906895534573e+00       9.444741311429e-04 
       3.138793597714e+00       7.799273504788e-04 
       3.389191366484e+00       6.434865159825e-04 
       3.659564657905e+00       5.304625445730e-04 
       3.951507022538e+00       4.369094106053e-04 
       4.266739136701e+00       3.595482124383e-04 
       4.607118943941e+00       2.956198472342e-04 
       4.974652605557e+00       2.428409979563e-04 
       5.371506324689e+00       1.993009699383e-04 
       5.800019113685e+00       1.634104892447e-04 
       6.262716579983e+00       1.338479400257e-04 
       6.762325811764e+00       1.095155855665e-04 
       7.301791451110e+00       8.950539492153e-05 
       7.884293049406e+00       7.305972347016e-05 
       8.513263807261e+00       5.955447263136e-05 
       9.192410809424e+00       4.847291239660e-05 
       9.925736873929e+00       3.938677191964e-05 
       1.071756414427e+01       3.194355401564e-05 
       1.157255956364e+01       2.585092070122e-05 
       1.249576238137e+01       2.086898732990e-05 
       1.349261385375e+01       1.679925726143e-05 
       1.456898931416e+01       1.347858657698e-05 
       1.573123280165e+01       1.077286496077e-05 
       1.698619445202e+01       8.571258540111e-06 
       1.834127087176e+01       6.783532649069e-06 
       1.980444873285e+01       5.334921850905e-06 
       2.138435184532e+01       4.164263795251e-06 
       2.309029198506e+01       3.221600468006e-06 
       2.493232377636e+01       2.465645134132e-06 
       2.692130395282e+01       1.862772745120e-06 
       2.906895534573e+01       1.385323004320e-06 
       3.138793597714e+01       1.010610691143e-06 
       3.389191366484e+01       7.199387010122e-07 
       3.659564657905e+01       4.978704402310e-07 
       3.951507022538e+01       3.316713165129e-07 
       4.266739136701e+01       2.104703448987e-07 
       4.607118943941e+01       1.252580468767e-07 
       4.974652605557e+01       6.812422624267e-08 
       5.371506324689e+01       3.254233944666e-08 
       5.800019113685e+01       1.245494523594e-08 
       6.262716579983e+01       3.126148148050e-09 
       6.762325811764e+01       1.471197584359e-10 
       7.301791451110e+01       3.630735074374e-10 
       7.884293049406e+01       1.401762500682e-09 
       8.513263807261e+01       2.051727931860e-09 
       9.192410809424e+01       1.919450474755e-09 
       9.925736873929e+01       1.228672382400e-09 
       1.071756414427e+02       5.341922009231e-10 
       1.157255956364e+02       6.972433566693e-11 
       1.249576238137e+02       8.020070155390e-12 
       1.349261385375e+02       7.397190651617e-11 
