# Matter power spectrum P(k) at redshift z=0
# for k=1.04775e-05 to 67.6233 h/Mpc,
# number of wavenumbers equal to 246
#    1:k (h/Mpc)              2:P (Mpc/h)^3        
       1.047750691338e-05       5.020964806750e+01 
       1.131335172818e-05       5.407048206553e+01 
       1.221587619877e-05       5.822819063753e+01 
       1.319039970550e-05       6.270562589678e+01 
       1.424266598317e-05       6.752731788102e+01 
       1.537887697396e-05       7.271977200257e+01 
       1.660572938097e-05       7.831147241542e+01 
       1.793045413791e-05       8.433311815128e+01 
       1.936085902737e-05       9.081778242446e+01 
       2.090537469909e-05       9.780108061341e+01 
       2.257310435923e-05       1.053213197032e+02 
       2.437387742372e-05       1.134197377001e+02 
       2.631830745176e-05       1.221408202816e+02 
       2.841785470091e-05       1.315324720916e+02 
       3.068489367268e-05       1.416462093729e+02 
       3.313278604643e-05       1.525374500691e+02 
       3.577595943165e-05       1.642660687078e+02 
       3.862999240274e-05       1.768963504868e+02 
       4.171170631739e-05       1.904975992461e+02 
       4.503926445983e-05       2.051444490305e+02 
       4.863227909323e-05       2.209171463752e+02 
       5.251192705226e-05       2.379022222314e+02 
       5.670107455699e-05       2.561927925468e+02 
       6.122441198393e-05       2.758890441792e+02 
       6.610859938837e-05       2.970989225466e+02 
       7.138242363583e-05       3.199385558200e+02 
       7.707696806873e-05       3.445329780878e+02 
       8.322579570814e-05       3.710167315928e+02 
       8.986514707061e-05       3.995346440954e+02 
       9.703415376577e-05       4.302425403884e+02 
       1.047750691338e-04       4.633080762974e+02 
       1.131335172818e-04       4.989116267507e+02 
       1.221587619877e-04       5.372471946561e+02 
       1.319039970550e-04       5.785234124632e+02 
       1.424266598317e-04       6.229645930980e+02 
       1.537887697396e-04       6.708118484951e+02 
       1.660572938097e-04       7.223242660220e+02 
       1.793045413791e-04       7.777801553913e+02 
       1.936085902737e-04       8.374783607333e+02 
       2.090537469909e-04       9.017396264495e+02 
       2.257310435923e-04       9.709080260152e+02 
       2.437387742372e-04       1.045352448644e+03 
       2.631830745176e-04       1.125468122836e+03 
       2.841785470091e-04       1.211678179511e+03 
       3.068489367268e-04       1.304435249091e+03 
       3.313278604643e-04       1.404223052541e+03 
       3.577595943165e-04       1.511558013390e+03 
       3.862999240274e-04       1.626990836482e+03 
       4.171170631739e-04       1.751108027371e+03 
       4.503926445983e-04       1.884533381345e+03 
       4.863227909323e-04       2.027929376471e+03 
       5.251192705226e-04       2.181998446367e+03 
       5.670107455699e-04       2.347484100857e+03 
       6.122441198393e-04       2.525171869337e+03 
       6.610859938837e-04       2.715889981401e+03 
       7.138242363583e-04       2.920509686084e+03 
       7.707696806873e-04       3.139945097709e+03 
       8.322579570814e-04       3.375152334396e+03 
       8.986514707061e-04       3.627127828231e+03 
       9.703415376577e-04       3.896905450016e+03 
       1.047750691338e-03       4.185552170956e+03 
       1.131335172818e-03       4.494162426791e+03 
       1.221587619877e-03       4.823850702671e+03 
       1.319039970550e-03       5.175742740362e+03 
       1.424266598317e-03       5.551019592519e+03 
       1.537887697396e-03       5.950788335878e+03 
       1.660572938097e-03       6.376123046807e+03 
       1.793045413791e-03       6.828073896120e+03 
       1.936085902737e-03       7.307625375386e+03 
       2.090537469909e-03       7.815671897674e+03 
       2.257310435923e-03       8.352990369401e+03 
       2.437387742372e-03       8.920211057531e+03 
       2.631830745176e-03       9.517783061889e+03 
       2.841785470091e-03       1.014593703671e+04 
       3.068489367268e-03       1.080464505737e+04 
       3.313278604643e-03       1.149357459453e+04 
       3.577595943165e-03       1.221203620826e+04 
       3.862999240274e-03       1.295892538505e+04 
       4.171170631739e-03       1.373265999600e+04 
       4.503926445983e-03       1.453111834595e+04 
       4.863227909323e-03       1.535154984217e+04 
       5.251192705226e-03       1.619063613375e+04 
       5.670107455699e-03       1.704431256594e+04 
       6.122441198393e-03       1.790755938493e+04 
       6.610859938837e-03       1.877460413061e+04 
       7.138242363583e-03       1.963872429212e+04 
       7.707696806873e-03       2.049215713245e+04 
       8.322579570814e-03       2.132606838687e+04 
       8.986514707061e-03       2.213055002645e+04 
       9.703415376577e-03       2.289445471251e+04 
       1.047750691338e-02       2.360548330284e+04 
       1.131335172818e-02       2.425023093415e+04 
       1.221587619877e-02       2.481423922228e+04 
       1.319039970550e-02       2.528218611778e+04 
       1.424266598317e-02       2.563814426057e+04 
       1.537887697392e-02       2.586606851937e+04 
       1.660572938023e-02       2.595027681410e+04 
       1.793045412706e-02       2.587634839577e+04 
       1.936085890181e-02       2.563218255412e+04 
       2.090537352463e-02       2.520934452462e+04 
       2.257309535333e-02       2.460448298518e+04 
       2.437382002918e-02       2.382088642118e+04 
       2.631799944462e-02       2.287043127789e+04 
       2.841644545389e-02       2.177451160338e+04 
       3.067933355377e-02       2.056556117516e+04 
       3.311368470740e-02       1.928729963714e+04 
       3.571840443502e-02       1.799396126200e+04 
       3.847720348444e-02       1.674681309174e+04 
       4.135335538431e-02       1.560461068258e+04 
       4.429361667738e-02       1.461038902234e+04 
       4.724366439141e-02       1.378055199594e+04 
       5.016480835311e-02       1.310506609810e+04 
       5.303989620246e-02       1.255713664007e+04 
       5.586870669566e-02       1.210424960318e+04 
       5.866042680613e-02       1.171466584529e+04 
       6.142798932958e-02       1.136047013899e+04 
       6.418496440164e-02       1.101855154291e+04 
       6.694418833788e-02       1.067069324021e+04 
       6.971731106057e-02       1.030354252841e+04 
       7.251476155766e-02       9.908981075863e+03 
       7.534587671527e-02       9.483759064046e+03 
       7.821907666265e-02       9.029488828915e+03 
       8.114203772912e-02       8.552306208171e+03 
       8.412184535029e-02       8.061950728224e+03 
       8.716512279304e-02       7.570753981712e+03 
       9.027813695930e-02       7.092497929140e+03 
       9.346688431697e-02       6.640478918758e+03 
       9.673716028276e-02       6.226704508327e+03 
       1.000946150830e-01       5.859897582476e+03 
       1.035447986537e-01       5.545251090141e+03 
       1.070931966762e-01       5.283156617898e+03 
       1.107452594425e-01       5.069436272413e+03 
       1.145064249153e-01       4.895225039870e+03 
       1.183821370918e-01       4.747833298589e+03 
       1.223778605862e-01       4.611738106881e+03 
       1.264990921987e-01       4.470630547025e+03 
       1.307513701367e-01       4.310273085985e+03 
       1.351402814784e-01       4.121387081073e+03 
       1.396714684203e-01       3.902065182259e+03 
       1.443506338194e-01       3.658645401406e+03 
       1.491835465229e-01       3.404484518033e+03 
       1.541760469708e-01       3.156678422238e+03 
       1.593340535561e-01       2.931982483198e+03 
       1.646635702297e-01       2.742379199270e+03 
       1.701706958456e-01       2.592259485649e+03 
       1.758616357459e-01       2.477241783505e+03 
       1.817427160982e-01       2.385182670783e+03 
       1.878204015065e-01       2.300359142872e+03 
       1.941013164283e-01       2.205757492897e+03 
       2.005922709503e-01       2.090814509000e+03 
       2.073002914972e-01       1.956461914795e+03 
       2.142326570816e-01       1.814193861193e+03 
       2.213969417533e-01       1.679288518234e+03 
       2.288010639706e-01       1.563843857269e+03 
       2.364533437147e-01       1.472685548696e+03 
       2.443625682930e-01       1.401510924536e+03 
       2.525380679504e-01       1.338409082957e+03 
       2.609898026346e-01       1.270901390904e+03 
       2.697284615565e-01       1.193379364160e+03 
       2.787655775689e-01       1.109338078329e+03 
       2.881136588829e-01       1.028767927909e+03 
       2.977863412677e-01       9.604805266776e+02 
       3.077985646929e-01       9.050204420481e+02 
       3.181667794071e-01       8.561422348697e+02 
       3.289091877812e-01       8.061870811732e+02 
       3.400460299658e-01       7.523901916377e+02 
       3.515999236474e-01       6.989217478924e+02 
       3.635962711085e-01       6.510623500466e+02 
       3.760637506334e-01       6.101223864037e+02 
       3.890349143879e-01       5.721313351290e+02 
       4.025469216825e-01       5.337835699617e+02 
       4.166424456376e-01       4.956314104952e+02 
       4.313708035863e-01       4.604677245670e+02 
       4.467893782977e-01       4.287769589083e+02 
       4.629654199664e-01       3.987723088331e+02 
       4.799783501994e-01       3.692418105566e+02 
       4.979227319373e-01       3.412393129484e+02 
       5.169121270864e-01       3.154818798838e+02 
       5.370841404489e-01       2.908359503536e+02 
       5.586070464571e-01       2.671059797049e+02 
       5.816885094930e-01       2.448080115567e+02 
       6.065870144995e-01       2.235674158737e+02 
       6.336266468475e-01       2.032094700537e+02 
       6.632156059511e-01       1.838783791893e+02 
       6.958678639263e-01       1.653534246115e+02 
       7.322247985589e-01       1.476945898151e+02 
       7.730680195114e-01       1.308325596088e+02 
       8.193049553677e-01       1.148302127909e+02 
       8.718988016039e-01       9.976100250697e+01 
       9.317218031082e-01       8.577629775669e+01 
       9.993660908989e-01       7.305306874765e+01 
       1.075037110174e+00       6.173389400726e+01 
       1.158653485707e+00       5.187687501967e+01 
       1.250099157308e+00       4.343763056394e+01 
       1.349432401273e+00       3.628642592474e+01 
       1.456947457397e+00       3.026463747292e+01 
       1.573135111331e+00       2.521082413828e+01 
       1.698621895592e+00       2.097794858570e+01 
       1.834127512934e+00       1.743784022411e+01 
       1.980444934528e+00       1.448065346262e+01 
       2.138435191726e+00       1.201344865267e+01 
       2.309029199186e+00       9.957072091614e+00 
       2.493232377687e+00       8.245127694144e+00 
       2.692130395285e+00       6.821266455256e+00 
       2.906895534573e+00       5.638179164175e+00 
       3.138793597714e+00       4.656078724269e+00 
       3.389191366484e+00       3.841489017298e+00 
       3.659564657905e+00       3.166441887258e+00 
       3.951507022538e+00       2.607433951247e+00 
       4.266739136701e+00       2.144891695352e+00 
       4.607118943941e+00       1.762382799689e+00 
       4.974652605557e+00       1.446300298235e+00 
       5.371506324689e+00       1.185217105900e+00 
       5.800019113685e+00       9.696764579560e-01 
       6.262716579983e+00       7.917882270729e-01 
       6.762325811764e+00       6.450424115022e-01 
       7.301791451110e+00       5.240019684710e-01 
       7.884293049406e+00       4.241783319363e-01 
       8.513263807261e+00       3.418716886639e-01 
       9.192410809424e+00       2.740136156646e-01 
       9.925736873929e+00       2.180909392421e-01 
       1.071756414427e+01       1.720286498669e-01 
       1.157255956364e+01       1.341423404975e-01 
       1.249576238137e+01       1.030508462728e-01 
       1.349261385375e+01       7.764263279085e-02 
       1.456898931416e+01       5.701565000446e-02 
       1.573123280165e+01       4.045487930399e-02 
       1.698619445202e+01       2.738090368143e-02 
       1.834127087176e+01       1.733103853507e-02 
       1.980444873285e+01       9.919964389246e-03 
       2.138435184532e+01       4.812018213294e-03 
       2.309029198506e+01       1.690012412485e-03 
       2.493232377636e+01       2.278736803057e-04 
       2.692130395282e+01       6.860007672340e-05 
       2.906895534573e+01       8.140728526694e-04 
       3.138793597714e+01       2.032322896571e-03 
       3.389191366484e+01       3.287640944749e-03 
       3.659564657905e+01       4.194339418974e-03 
       3.951507022538e+01       4.485155536407e-03 
       4.266739136701e+01       4.077003677275e-03 
       4.607118943941e+01       3.101497127775e-03 
       4.974652605557e+01       1.873585447073e-03 
       5.371506324689e+01       7.831824137181e-04 
       5.800019113685e+01       1.358293123062e-04 
       6.262716579983e+01       1.230978542420e-05 
       6.762325811764e+01       2.341269877907e-04 
