# Matter power spectrum P(k) at redshift z=0
# for k=1.04775e-05 to 67.6233 h/Mpc,
# number of wavenumbers equal to 246
#    1:k (h/Mpc)              2:P (Mpc/h)^3        
       1.047750691338e-05       5.020964806753e+01 
       1.131335172818e-05       5.407048206554e+01 
       1.221587619877e-05       5.822819063866e+01 
       1.319039970550e-05       6.270562589676e+01 
       1.424266598317e-05       6.752731788102e+01 
       1.537887697396e-05       7.271977200257e+01 
       1.660572938097e-05       7.831147241542e+01 
       1.793045413791e-05       8.433311815128e+01 
       1.936085902737e-05       9.081778242446e+01 
       2.090537469909e-05       9.780108061340e+01 
       2.257310435923e-05       1.053213197032e+02 
       2.437387742372e-05       1.134197377001e+02 
       2.631830745176e-05       1.221408202816e+02 
       2.841785470091e-05       1.315324720916e+02 
       3.068489367268e-05       1.416462093730e+02 
       3.313278604643e-05       1.525374500691e+02 
       3.577595943165e-05       1.642660687078e+02 
       3.862999240274e-05       1.768963504868e+02 
       4.171170631739e-05       1.904975992460e+02 
       4.503926445983e-05       2.051444490305e+02 
       4.863227909323e-05       2.209171463752e+02 
       5.251192705226e-05       2.379022222314e+02 
       5.670107455699e-05       2.561927925565e+02 
       6.122441198393e-05       2.758890441791e+02 
       6.610859938837e-05       2.970989225466e+02 
       7.138242363583e-05       3.199385558200e+02 
       7.707696806873e-05       3.445329780878e+02 
       8.322579570814e-05       3.710167315928e+02 
       8.986514707061e-05       3.995346440954e+02 
       9.703415376577e-05       4.302425403884e+02 
       1.047750691338e-04       4.633080762974e+02 
       1.131335172818e-04       4.989116267507e+02 
       1.221587619877e-04       5.372471946561e+02 
       1.319039970550e-04       5.785234124635e+02 
       1.424266598317e-04       6.229645930980e+02 
       1.537887697396e-04       6.708118484951e+02 
       1.660572938097e-04       7.223242660220e+02 
       1.793045413791e-04       7.777801552649e+02 
       1.936085902737e-04       8.374783607333e+02 
       2.090537469909e-04       9.017396264495e+02 
       2.257310435923e-04       9.709080260152e+02 
       2.437387742372e-04       1.045352448644e+03 
       2.631830745176e-04       1.125468122836e+03 
       2.841785470091e-04       1.211678179511e+03 
       3.068489367268e-04       1.304435249091e+03 
       3.313278604643e-04       1.404223052541e+03 
       3.577595943165e-04       1.511558013390e+03 
       3.862999240274e-04       1.626990836441e+03 
       4.171170631739e-04       1.751108027370e+03 
       4.503926445983e-04       1.884533381345e+03 
       4.863227909323e-04       2.027929376471e+03 
       5.251192705226e-04       2.181998446367e+03 
       5.670107455699e-04       2.347484100857e+03 
       6.122441198393e-04       2.525171869337e+03 
       6.610859938837e-04       2.715889981400e+03 
       7.138242363583e-04       2.920509686081e+03 
       7.707696806873e-04       3.139945097711e+03 
       8.322579570814e-04       3.375152334397e+03 
       8.986514707061e-04       3.627127828231e+03 
       9.703415376577e-04       3.896905450016e+03 
       1.047750691338e-03       4.185552170957e+03 
       1.131335172818e-03       4.494162426791e+03 
       1.221587619877e-03       4.823850702668e+03 
       1.319039970550e-03       5.175742734294e+03 
       1.424266598317e-03       5.551019592531e+03 
       1.537887697396e-03       5.950788335883e+03 
       1.660572938097e-03       6.376123046807e+03 
       1.793045413791e-03       6.828073896115e+03 
       1.936085902737e-03       7.307625375386e+03 
       2.090537469909e-03       7.815671859842e+03 
       2.257310435923e-03       8.352990369404e+03 
       2.437387742372e-03       8.920211057563e+03 
       2.631830745176e-03       9.517783061890e+03 
       2.841785470091e-03       1.014593703671e+04 
       3.068489367268e-03       1.080464505739e+04 
       3.313278604643e-03       1.149357459544e+04 
       3.577595943165e-03       1.221203620826e+04 
       3.862999240274e-03       1.295892538505e+04 
       4.171170631739e-03       1.373266001070e+04 
       4.503926445983e-03       1.453111834595e+04 
       4.863227909323e-03       1.535154984225e+04 
       5.251192705226e-03       1.619063613425e+04 
       5.670107455699e-03       1.704431256581e+04 
       6.122441198393e-03       1.790755938462e+04 
       6.610859938837e-03       1.877460404657e+04 
       7.138242363583e-03       1.963872429117e+04 
       7.707696806873e-03       2.049215713499e+04 
       8.322579570814e-03       2.132607230589e+04 
       8.986514707061e-03       2.213055396001e+04 
       9.703415376577e-03       2.289445470872e+04 
       1.047750691338e-02       2.360548459898e+04 
       1.131335172818e-02       2.425022856661e+04 
       1.221587619877e-02       2.481423921913e+04 
       1.319039970550e-02       2.528218701362e+04 
       1.424266598317e-02       2.563814313035e+04 
       1.537887697392e-02       2.586608847183e+04 
       1.660572938023e-02       2.595030295355e+04 
       1.793045412706e-02       2.587633546645e+04 
       1.936085890181e-02       2.563218554924e+04 
       2.090537352463e-02       2.520935003733e+04 
       2.257309535333e-02       2.460441377035e+04 
       2.437382002918e-02       2.382087703437e+04 
       2.631799944462e-02       2.287043470183e+04 
       2.841644545389e-02       2.177454771691e+04 
       3.067933355377e-02       2.056552150385e+04 
       3.311368470740e-02       1.928733509101e+04 
       3.571840443502e-02       1.799398181240e+04 
       3.847720348444e-02       1.674682742008e+04 
       4.135335538431e-02       1.560462318090e+04 
       4.429361667738e-02       1.461042034461e+04 
       4.724366439141e-02       1.378056654378e+04 
       5.016480835311e-02       1.310506945497e+04 
       5.303989620246e-02       1.255714539096e+04 
       5.586870669566e-02       1.210423685109e+04 
       5.866042680613e-02       1.171463860515e+04 
       6.142798932958e-02       1.136046969895e+04 
       6.418496440164e-02       1.101855105074e+04 
       6.694418833788e-02       1.067068197880e+04 
       6.971731106057e-02       1.030357601689e+04 
       7.251476155766e-02       9.909006132268e+03 
       7.534587671527e-02       9.483779438908e+03 
       7.821907666265e-02       9.029498643694e+03 
       8.114203772912e-02       8.552326453610e+03 
       8.412184535029e-02       8.061959415701e+03 
       8.716512279304e-02       7.570776137974e+03 
       9.027813695930e-02       7.092510021987e+03 
       9.346688431697e-02       6.640515872089e+03 
       9.673716028276e-02       6.226698347409e+03 
       1.000946150830e-01       5.859945524424e+03 
       1.035447986537e-01       5.545234975605e+03 
       1.070931966762e-01       5.283126775681e+03 
       1.107452594425e-01       5.069438500333e+03 
       1.145064249153e-01       4.895242730748e+03 
       1.183821370918e-01       4.747849622253e+03 
       1.223778605862e-01       4.611733760102e+03 
       1.264990921987e-01       4.470615732763e+03 
       1.307513701367e-01       4.310247783687e+03 
       1.351402814784e-01       4.121384653175e+03 
       1.396714684203e-01       3.902053532910e+03 
       1.443506338194e-01       3.658667954514e+03 
       1.491835465229e-01       3.404486671619e+03 
       1.541760469708e-01       3.156676786342e+03 
       1.593340535561e-01       2.931978963074e+03 
       1.646635702297e-01       2.742365142799e+03 
       1.701706958456e-01       2.592259996695e+03 
       1.758616357459e-01       2.477251601619e+03 
       1.817427160982e-01       2.385183565924e+03 
       1.878204015065e-01       2.300359673418e+03 
       1.941013164283e-01       2.205758079922e+03 
       2.005922709503e-01       2.090819500295e+03 
       2.073002914972e-01       1.956465638742e+03 
       2.142326570816e-01       1.814191588705e+03 
       2.213969417533e-01       1.679297014055e+03 
       2.288010639706e-01       1.563849959931e+03 
       2.364533437147e-01       1.472685819390e+03 
       2.443625682930e-01       1.401514176656e+03 
       2.525380679504e-01       1.338414959244e+03 
       2.609898026346e-01       1.270902102774e+03 
       2.697284615565e-01       1.193383190153e+03 
       2.787655775689e-01       1.109337776026e+03 
       2.881136588829e-01       1.028771997348e+03 
       2.977863412677e-01       9.604817779903e+02 
       3.077985646929e-01       9.050241952139e+02 
       3.181667794071e-01       8.561449645673e+02 
       3.289091877812e-01       8.061862075389e+02 
       3.400460299658e-01       7.523907672115e+02 
       3.515999236474e-01       6.989232621964e+02 
       3.635962711085e-01       6.510630363038e+02 
       3.760637506334e-01       6.101221079591e+02 
       3.890349143879e-01       5.721327649545e+02 
       4.025469216825e-01       5.337818073847e+02 
       4.166424456376e-01       4.956308490033e+02 
       4.313708035863e-01       4.604693749428e+02 
       4.467893782977e-01       4.287777049341e+02 
       4.629654199664e-01       3.987725060799e+02 
       4.799783501994e-01       3.692405269047e+02 
       4.979227319373e-01       3.412408714459e+02 
       5.169121270864e-01       3.154835212932e+02 
       5.370841404489e-01       2.908360020826e+02 
       5.586070464571e-01       2.671064517938e+02 
       5.816885094930e-01       2.448098346462e+02 
       6.065870144995e-01       2.235673032863e+02 
       6.336266468475e-01       2.032104273860e+02 
       6.632156059511e-01       1.838792248046e+02 
       6.958678639263e-01       1.653541462427e+02 
       7.322247985589e-01       1.476955414649e+02 
       7.730680195114e-01       1.308340962879e+02 
       8.193049553677e-01       1.148308750971e+02 
       8.718988016039e-01       9.976228355119e+01 
       9.317218031082e-01       8.577789958369e+01 
       9.993660908989e-01       7.305436208865e+01 
       1.075037110174e+00       6.173595994516e+01 
       1.158653485707e+00       5.187902309485e+01 
       1.250099157308e+00       4.344031673993e+01 
       1.349432401273e+00       3.628918281931e+01 
       1.456947457397e+00       3.026794525737e+01 
       1.573135111331e+00       2.521438131586e+01 
       1.698621895592e+00       2.098202920559e+01 
       1.834127512934e+00       1.744239688113e+01 
       1.980444934528e+00       1.448567196552e+01 
       2.138435191726e+00       1.201895068956e+01 
       2.309029199186e+00       9.963152589058e+00 
       2.493232377687e+00       8.251838967544e+00 
       2.692130395285e+00       6.828586670647e+00 
       2.906895534573e+00       5.646247772766e+00 
       3.138793597714e+00       4.664874412580e+00 
       3.389191366484e+00       3.851073492114e+00 
       3.659564657905e+00       3.176917270431e+00 
       3.951507022538e+00       2.618861429850e+00 
       4.266739136701e+00       2.157327461928e+00 
       4.607118943941e+00       1.775905163499e+00 
       4.974652605557e+00       1.460978843882e+00 
       5.371506324689e+00       1.201105223056e+00 
       5.800019113685e+00       9.868598865591e-01 
       6.262716579983e+00       8.103176061904e-01 
       6.762325811764e+00       6.649746858655e-01 
       7.301791451110e+00       5.453905640686e-01 
       7.884293049406e+00       4.470542253872e-01 
       8.513263807261e+00       3.662492735882e-01 
       9.192410809424e+00       2.998872395184e-01 
       9.925736873929e+00       2.454223258630e-01 
       1.071756414427e+01       2.007431548253e-01 
       1.157255956364e+01       1.641151277372e-01 
       1.249576238137e+01       1.341016523352e-01 
       1.349261385375e+01       1.095198364879e-01 
       1.456898931416e+01       8.939884883987e-02 
       1.573123280165e+01       7.293596162092e-02 
       1.698619445202e+01       5.947228351165e-02 
       1.834127087176e+01       4.846604201417e-02 
       1.980444873285e+01       3.947251955536e-02 
       2.138435184532e+01       3.212615152255e-02 
       2.309029198506e+01       2.612766971861e-02 
       2.493232377636e+01       2.123104947355e-02 
       2.692130395282e+01       1.723520616956e-02 
       2.906895534573e+01       1.397511012991e-02 
       3.138793597714e+01       1.131547838755e-02 
       3.389191366484e+01       9.146360382467e-03 
       3.659564657905e+01       7.377173310899e-03 
       3.951507022538e+01       5.934115103846e-03 
       4.266739136701e+01       4.757224576903e-03 
       4.607118943941e+01       3.797318684433e-03 
       4.974652605557e+01       3.014485825519e-03 
       5.371506324689e+01       2.376086823750e-03 
       5.800019113685e+01       1.856020797038e-03 
       6.262716579983e+01       1.432780975754e-03 
       6.762325811764e+01       1.089261644873e-03 
