# Matter power spectrum P(k) at redshift z=0
# for k=1.04775e-05 to 67.6233 h/Mpc,
# number of wavenumbers equal to 246
#    1:k (h/Mpc)              2:P (Mpc/h)^3        
       1.047750691338e-05       5.020964806754e+01 
       1.131335172818e-05       5.407048206553e+01 
       1.221587619877e-05       5.822819063941e+01 
       1.319039970550e-05       6.270562589683e+01 
       1.424266598317e-05       6.752731788102e+01 
       1.537887697396e-05       7.271977200257e+01 
       1.660572938097e-05       7.831147241542e+01 
       1.793045413791e-05       8.433311815128e+01 
       1.936085902737e-05       9.081778242446e+01 
       2.090537469909e-05       9.780108061342e+01 
       2.257310435923e-05       1.053213197032e+02 
       2.437387742372e-05       1.134197377001e+02 
       2.631830745176e-05       1.221408202816e+02 
       2.841785470091e-05       1.315324720916e+02 
       3.068489367268e-05       1.416462093730e+02 
       3.313278604643e-05       1.525374500691e+02 
       3.577595943165e-05       1.642660687078e+02 
       3.862999240274e-05       1.768963504868e+02 
       4.171170631739e-05       1.904975992460e+02 
       4.503926445983e-05       2.051444490305e+02 
       4.863227909323e-05       2.209171463752e+02 
       5.251192705226e-05       2.379022222314e+02 
       5.670107455699e-05       2.561927925531e+02 
       6.122441198393e-05       2.758890441791e+02 
       6.610859938837e-05       2.970989225465e+02 
       7.138242363583e-05       3.199385558200e+02 
       7.707696806873e-05       3.445329780878e+02 
       8.322579570814e-05       3.710167315928e+02 
       8.986514707061e-05       3.995346440954e+02 
       9.703415376577e-05       4.302425403884e+02 
       1.047750691338e-04       4.633080762974e+02 
       1.131335172818e-04       4.989116267507e+02 
       1.221587619877e-04       5.372471946561e+02 
       1.319039970550e-04       5.785234124629e+02 
       1.424266598317e-04       6.229645930980e+02 
       1.537887697396e-04       6.708118484951e+02 
       1.660572938097e-04       7.223242660220e+02 
       1.793045413791e-04       7.777801553156e+02 
       1.936085902737e-04       8.374783607333e+02 
       2.090537469909e-04       9.017396264495e+02 
       2.257310435923e-04       9.709080260152e+02 
       2.437387742372e-04       1.045352448644e+03 
       2.631830745176e-04       1.125468122836e+03 
       2.841785470091e-04       1.211678179511e+03 
       3.068489367268e-04       1.304435249091e+03 
       3.313278604643e-04       1.404223052541e+03 
       3.577595943165e-04       1.511558013390e+03 
       3.862999240274e-04       1.626990836460e+03 
       4.171170631739e-04       1.751108027370e+03 
       4.503926445983e-04       1.884533381345e+03 
       4.863227909323e-04       2.027929376469e+03 
       5.251192705226e-04       2.181998446367e+03 
       5.670107455699e-04       2.347484100857e+03 
       6.122441198393e-04       2.525171869337e+03 
       6.610859938837e-04       2.715889981400e+03 
       7.138242363583e-04       2.920509686084e+03 
       7.707696806873e-04       3.139945097710e+03 
       8.322579570814e-04       3.375152334395e+03 
       8.986514707061e-04       3.627127828231e+03 
       9.703415376577e-04       3.896905450016e+03 
       1.047750691338e-03       4.185552170958e+03 
       1.131335172818e-03       4.494162426791e+03 
       1.221587619877e-03       4.823850702662e+03 
       1.319039970550e-03       5.175742734641e+03 
       1.424266598317e-03       5.551019592514e+03 
       1.537887697396e-03       5.950788335886e+03 
       1.660572938097e-03       6.376123046807e+03 
       1.793045413791e-03       6.828073896125e+03 
       1.936085902737e-03       7.307625375387e+03 
       2.090537469909e-03       7.815671862387e+03 
       2.257310435923e-03       8.352990369398e+03 
       2.437387742372e-03       8.920211057542e+03 
       2.631830745176e-03       9.517783061890e+03 
       2.841785470091e-03       1.014593703671e+04 
       3.068489367268e-03       1.080464505739e+04 
       3.313278604643e-03       1.149357459459e+04 
       3.577595943165e-03       1.221203620826e+04 
       3.862999240274e-03       1.295892538505e+04 
       4.171170631739e-03       1.373266002576e+04 
       4.503926445983e-03       1.453111834595e+04 
       4.863227909323e-03       1.535154984226e+04 
       5.251192705226e-03       1.619063613432e+04 
       5.670107455699e-03       1.704431256603e+04 
       6.122441198393e-03       1.790755938460e+04 
       6.610859938837e-03       1.877460413898e+04 
       7.138242363583e-03       1.963872429103e+04 
       7.707696806873e-03       2.049215713137e+04 
       8.322579570814e-03       2.132606807710e+04 
       8.986514707061e-03       2.213055034251e+04 
       9.703415376577e-03       2.289445470826e+04 
       1.047750691338e-02       2.360547955352e+04 
       1.131335172818e-02       2.425022856709e+04 
       1.221587619877e-02       2.481423920670e+04 
       1.319039970550e-02       2.528218846691e+04 
       1.424266598317e-02       2.563814215870e+04 
       1.537887697392e-02       2.586605888657e+04 
       1.660572938023e-02       2.595027069356e+04 
       1.793045412706e-02       2.587635426362e+04 
       1.936085890181e-02       2.563220602129e+04 
       2.090537352463e-02       2.520936374962e+04 
       2.257309535333e-02       2.460447674444e+04 
       2.437382002918e-02       2.382088585344e+04 
       2.631799944462e-02       2.287052426030e+04 
       2.841644545389e-02       2.177452022781e+04 
       3.067933355377e-02       2.056553346874e+04 
       3.311368470740e-02       1.928728414304e+04 
       3.571840443502e-02       1.799396533176e+04 
       3.847720348444e-02       1.674681381879e+04 
       4.135335538431e-02       1.560458365134e+04 
       4.429361667738e-02       1.461036925715e+04 
       4.724366439141e-02       1.378052391981e+04 
       5.016480835311e-02       1.310506142812e+04 
       5.303989620246e-02       1.255716996733e+04 
       5.586870669566e-02       1.210424274121e+04 
       5.866042680613e-02       1.171465126219e+04 
       6.142798932958e-02       1.136048430713e+04 
       6.418496440164e-02       1.101858288047e+04 
       6.694418833788e-02       1.067071924117e+04 
       6.971731106057e-02       1.030357744004e+04 
       7.251476155766e-02       9.909010712475e+03 
       7.534587671527e-02       9.483776387381e+03 
       7.821907666265e-02       9.029489225400e+03 
       8.114203772912e-02       8.552320172992e+03 
       8.412184535029e-02       8.061946687074e+03 
       8.716512279304e-02       7.570775117018e+03 
       9.027813695930e-02       7.092511738723e+03 
       9.346688431697e-02       6.640519820573e+03 
       9.673716028276e-02       6.226716342345e+03 
       1.000946150830e-01       5.859951551983e+03 
       1.035447986537e-01       5.545252905675e+03 
       1.070931966762e-01       5.283130447878e+03 
       1.107452594425e-01       5.069413185323e+03 
       1.145064249153e-01       4.895241976180e+03 
       1.183821370918e-01       4.747866944046e+03 
       1.223778605862e-01       4.611727865982e+03 
       1.264990921987e-01       4.470617069192e+03 
       1.307513701367e-01       4.310279775374e+03 
       1.351402814784e-01       4.121396199168e+03 
       1.396714684203e-01       3.902070801592e+03 
       1.443506338194e-01       3.658636851850e+03 
       1.491835465229e-01       3.404485344866e+03 
       1.541760469708e-01       3.156668819913e+03 
       1.593340535561e-01       2.931980834311e+03 
       1.646635702297e-01       2.742376552812e+03 
       1.701706958456e-01       2.592268357895e+03 
       1.758616357459e-01       2.477240593243e+03 
       1.817427160982e-01       2.385180540128e+03 
       1.878204015065e-01       2.300356898639e+03 
       1.941013164283e-01       2.205756933219e+03 
       2.005922709503e-01       2.090816732165e+03 
       2.073002914972e-01       1.956464193493e+03 
       2.142326570816e-01       1.814196152647e+03 
       2.213969417533e-01       1.679296396942e+03 
       2.288010639706e-01       1.563848032860e+03 
       2.364533437147e-01       1.472685804306e+03 
       2.443625682930e-01       1.401512010391e+03 
       2.525380679504e-01       1.338416024041e+03 
       2.609898026346e-01       1.270904819476e+03 
       2.697284615565e-01       1.193383704996e+03 
       2.787655775689e-01       1.109342102970e+03 
       2.881136588829e-01       1.028770204629e+03 
       2.977863412677e-01       9.604839341527e+02 
       3.077985646929e-01       9.050239769928e+02 
       3.181667794071e-01       8.561436181462e+02 
       3.289091877812e-01       8.061890386049e+02 
       3.400460299658e-01       7.523910327771e+02 
       3.515999236474e-01       6.989251385992e+02 
       3.635962711085e-01       6.510630065793e+02 
       3.760637506334e-01       6.101234679234e+02 
       3.890349143879e-01       5.721322694558e+02 
       4.025469216825e-01       5.337827757220e+02 
       4.166424456376e-01       4.956313588341e+02 
       4.313708035863e-01       4.604676746413e+02 
       4.467893782977e-01       4.287782137445e+02 
       4.629654199664e-01       3.987739721284e+02 
       4.799783501994e-01       3.692421209539e+02 
       4.979227319373e-01       3.412405432972e+02 
       5.169121270864e-01       3.154837873971e+02 
       5.370841404489e-01       2.908356451875e+02 
       5.586070464571e-01       2.671063988944e+02 
       5.816885094930e-01       2.448098390539e+02 
       6.065870144995e-01       2.235681290828e+02 
       6.336266468475e-01       2.032103568423e+02 
       6.632156059511e-01       1.838791867072e+02 
       6.958678639263e-01       1.653549599514e+02 
       7.322247985589e-01       1.476959162221e+02 
       7.730680195114e-01       1.308344099176e+02 
       8.193049553677e-01       1.148314830210e+02 
       8.718988016039e-01       9.976280245436e+01 
       9.317218031082e-01       8.577763665257e+01 
       9.993660908989e-01       7.305488516325e+01 
       1.075037110174e+00       6.173600599678e+01 
       1.158653485707e+00       5.187924930502e+01 
       1.250099157308e+00       4.344023258968e+01 
       1.349432401273e+00       3.628936297008e+01 
       1.456947457397e+00       3.026783647819e+01 
       1.573135111331e+00       2.521451755147e+01 
       1.698621895592e+00       2.098189288923e+01 
       1.834127512934e+00       1.744238106695e+01 
       1.980444934528e+00       1.448566951890e+01 
       2.138435191726e+00       1.201894376925e+01 
       2.309029199186e+00       9.963172434505e+00 
       2.493232377687e+00       8.251786337426e+00 
       2.692130395285e+00       6.828597217745e+00 
       2.906895534573e+00       5.646199011870e+00 
       3.138793597714e+00       4.664871500211e+00 
       3.389191366484e+00       3.851125769328e+00 
       3.659564657905e+00       3.176942266419e+00 
       3.951507022538e+00       2.618889167247e+00 
       4.266739136701e+00       2.157348501653e+00 
       4.607118943941e+00       1.775937820407e+00 
       4.974652605557e+00       1.460985953704e+00 
       5.371506324689e+00       1.201127005578e+00 
       5.800019113685e+00       9.868749123702e-01 
       6.262716579983e+00       8.103472358980e-01 
       6.762325811764e+00       6.650079329211e-01 
       7.301791451110e+00       5.454306124956e-01 
       7.884293049406e+00       4.471003337139e-01 
       8.513263807261e+00       3.662958606796e-01 
       9.192410809424e+00       2.999397819282e-01 
       9.925736873929e+00       2.454785793222e-01 
       1.071756414427e+01       2.008068071498e-01 
       1.157255956364e+01       1.641832811358e-01 
       1.249576238137e+01       1.341757933919e-01 
       1.349261385375e+01       1.096010198552e-01 
       1.456898931416e+01       8.948744627816e-02 
       1.573123280165e+01       7.303183027032e-02 
       1.698619445202e+01       5.957537911687e-02 
       1.834127087176e+01       4.857830850098e-02 
       1.980444873285e+01       3.959405124819e-02 
       2.138435184532e+01       3.225790063702e-02 
       2.309029198506e+01       2.627033008162e-02 
       2.493232377636e+01       2.138491427183e-02 
       2.692130395282e+01       1.740084900968e-02 
       2.906895534573e+01       1.415308967383e-02 
       3.138793597714e+01       1.150671560579e-02 
       3.389191366484e+01       9.351056608714e-03 
       3.659564657905e+01       7.595865793890e-03 
       3.951507022538e+01       6.167189183190e-03 
       4.266739136701e+01       5.004776336943e-03 
       4.607118943941e+01       4.059356278871e-03 
       4.974652605557e+01       3.290653419183e-03 
       5.371506324689e+01       2.665769050649e-03 
       5.800019113685e+01       2.158039083799e-03 
       6.262716579983e+01       1.745585902900e-03 
       6.762325811764e+01       1.410620426991e-03 
