# Matter power spectrum P(k) at redshift z=99
# for k=1.04775e-05 to 67.6233 h/Mpc,
# number of wavenumbers equal to 246
#    1:k (h/Mpc)              2:P (Mpc/h)^3        
       1.047750691338e-05       7.261927673119e-03 
       1.131335172818e-05       7.820331745737e-03 
       1.221587619877e-05       8.421675986488e-03 
       1.319039970550e-05       9.069258192194e-03 
       1.424266598317e-05       9.766638404421e-03 
       1.537887697396e-05       1.051764069682e-02 
       1.660572938097e-05       1.132639105520e-02 
       1.793045413791e-05       1.219733231416e-02 
       1.936085902737e-05       1.313524224380e-02 
       2.090537469909e-05       1.414527121893e-02 
       2.257310435923e-05       1.523296272192e-02 
       2.437387742372e-05       1.640429444530e-02 
       2.631830745176e-05       1.766569582177e-02 
       2.841785470091e-05       1.902408601793e-02 
       3.068489367268e-05       2.048692970591e-02 
       3.313278604643e-05       2.206225513594e-02 
       3.577595943165e-05       2.375870704909e-02 
       3.862999240274e-05       2.558560727479e-02 
       4.171170631739e-05       2.755297763344e-02 
       4.503926445983e-05       2.967161927314e-02 
       4.863227909323e-05       3.195316450832e-02 
       5.251192705226e-05       3.441013519284e-02 
       5.670107455699e-05       3.705601722526e-02 
       6.122441198393e-05       3.990533413562e-02 
       6.610859938837e-05       4.297372168203e-02 
       7.138242363583e-05       4.627802141688e-02 
       7.707696806873e-05       4.983636194159e-02 
       8.322579570814e-05       5.366826847231e-02 
       8.986514707061e-05       5.779476394569e-02 
       9.703415376577e-05       6.223848243885e-02 
       1.047750691338e-04       6.702379865640e-02 
       1.131335172818e-04       7.217695153380e-02 
       1.221587619877e-04       7.772619073572e-02 
       1.319039970550e-04       8.370193432376e-02 
       1.424266598317e-04       9.013692507547e-02 
       1.537887697396e-04       9.706641242570e-02 
       1.660572938097e-04       1.045283354271e-01 
       1.793045413791e-04       1.125635349068e-01 
       1.936085902737e-04       1.212159614968e-01 
       2.090537469909e-04       1.305329132714e-01 
       2.257310435923e-04       1.405652846215e-01 
       2.437387742372e-04       1.513678302540e-01 
       2.631830745176e-04       1.629994504870e-01 
       2.841785470091e-04       1.755234921224e-01 
       3.068489367268e-04       1.890080670413e-01 
       3.313278604643e-04       2.035264002435e-01 
       3.577595943165e-04       2.191571803681e-01 
       3.862999240274e-04       2.359849437593e-01 
       4.171170631739e-04       2.541004741539e-01 
       4.503926445983e-04       2.736012080277e-01 
       4.863227909323e-04       2.945916790965e-01 
       5.251192705226e-04       3.171839525183e-01 
       5.670107455699e-04       3.414980764002e-01 
       6.122441198393e-04       3.676625413100e-01 
       6.610859938837e-04       3.958147252304e-01 
       7.138242363583e-04       4.261013284914e-01 
       7.707696806873e-04       4.586787792354e-01 
       8.322579570814e-04       4.937136001342e-01 
       8.986514707061e-04       5.313826801402e-01 
       9.703415376577e-04       5.718734972157e-01 
       1.047750691338e-03       6.153841629505e-01 
       1.131335172818e-03       6.621233239465e-01 
       1.221587619877e-03       7.123098220426e-01 
       1.319039970550e-03       7.661720584711e-01 
       1.424266598317e-03       8.239546297725e-01 
       1.537887697396e-03       8.859011173466e-01 
       1.660572938097e-03       9.522588006416e-01 
       1.793045413791e-03       1.023280099819e+00 
       1.936085902737e-03       1.099216304579e+00 
       2.090537469909e-03       1.180312990453e+00 
       2.257310435923e-03       1.266804115852e+00 
       2.437387742372e-03       1.358904853405e+00 
       2.631830745176e-03       1.456802683156e+00 
       2.841785470091e-03       1.560646890522e+00 
       3.068489367268e-03       1.670536062501e+00 
       3.313278604643e-03       1.786503852158e+00 
       3.577595943165e-03       1.908502930789e+00 
       3.862999240274e-03       2.036387730709e+00 
       4.171170631739e-03       2.169896153051e+00 
       4.503926445983e-03       2.308631878994e+00 
       4.863227909323e-03       2.452047290962e+00 
       5.251192705226e-03       2.599430628088e+00 
       5.670107455699e-03       2.749896931790e+00 
       6.122441198393e-03       2.902386513385e+00 
       6.610859938837e-03       3.055668706100e+00 
       7.138242363583e-03       3.208356461546e+00 
       7.707696806873e-03       3.358923892055e+00 
       8.322579570814e-03       3.505725158877e+00 
       8.986514707061e-03       3.647009253261e+00 
       9.703415376577e-03       3.780923304336e+00 
       1.047750691338e-02       3.905491476576e+00 
       1.131335172818e-02       4.018587641222e+00 
       1.221587619877e-02       4.117901584912e+00 
       1.319039970550e-02       4.200915353529e+00 
       1.424266598317e-02       4.264942379300e+00 
       1.537887697392e-02       4.307218956399e+00 
       1.660572938023e-02       4.325064305512e+00 
       1.793045412706e-02       4.316060363044e+00 
       1.936085890181e-02       4.278225621878e+00 
       2.090537352463e-02       4.210203312543e+00 
       2.257309535333e-02       4.111419147280e+00 
       2.437382002918e-02       3.982419084472e+00 
       2.631799944462e-02       3.825170537563e+00 
       2.841644545389e-02       3.643278428278e+00 
       3.067933355377e-02       3.442198167330e+00 
       3.311368470740e-02       3.229239288485e+00 
       3.571840443502e-02       3.013510632771e+00 
       3.847720348444e-02       2.805282953315e+00 
       4.135335538431e-02       2.614395622816e+00 
       4.429361667738e-02       2.448136847675e+00 
       4.724366439141e-02       2.309237621285e+00 
       5.016480835311e-02       2.196112931232e+00 
       5.303989620246e-02       2.104364932513e+00 
       5.586870669566e-02       2.028463441932e+00 
       5.866042680613e-02       1.963150970141e+00 
       6.142798932958e-02       1.903780286831e+00 
       6.418496440164e-02       1.846478929581e+00 
       6.694418833788e-02       1.788195166189e+00 
       6.971731106057e-02       1.726719170202e+00 
       7.251476155766e-02       1.660651488861e+00 
       7.534587671527e-02       1.589471384359e+00 
       7.821907666265e-02       1.513439954254e+00 
       8.114203772912e-02       1.433568530229e+00 
       8.412184535029e-02       1.351494920788e+00 
       8.716512279304e-02       1.269272961141e+00 
       9.027813695930e-02       1.189193342851e+00 
       9.346688431697e-02       1.113502206732e+00 
       9.673716028276e-02       1.044175889944e+00 
       1.000946150830e-01       9.827068676349e-01 
       1.035447986537e-01       9.299383945639e-01 
       1.070931966762e-01       8.859607966470e-01 
       1.107452594425e-01       8.500715013881e-01 
       1.145064249153e-01       8.208017648467e-01 
       1.183821370918e-01       7.960259927611e-01 
       1.223778605862e-01       7.731451486837e-01 
       1.264990921987e-01       7.494506168638e-01 
       1.307513701367e-01       7.225584194269e-01 
       1.351402814784e-01       6.909085878639e-01 
       1.396714684203e-01       6.541800765565e-01 
       1.443506338194e-01       6.134260100662e-01 
       1.491835465229e-01       5.708676148525e-01 
       1.541760469708e-01       5.293628090131e-01 
       1.593340535561e-01       4.917101510951e-01 
       1.646635702297e-01       4.599207758900e-01 
       1.701706958456e-01       4.347287871202e-01 
       1.758616357459e-01       4.154083371948e-01 
       1.817427160982e-01       3.999371633243e-01 
       1.878204015065e-01       3.856827802810e-01 
       1.941013164283e-01       3.698100526308e-01 
       2.005922709503e-01       3.505467299208e-01 
       2.073002914972e-01       3.280432455970e-01 
       2.142326570816e-01       3.042134437328e-01 
       2.213969417533e-01       2.816125533764e-01 
       2.288010639706e-01       2.622568733360e-01 
       2.364533437147e-01       2.469625634045e-01 
       2.443625682930e-01       2.350132346413e-01 
       2.525380679504e-01       2.244178811541e-01 
       2.609898026346e-01       2.130939578920e-01 
       2.697284615565e-01       2.001017835011e-01 
       2.787655775689e-01       1.860205021542e-01 
       2.881136588829e-01       1.725173705632e-01 
       2.977863412677e-01       1.610654976146e-01 
       3.077985646929e-01       1.517612529815e-01 
       3.181667794071e-01       1.435596113797e-01 
       3.289091877812e-01       1.351818481310e-01 
       3.400460299658e-01       1.261642889692e-01 
       3.515999236474e-01       1.172016765145e-01 
       3.635962711085e-01       1.091767472455e-01 
       3.760637506334e-01       1.023094051703e-01 
       3.890349143879e-01       9.593770593390e-02 
       4.025469216825e-01       8.950772792021e-02 
       4.166424456376e-01       8.311179698431e-02 
       4.313708035863e-01       7.721534082897e-02 
       4.467893782977e-01       7.190064625427e-02 
       4.629654199664e-01       6.686904069273e-02 
       4.799783501994e-01       6.191756627912e-02 
       4.979227319373e-01       5.722226718743e-02 
       5.169121270864e-01       5.290299443067e-02 
       5.370841404489e-01       4.876978447219e-02 
       5.586070464571e-01       4.479082316873e-02 
       5.816885094930e-01       4.105185213474e-02 
       6.065870144995e-01       3.748994118197e-02 
       6.336266468475e-01       3.407626880480e-02 
       6.632156059511e-01       3.083470449267e-02 
       6.958678639263e-01       2.772819862704e-02 
       7.322247985589e-01       2.476714292771e-02 
       7.730680195114e-01       2.193960330840e-02 
       8.193049553677e-01       1.925614279400e-02 
       8.718988016039e-01       1.672929890954e-02 
       9.317218031082e-01       1.438421236385e-02 
       9.993660908989e-01       1.225067099565e-02 
       1.075037110174e+00       1.035261880635e-02 
       1.158653485707e+00       8.699711756779e-03 
       1.250099157308e+00       7.284583862909e-03 
       1.349432401273e+00       6.085463974392e-03 
       1.456947457397e+00       5.075747150075e-03 
       1.573135111331e+00       4.228311819045e-03 
       1.698621895592e+00       3.518535532816e-03 
       1.834127512934e+00       2.924990348436e-03 
       1.980444934528e+00       2.429156572986e-03 
       2.138435191726e+00       2.015513696176e-03 
       2.309029199186e+00       1.670771535036e-03 
       2.493232377687e+00       1.383791749615e-03 
       2.692130395285e+00       1.145135089494e-03 
       2.906895534573e+00       9.468590139259e-04 
       3.138793597714e+00       7.822883700047e-04 
       3.389191366484e+00       6.458223558802e-04 
       3.659564657905e+00       5.327707012518e-04 
       3.951507022538e+00       4.391870271387e-04 
       4.266739136701e+00       3.617886423241e-04 
       4.607118943941e+00       2.978270320682e-04 
       4.974652605557e+00       2.450137288206e-04 
       5.371506324689e+00       2.014365155040e-04 
       5.800019113685e+00       1.655070055184e-04 
       6.262716579983e+00       1.359037775134e-04 
       6.762325811764e+00       1.115300165274e-04 
       7.301791451110e+00       9.147615502117e-05 
       7.884293049406e+00       7.498661499222e-05 
       8.513263807261e+00       6.143660812742e-05 
       9.192410809424e+00       5.030849457291e-05 
       9.925736873929e+00       4.117486797718e-05 
       1.071756414427e+01       3.368328162919e-05 
       1.157255956364e+01       2.754134251878e-05 
       1.249576238137e+01       2.250895536904e-05 
       1.349261385375e+01       1.838750865319e-05 
       1.456898931416e+01       1.501419142501e-05 
       1.573123280165e+01       1.225443602908e-05 
       1.698619445202e+01       9.997587299237e-06 
       1.834127087176e+01       8.153068624327e-06 
       1.980444873285e+01       6.646168005547e-06 
       2.138435184532e+01       5.415693439735e-06 
       2.309029198506e+01       4.411332481907e-06 
       2.493232377636e+01       3.591863918329e-06 
       2.692130395282e+01       2.923563939701e-06 
       2.906895534573e+01       2.378734414170e-06 
       3.138793597714e+01       1.934741754137e-06 
       3.389191366484e+01       1.573088545502e-06 
       3.659564657905e+01       1.278611271747e-06 
       3.951507022538e+01       1.038890067078e-06 
       4.266739136701e+01       8.438423141338e-07 
       4.607118943941e+01       6.851912848546e-07 
       4.974652605557e+01       5.561821027175e-07 
       5.371506324689e+01       4.513217530690e-07 
       5.800019113685e+01       3.661094480510e-07 
       6.262716579983e+01       2.968903705146e-07 
       6.762325811764e+01       2.406807447568e-07 
