# Matter power spectrum P(k) at redshift z=0
# for k=1.04775e-05 to 67.6233 h/Mpc,
# number of wavenumbers equal to 246
#    1:k (h/Mpc)              2:P (Mpc/h)^3        
       1.047750691338e-05       5.020964806751e+01 
       1.131335172818e-05       5.407048206554e+01 
       1.221587619877e-05       5.822819063800e+01 
       1.319039970550e-05       6.270562589688e+01 
       1.424266598317e-05       6.752731788102e+01 
       1.537887697396e-05       7.271977200258e+01 
       1.660572938097e-05       7.831147241542e+01 
       1.793045413791e-05       8.433311815128e+01 
       1.936085902737e-05       9.081778242446e+01 
       2.090537469909e-05       9.780108061340e+01 
       2.257310435923e-05       1.053213197032e+02 
       2.437387742372e-05       1.134197377001e+02 
       2.631830745176e-05       1.221408202816e+02 
       2.841785470091e-05       1.315324720916e+02 
       3.068489367268e-05       1.416462093730e+02 
       3.313278604643e-05       1.525374500691e+02 
       3.577595943165e-05       1.642660687078e+02 
       3.862999240274e-05       1.768963504868e+02 
       4.171170631739e-05       1.904975992460e+02 
       4.503926445983e-05       2.051444490305e+02 
       4.863227909323e-05       2.209171463752e+02 
       5.251192705226e-05       2.379022222314e+02 
       5.670107455699e-05       2.561927925679e+02 
       6.122441198393e-05       2.758890441791e+02 
       6.610859938837e-05       2.970989225466e+02 
       7.138242363583e-05       3.199385558200e+02 
       7.707696806873e-05       3.445329780878e+02 
       8.322579570814e-05       3.710167315928e+02 
       8.986514707061e-05       3.995346440954e+02 
       9.703415376577e-05       4.302425403884e+02 
       1.047750691338e-04       4.633080762974e+02 
       1.131335172818e-04       4.989116267507e+02 
       1.221587619877e-04       5.372471946561e+02 
       1.319039970550e-04       5.785234124630e+02 
       1.424266598317e-04       6.229645930980e+02 
       1.537887697396e-04       6.708118484951e+02 
       1.660572938097e-04       7.223242660220e+02 
       1.793045413791e-04       7.777801553710e+02 
       1.936085902737e-04       8.374783607333e+02 
       2.090537469909e-04       9.017396264495e+02 
       2.257310435923e-04       9.709080260152e+02 
       2.437387742372e-04       1.045352448644e+03 
       2.631830745176e-04       1.125468122836e+03 
       2.841785470091e-04       1.211678179511e+03 
       3.068489367268e-04       1.304435249091e+03 
       3.313278604643e-04       1.404223052541e+03 
       3.577595943165e-04       1.511558013390e+03 
       3.862999240274e-04       1.626990836486e+03 
       4.171170631739e-04       1.751108027371e+03 
       4.503926445983e-04       1.884533381345e+03 
       4.863227909323e-04       2.027929376470e+03 
       5.251192705226e-04       2.181998446367e+03 
       5.670107455699e-04       2.347484100857e+03 
       6.122441198393e-04       2.525171869336e+03 
       6.610859938837e-04       2.715889981401e+03 
       7.138242363583e-04       2.920509686089e+03 
       7.707696806873e-04       3.139945097710e+03 
       8.322579570814e-04       3.375152334394e+03 
       8.986514707061e-04       3.627127828231e+03 
       9.703415376577e-04       3.896905450016e+03 
       1.047750691338e-03       4.185552170960e+03 
       1.131335172818e-03       4.494162426791e+03 
       1.221587619877e-03       4.823850702661e+03 
       1.319039970550e-03       5.175742738711e+03 
       1.424266598317e-03       5.551019592510e+03 
       1.537887697396e-03       5.950788335873e+03 
       1.660572938097e-03       6.376123046809e+03 
       1.793045413791e-03       6.828073896114e+03 
       1.936085902737e-03       7.307625375386e+03 
       2.090537469909e-03       7.815671907607e+03 
       2.257310435923e-03       8.352990369401e+03 
       2.437387742372e-03       8.920211057542e+03 
       2.631830745176e-03       9.517783061890e+03 
       2.841785470091e-03       1.014593703671e+04 
       3.068489367268e-03       1.080464505733e+04 
       3.313278604643e-03       1.149357459544e+04 
       3.577595943165e-03       1.221203620826e+04 
       3.862999240274e-03       1.295892538505e+04 
       4.171170631739e-03       1.373266000371e+04 
       4.503926445983e-03       1.453111834595e+04 
       4.863227909323e-03       1.535154984218e+04 
       5.251192705226e-03       1.619063613381e+04 
       5.670107455699e-03       1.704431256586e+04 
       6.122441198393e-03       1.790755938483e+04 
       6.610859938837e-03       1.877460416062e+04 
       7.138242363583e-03       1.963872429201e+04 
       7.707696806873e-03       2.049215713350e+04 
       8.322579570814e-03       2.132607230841e+04 
       8.986514707061e-03       2.213055198019e+04 
       9.703415376577e-03       2.289445471213e+04 
       1.047750691338e-02       2.360547736845e+04 
       1.131335172818e-02       2.425023009145e+04 
       1.221587619877e-02       2.481423922000e+04 
       1.319039970550e-02       2.528218803419e+04 
       1.424266598317e-02       2.563813725717e+04 
       1.537887697392e-02       2.586607128159e+04 
       1.660572938023e-02       2.595025312313e+04 
       1.793045412706e-02       2.587635815840e+04 
       1.936085890181e-02       2.563220209384e+04 
       2.090537352463e-02       2.520936816570e+04 
       2.257309535333e-02       2.460447664419e+04 
       2.437382002918e-02       2.382083378414e+04 
       2.631799944462e-02       2.287048200057e+04 
       2.841644545389e-02       2.177447487243e+04 
       3.067933355377e-02       2.056555141647e+04 
       3.311368470740e-02       1.928731015625e+04 
       3.571840443502e-02       1.799399417061e+04 
       3.847720348444e-02       1.674684717784e+04 
       4.135335538431e-02       1.560461129436e+04 
       4.429361667738e-02       1.461039478621e+04 
       4.724366439141e-02       1.378053497128e+04 
       5.016480835311e-02       1.310507536313e+04 
       5.303989620246e-02       1.255715058355e+04 
       5.586870669566e-02       1.210425683329e+04 
       5.866042680613e-02       1.171466932011e+04 
       6.142798932958e-02       1.136044757651e+04 
       6.418496440164e-02       1.101855464548e+04 
       6.694418833788e-02       1.067070029456e+04 
       6.971731106057e-02       1.030355054722e+04 
       7.251476155766e-02       9.909005987842e+03 
       7.534587671527e-02       9.483764826622e+03 
       7.821907666265e-02       9.029537970606e+03 
       8.114203772912e-02       8.552308824404e+03 
       8.412184535029e-02       8.061921157601e+03 
       8.716512279304e-02       7.570771645467e+03 
       9.027813695930e-02       7.092510552349e+03 
       9.346688431697e-02       6.640519058341e+03 
       9.673716028276e-02       6.226705245425e+03 
       1.000946150830e-01       5.859889588924e+03 
       1.035447986537e-01       5.545247896025e+03 
       1.070931966762e-01       5.283140575586e+03 
       1.107452594425e-01       5.069419157989e+03 
       1.145064249153e-01       4.895256360173e+03 
       1.183821370918e-01       4.747828859633e+03 
       1.223778605862e-01       4.611724311834e+03 
       1.264990921987e-01       4.470629616007e+03 
       1.307513701367e-01       4.310263422568e+03 
       1.351402814784e-01       4.121380409082e+03 
       1.396714684203e-01       3.902074555607e+03 
       1.443506338194e-01       3.658650611728e+03 
       1.491835465229e-01       3.404490627118e+03 
       1.541760469708e-01       3.156678183778e+03 
       1.593340535561e-01       2.931983967175e+03 
       1.646635702297e-01       2.742374304384e+03 
       1.701706958456e-01       2.592263496622e+03 
       1.758616357459e-01       2.477242425319e+03 
       1.817427160982e-01       2.385185193402e+03 
       1.878204015065e-01       2.300356391201e+03 
       1.941013164283e-01       2.205757222431e+03 
       2.005922709503e-01       2.090817452815e+03 
       2.073002914972e-01       1.956470866122e+03 
       2.142326570816e-01       1.814191367116e+03 
       2.213969417533e-01       1.679284789858e+03 
       2.288010639706e-01       1.563845868267e+03 
       2.364533437147e-01       1.472685627054e+03 
       2.443625682930e-01       1.401507731433e+03 
       2.525380679504e-01       1.338410777379e+03 
       2.609898026346e-01       1.270903508351e+03 
       2.697284615565e-01       1.193382466990e+03 
       2.787655775689e-01       1.109337941883e+03 
       2.881136588829e-01       1.028769065498e+03 
       2.977863412677e-01       9.604809180929e+02 
       3.077985646929e-01       9.050221018003e+02 
       3.181667794071e-01       8.561430430451e+02 
       3.289091877812e-01       8.061863998975e+02 
       3.400460299658e-01       7.523920662191e+02 
       3.515999236474e-01       6.989220528187e+02 
       3.635962711085e-01       6.510616400978e+02 
       3.760637506334e-01       6.101204587767e+02 
       3.890349143879e-01       5.721309383633e+02 
       4.025469216825e-01       5.337807468173e+02 
       4.166424456376e-01       4.956310479118e+02 
       4.313708035863e-01       4.604670309355e+02 
       4.467893782977e-01       4.287770276660e+02 
       4.629654199664e-01       3.987724539404e+02 
       4.799783501994e-01       3.692415845168e+02 
       4.979227319373e-01       3.412389049984e+02 
       5.169121270864e-01       3.154825833071e+02 
       5.370841404489e-01       2.908347305061e+02 
       5.586070464571e-01       2.671054424306e+02 
       5.816885094930e-01       2.448086907628e+02 
       6.065870144995e-01       2.235679204542e+02 
       6.336266468475e-01       2.032100288190e+02 
       6.632156059511e-01       1.838785004804e+02 
       6.958678639263e-01       1.653539456037e+02 
       7.322247985589e-01       1.476949203454e+02 
       7.730680195114e-01       1.308332102299e+02 
       8.193049553677e-01       1.148305353115e+02 
       8.718988016039e-01       9.976141352574e+01 
       9.317218031082e-01       8.577688479130e+01 
       9.993660908989e-01       7.305331808273e+01 
       1.075037110174e+00       6.173456373608e+01 
       1.158653485707e+00       5.187740413768e+01 
       1.250099157308e+00       4.343855838197e+01 
       1.349432401273e+00       3.628752321531e+01 
       1.456947457397e+00       3.026572422105e+01 
       1.573135111331e+00       2.521190122823e+01 
       1.698621895592e+00       2.097916445914e+01 
       1.834127512934e+00       1.743923466849e+01 
       1.980444934528e+00       1.448214461624e+01 
       2.138435191726e+00       1.201507131502e+01 
       2.309029199186e+00       9.958900040927e+00 
       2.493232377687e+00       8.247126127381e+00 
       2.692130395285e+00       6.823473907094e+00 
       2.906895534573e+00       5.640589627381e+00 
       3.138793597714e+00       4.658663504642e+00 
       3.389191366484e+00       3.844323378777e+00 
       3.659564657905e+00       3.169511479980e+00 
       3.951507022538e+00       2.610768800757e+00 
       4.266739136701e+00       2.148523861230e+00 
       4.607118943941e+00       1.766324576616e+00 
       4.974652605557e+00       1.450528872372e+00 
       5.371506324689e+00       1.189793103141e+00 
       5.800019113685e+00       9.745975220334e-01 
       6.262716579983e+00       7.970803769005e-01 
       6.762325811764e+00       6.506917416299e-01 
       7.301791451110e+00       5.300182987633e-01 
       7.884293049406e+00       4.305652060636e-01 
       8.513263807261e+00       3.486062367488e-01 
       9.192410809424e+00       2.810763321789e-01 
       9.925736873929e+00       2.254479850496e-01 
       1.071756414427e+01       1.796279948168e-01 
       1.157255956364e+01       1.419128417371e-01 
       1.249576238137e+01       1.109013290545e-01 
       1.349261385375e+01       8.545312473910e-02 
       1.456898931416e+01       6.464913086204e-02 
       1.573123280165e+01       4.774314079175e-02 
       1.698619445202e+01       3.413960456067e-02 
       1.834127087176e+01       2.336162680159e-02 
       1.980444873285e+01       1.502580203580e-02 
       2.138435184532e+01       8.816913641999e-03 
       2.309029198506e+01       4.464688280262e-03 
       2.493232377636e+01       1.718183471620e-03 
       2.692130395282e+01       3.244509802650e-04 
       2.906895534573e+01       1.008106242067e-05 
       3.138793597714e+01       4.706345046527e-04 
       3.389191366484e+01       1.372997002991e-03 
       3.659564657905e+01       2.374765563244e-03 
       3.951507022538e+01       3.162376110910e-03 
       4.266739136701e+01       3.503131802851e-03 
       4.607118943941e+01       3.298101027633e-03 
       4.974652605557e+01       2.614473608553e-03 
       5.371506324689e+01       1.672309379295e-03 
       5.800019113685e+01       7.730586973164e-04 
       6.262716579983e+01       1.800283516192e-04 
       6.762325811764e+01       1.363051041448e-07 
