# Matter power spectrum P(k) at redshift z=99
# for k=1.04775e-05 to 134.926 h/Mpc,
# number of wavenumbers equal to 255
#    1:k (h/Mpc)              2:P (Mpc/h)^3        
       1.047750691338e-05       7.261927095530e-03 
       1.131335172818e-05       7.820332151019e-03 
       1.221587619877e-05       8.421675382614e-03 
       1.319039970550e-05       9.069257738309e-03 
       1.424266598317e-05       9.766636451455e-03 
       1.537887697396e-05       1.051763973677e-02 
       1.660572938097e-05       1.132639250790e-02 
       1.793045413791e-05       1.219733201550e-02 
       1.936085902737e-05       1.313524187248e-02 
       2.090537469909e-05       1.414527085026e-02 
       2.257310435923e-05       1.523296544544e-02 
       2.437387742372e-05       1.640429654697e-02 
       2.631830745176e-05       1.766569603348e-02 
       2.841785470091e-05       1.902408711229e-02 
       3.068489367268e-05       2.048692967516e-02 
       3.313278604643e-05       2.206225467626e-02 
       3.577595943165e-05       2.375870883936e-02 
       3.862999240274e-05       2.558560669913e-02 
       4.171170631739e-05       2.755297672606e-02 
       4.503926445983e-05       2.967161933519e-02 
       4.863227909323e-05       3.195316455770e-02 
       5.251192705226e-05       3.441013466257e-02 
       5.670107455699e-05       3.705601741835e-02 
       6.122441198393e-05       3.990533412978e-02 
       6.610859938837e-05       4.297372242684e-02 
       7.138242363583e-05       4.627802055015e-02 
       7.707696806873e-05       4.983636160065e-02 
       8.322579570814e-05       5.366826787124e-02 
       8.986514707061e-05       5.779476319939e-02 
       9.703415376577e-05       6.223848222057e-02 
       1.047750691338e-04       6.702379825259e-02 
       1.131335172818e-04       7.217695031336e-02 
       1.221587619877e-04       7.772619030638e-02 
       1.319039970550e-04       8.370193380338e-02 
       1.424266598317e-04       9.013692506988e-02 
       1.537887697396e-04       9.706641130745e-02 
       1.660572938097e-04       1.045283343148e-01 
       1.793045413791e-04       1.125635329226e-01 
       1.936085902737e-04       1.212159592353e-01 
       2.090537469909e-04       1.305329107483e-01 
       2.257310435923e-04       1.405652819411e-01 
       2.437387742372e-04       1.513678275131e-01 
       2.631830745176e-04       1.629994475192e-01 
       2.841785470091e-04       1.755234890542e-01 
       3.068489367268e-04       1.890080645368e-01 
       3.313278604643e-04       2.035263977505e-01 
       3.577595943165e-04       2.191571778124e-01 
       3.862999240274e-04       2.359849423345e-01 
       4.171170631739e-04       2.541004713093e-01 
       4.503926445983e-04       2.736012061256e-01 
       4.863227909323e-04       2.945916774746e-01 
       5.251192705226e-04       3.171839507972e-01 
       5.670107455699e-04       3.414980769223e-01 
       6.122441198393e-04       3.676625416421e-01 
       6.610859938837e-04       3.958147272991e-01 
       7.138242363583e-04       4.261013332196e-01 
       7.707696806873e-04       4.586787880985e-01 
       8.322579570814e-04       4.937136112959e-01 
       8.986514707061e-04       5.313826962215e-01 
       9.703415376577e-04       5.718735176941e-01 
       1.047750691338e-03       6.153841926382e-01 
       1.131335172818e-03       6.621233623245e-01 
       1.221587619877e-03       7.123098743760e-01 
       1.319039970550e-03       7.661721263870e-01 
       1.424266598317e-03       8.239547181345e-01 
       1.537887697396e-03       8.859012282798e-01 
       1.660572938097e-03       9.522589495649e-01 
       1.793045413791e-03       1.023280284715e+00 
       1.936085902737e-03       1.099216542091e+00 
       2.090537469909e-03       1.180313285003e+00 
       2.257310435923e-03       1.266804486752e+00 
       2.437387742372e-03       1.358905328376e+00 
       2.631830745176e-03       1.456803285823e+00 
       2.841785470091e-03       1.560647662858e+00 
       3.068489367268e-03       1.670537010331e+00 
       3.313278604643e-03       1.786505039308e+00 
       3.577595943165e-03       1.908504409678e+00 
       3.862999240274e-03       2.036389468178e+00 
       4.171170631739e-03       2.169898252045e+00 
       4.503926445983e-03       2.308634490988e+00 
       4.863227909323e-03       2.452050673512e+00 
       5.251192705226e-03       2.599434679515e+00 
       5.670107455699e-03       2.749901124405e+00 
       6.122441198393e-03       2.902390055720e+00 
       6.610859938837e-03       3.055671266541e+00 
       7.138242363583e-03       3.208360118726e+00 
       7.707696806873e-03       3.358926646221e+00 
       8.322579570814e-03       3.505726883487e+00 
       8.986514707061e-03       3.647012429979e+00 
       9.703415376577e-03       3.780926169680e+00 
       1.047750691338e-02       3.905492868874e+00 
       1.131335172818e-02       4.018589811670e+00 
       1.221587619877e-02       4.117902871367e+00 
       1.319039970550e-02       4.200917679355e+00 
       1.424266598317e-02       4.264943713714e+00 
       1.537887697392e-02       4.307219639519e+00 
       1.660572938023e-02       4.325062421967e+00 
       1.793045412706e-02       4.316060349572e+00 
       1.936085890181e-02       4.278228881698e+00 
       2.090537352463e-02       4.210204413351e+00 
       2.257309535333e-02       4.111418677464e+00 
       2.437382002918e-02       3.982420852658e+00 
       2.631799944462e-02       3.825168586347e+00 
       2.841644545389e-02       3.643282130709e+00 
       3.067933355377e-02       3.442198570303e+00 
       3.311368470740e-02       3.229241441024e+00 
       3.571840443502e-02       3.013516157498e+00 
       3.847720348444e-02       2.805283745356e+00 
       4.135335538431e-02       2.614410447590e+00 
       4.429361667738e-02       2.448131942321e+00 
       4.724366439141e-02       2.309240385871e+00 
       5.016480835311e-02       2.196114911763e+00 
       5.303989620246e-02       2.104369555872e+00 
       5.586870669566e-02       2.028462270598e+00 
       5.866042680613e-02       1.963154970241e+00 
       6.142798932958e-02       1.903779349957e+00 
       6.418496440164e-02       1.846478832257e+00 
       6.694418833788e-02       1.788197081251e+00 
       6.971731106057e-02       1.726715263997e+00 
       7.251476155766e-02       1.660653953987e+00 
       7.534587671527e-02       1.589469397522e+00 
       7.821907666265e-02       1.513436101119e+00 
       8.114203772912e-02       1.433568273411e+00 
       8.412184535029e-02       1.351491755885e+00 
       8.716512279304e-02       1.269273217826e+00 
       9.027813695930e-02       1.189192641374e+00 
       9.346688431697e-02       1.113500567625e+00 
       9.673716028276e-02       1.044173893773e+00 
       1.000946150830e-01       9.827054072425e-01 
       1.035447986537e-01       9.299379624701e-01 
       1.070931966762e-01       8.859578676611e-01 
       1.107452594425e-01       8.500704142222e-01 
       1.145064249153e-01       8.208026163704e-01 
       1.183821370918e-01       7.960234858611e-01 
       1.223778605862e-01       7.731448501161e-01 
       1.264990921987e-01       7.494512350007e-01 
       1.307513701367e-01       7.225566605836e-01 
       1.351402814784e-01       6.909086746744e-01 
       1.396714684203e-01       6.541814566215e-01 
       1.443506338194e-01       6.134268986668e-01 
       1.491835465229e-01       5.708675416214e-01 
       1.541760469708e-01       5.293628367412e-01 
       1.593340535561e-01       4.917093574098e-01 
       1.646635702297e-01       4.599184283696e-01 
       1.701706958456e-01       4.347263306373e-01 
       1.758616357459e-01       4.154061756298e-01 
       1.817427160982e-01       3.999345271110e-01 
       1.878204015065e-01       3.856840387861e-01 
       1.941013164283e-01       3.698122863754e-01 
       2.005922709503e-01       3.505496388355e-01 
       2.073002914972e-01       3.280445484884e-01 
       2.142326570816e-01       3.042114584842e-01 
       2.213969417533e-01       2.816095905087e-01 
       2.288010639706e-01       2.622547742715e-01 
       2.364533437147e-01       2.469597014287e-01 
       2.443625682930e-01       2.350107825648e-01 
       2.525380679504e-01       2.244181466322e-01 
       2.609898026346e-01       2.130937758770e-01 
       2.697284615565e-01       2.001002795731e-01 
       2.787655775689e-01       1.860174788197e-01 
       2.881136588829e-01       1.725147010917e-01 
       2.977863412677e-01       1.610635276573e-01 
       3.077985646929e-01       1.517582158954e-01 
       3.181667794071e-01       1.435568156800e-01 
       3.289091877812e-01       1.351791788868e-01 
       3.400460299658e-01       1.261616740083e-01 
       3.515999236474e-01       1.171991819682e-01 
       3.635962711085e-01       1.091740606893e-01 
       3.760637506334e-01       1.023066173718e-01 
       3.890349143879e-01       9.593478877276e-02 
       4.025469216825e-01       8.950463624196e-02 
       4.166424456376e-01       8.310877038977e-02 
       4.313708035863e-01       7.721250282677e-02 
       4.467893782977e-01       7.189763532373e-02 
       4.629654199664e-01       6.686586423277e-02 
       4.799783501994e-01       6.191445788845e-02 
       4.979227319373e-01       5.721904247083e-02 
       5.169121270864e-01       5.289973976659e-02 
       5.370841404489e-01       4.876654992065e-02 
       5.586070464571e-01       4.478760427735e-02 
       5.816885094930e-01       4.104858942803e-02 
       6.065870144995e-01       3.748646046958e-02 
       6.336266468475e-01       3.407291388788e-02 
       6.632156059511e-01       3.083118640003e-02 
       6.958678639263e-01       2.772484395359e-02 
       7.322247985589e-01       2.476354826927e-02 
       7.730680195114e-01       2.193605992729e-02 
       8.193049553677e-01       1.925260170645e-02 
       8.718988016039e-01       1.672566325518e-02 
       9.317218031082e-01       1.438055545932e-02 
       9.993660908989e-01       1.224694384918e-02 
       1.075037110174e+00       1.034880157902e-02 
       1.158653485707e+00       8.695953104993e-03 
       1.250099157308e+00       7.280793729310e-03 
       1.349432401273e+00       6.081626719192e-03 
       1.456947457397e+00       5.071851666733e-03 
       1.573135111331e+00       4.224409512177e-03 
       1.698621895592e+00       3.514638174145e-03 
       1.834127512934e+00       2.921054989030e-03 
       1.980444934528e+00       2.425216273691e-03 
       2.138435191726e+00       2.011540730140e-03 
       2.309029199186e+00       1.666793928265e-03 
       2.493232377687e+00       1.379799375834e-03 
       2.692130395285e+00       1.141120322385e-03 
       2.906895534573e+00       9.428325409597e-04 
       3.138793597714e+00       7.782506990014e-04 
       3.389191366484e+00       6.417708817382e-04 
       3.659564657905e+00       5.286881969245e-04 
       3.951507022538e+00       4.350854156350e-04 
       4.266739136701e+00       3.576708265940e-04 
       4.607118943941e+00       2.936885721924e-04 
       4.974652605557e+00       2.408417635980e-04 
       5.371506324689e+00       1.972241335515e-04 
       5.800019113685e+00       1.613343408649e-04 
       6.262716579983e+00       1.315248278229e-04 
       6.762325811764e+00       1.072449699162e-04 
       7.301791451110e+00       8.708806269004e-05 
       7.884293049406e+00       7.055779994218e-05 
       8.513263807261e+00       5.695987968033e-05 
       9.192410809424e+00       4.578833986071e-05 
       9.925736873929e+00       3.659365598882e-05 
       1.071756414427e+01       2.904627552567e-05 
       1.157255956364e+01       2.286594629465e-05 
       1.249576238137e+01       1.781636701304e-05 
       1.349261385375e+01       1.366841830487e-05 
       1.456898931416e+01       1.029923100975e-05 
       1.573123280165e+01       7.616740596377e-06 
       1.698619445202e+01       5.443789899729e-06 
       1.834127087176e+01       3.722261400787e-06 
       1.980444873285e+01       2.426564375941e-06 
       2.138435184532e+01       1.443977801345e-06 
       2.309029198506e+01       7.613718915083e-07 
       2.493232377636e+01       3.240406306553e-07 
       2.692130395282e+01       8.771949424099e-08 
       2.906895534573e+01       3.215464143216e-09 
       3.138793597714e+01       2.002516767099e-08 
       3.389191366484e+01       8.591119010161e-08 
       3.659564657905e+01       1.559120184298e-07 
       3.951507022538e+01       1.922648410657e-07 
       4.266739136701e+01       1.870906209136e-07 
       4.607118943941e+01       1.408178995418e-07 
       4.974652605557e+01       8.922869354149e-08 
       5.371506324689e+01       3.052851062560e-08 
       5.800019113685e+01       7.802096119638e-09 
       6.262716579983e+01       3.800968789275e-11 
       6.762325811764e+01       8.403679620497e-10 
       7.301791451110e+01       4.649466256526e-10 
       7.884293049406e+01       1.148165361060e-10 
       8.513263807261e+01       1.583212568786e-09 
       9.192410809424e+01       2.151926096101e-09 
       9.925736873929e+01       5.780791976227e-10 
       1.071756414427e+02       2.130166603756e-11 
       1.157255956364e+02       1.470649274412e-10 
       1.249576238137e+02       2.535190373326e-11 
       1.349261385375e+02       1.189951880180e-10 
