# Matter power spectrum P(k) at redshift z=99
# for k=1.04775e-05 to 67.6233 h/Mpc,
# number of wavenumbers equal to 246
#    1:k (h/Mpc)              2:P (Mpc/h)^3        
       1.047750691338e-05       7.261927673119e-03 
       1.131335172818e-05       7.820331745737e-03 
       1.221587619877e-05       8.421675986489e-03 
       1.319039970550e-05       9.069258192194e-03 
       1.424266598317e-05       9.766638404421e-03 
       1.537887697396e-05       1.051764069682e-02 
       1.660572938097e-05       1.132639105520e-02 
       1.793045413791e-05       1.219733231416e-02 
       1.936085902737e-05       1.313524224380e-02 
       2.090537469909e-05       1.414527121893e-02 
       2.257310435923e-05       1.523296272192e-02 
       2.437387742372e-05       1.640429444530e-02 
       2.631830745176e-05       1.766569582178e-02 
       2.841785470091e-05       1.902408601793e-02 
       3.068489367268e-05       2.048692970591e-02 
       3.313278604643e-05       2.206225513594e-02 
       3.577595943165e-05       2.375870704909e-02 
       3.862999240274e-05       2.558560727479e-02 
       4.171170631739e-05       2.755297763344e-02 
       4.503926445983e-05       2.967161927314e-02 
       4.863227909323e-05       3.195316450832e-02 
       5.251192705226e-05       3.441013519284e-02 
       5.670107455699e-05       3.705601722524e-02 
       6.122441198393e-05       3.990533413561e-02 
       6.610859938837e-05       4.297372168203e-02 
       7.138242363583e-05       4.627802141688e-02 
       7.707696806873e-05       4.983636194159e-02 
       8.322579570814e-05       5.366826847231e-02 
       8.986514707061e-05       5.779476394569e-02 
       9.703415376577e-05       6.223848243885e-02 
       1.047750691338e-04       6.702379865640e-02 
       1.131335172818e-04       7.217695153381e-02 
       1.221587619877e-04       7.772619073572e-02 
       1.319039970550e-04       8.370193432377e-02 
       1.424266598317e-04       9.013692507548e-02 
       1.537887697396e-04       9.706641242570e-02 
       1.660572938097e-04       1.045283354271e-01 
       1.793045413791e-04       1.125635349068e-01 
       1.936085902737e-04       1.212159614968e-01 
       2.090537469909e-04       1.305329132714e-01 
       2.257310435923e-04       1.405652846215e-01 
       2.437387742372e-04       1.513678302540e-01 
       2.631830745176e-04       1.629994504870e-01 
       2.841785470091e-04       1.755234921224e-01 
       3.068489367268e-04       1.890080670413e-01 
       3.313278604643e-04       2.035264002435e-01 
       3.577595943165e-04       2.191571803681e-01 
       3.862999240274e-04       2.359849437592e-01 
       4.171170631739e-04       2.541004741539e-01 
       4.503926445983e-04       2.736012080277e-01 
       4.863227909323e-04       2.945916790965e-01 
       5.251192705226e-04       3.171839525183e-01 
       5.670107455699e-04       3.414980764002e-01 
       6.122441198393e-04       3.676625413100e-01 
       6.610859938837e-04       3.958147252304e-01 
       7.138242363583e-04       4.261013284913e-01 
       7.707696806873e-04       4.586787792352e-01 
       8.322579570814e-04       4.937136001372e-01 
       8.986514707061e-04       5.313826801402e-01 
       9.703415376577e-04       5.718734972157e-01 
       1.047750691338e-03       6.153841629505e-01 
       1.131335172818e-03       6.621233239466e-01 
       1.221587619877e-03       7.123098220417e-01 
       1.319039970550e-03       7.661720584582e-01 
       1.424266598317e-03       8.239546297727e-01 
       1.537887697396e-03       8.859011173466e-01 
       1.660572938097e-03       9.522588006419e-01 
       1.793045413791e-03       1.023280099819e+00 
       1.936085902737e-03       1.099216304579e+00 
       2.090537469909e-03       1.180312990454e+00 
       2.257310435923e-03       1.266804115852e+00 
       2.437387742372e-03       1.358904853406e+00 
       2.631830745176e-03       1.456802683156e+00 
       2.841785470091e-03       1.560646890522e+00 
       3.068489367268e-03       1.670536062500e+00 
       3.313278604643e-03       1.786503852157e+00 
       3.577595943165e-03       1.908502930790e+00 
       3.862999240274e-03       2.036387730709e+00 
       4.171170631739e-03       2.169896178223e+00 
       4.503926445983e-03       2.308631878994e+00 
       4.863227909323e-03       2.452047290962e+00 
       5.251192705226e-03       2.599430628088e+00 
       5.670107455699e-03       2.749896931855e+00 
       6.122441198393e-03       2.902386513385e+00 
       6.610859938837e-03       3.055668704372e+00 
       7.138242363583e-03       3.208356461543e+00 
       7.707696806873e-03       3.358923892949e+00 
       8.322579570814e-03       3.505725595035e+00 
       8.986514707061e-03       3.647009606354e+00 
       9.703415376577e-03       3.780923304295e+00 
       1.047750691338e-02       3.905490884773e+00 
       1.131335172818e-02       4.018588040607e+00 
       1.221587619877e-02       4.117901586217e+00 
       1.319039970550e-02       4.200915272498e+00 
       1.424266598317e-02       4.264942419229e+00 
       1.537887697392e-02       4.307221934036e+00 
       1.660572938023e-02       4.325064213181e+00 
       1.793045412706e-02       4.316059237760e+00 
       1.936085890181e-02       4.278228631828e+00 
       2.090537352463e-02       4.210203153353e+00 
       2.257309535333e-02       4.111418014641e+00 
       2.437382002918e-02       3.982424022782e+00 
       2.631799944462e-02       3.825175671065e+00 
       2.841644545389e-02       3.643286162413e+00 
       3.067933355377e-02       3.442192346763e+00 
       3.311368470740e-02       3.229236735065e+00 
       3.571840443502e-02       3.013515006651e+00 
       3.847720348444e-02       2.805285238945e+00 
       4.135335538431e-02       2.614407470888e+00 
       4.429361667738e-02       2.448121435343e+00 
       4.724366439141e-02       2.309234170345e+00 
       5.016480835311e-02       2.196114110842e+00 
       5.303989620246e-02       2.104367577088e+00 
       5.586870669566e-02       2.028466806211e+00 
       5.866042680613e-02       1.963154461116e+00 
       6.142798932958e-02       1.903777907482e+00 
       6.418496440164e-02       1.846481035006e+00 
       6.694418833788e-02       1.788198407649e+00 
       6.971731106057e-02       1.726714790891e+00 
       7.251476155766e-02       1.660651192438e+00 
       7.534587671527e-02       1.589470266721e+00 
       7.821907666265e-02       1.513438334141e+00 
       8.114203772912e-02       1.433570891012e+00 
       8.412184535029e-02       1.351493895382e+00 
       8.716512279304e-02       1.269274639840e+00 
       9.027813695930e-02       1.189193113591e+00 
       9.346688431697e-02       1.113503090496e+00 
       9.673716028276e-02       1.044176497736e+00 
       1.000946150830e-01       9.827058437891e-01 
       1.035447986537e-01       9.299382178925e-01 
       1.070931966762e-01       8.859602083784e-01 
       1.107452594425e-01       8.500724088185e-01 
       1.145064249153e-01       8.208026597531e-01 
       1.183821370918e-01       7.960236179539e-01 
       1.223778605862e-01       7.731443776685e-01 
       1.264990921987e-01       7.494513051291e-01 
       1.307513701367e-01       7.225579271631e-01 
       1.351402814784e-01       6.909077484564e-01 
       1.396714684203e-01       6.541831485989e-01 
       1.443506338194e-01       6.134275633633e-01 
       1.491835465229e-01       5.708673586639e-01 
       1.541760469708e-01       5.293640684924e-01 
       1.593340535561e-01       4.917103845075e-01 
       1.646635702297e-01       4.599207503415e-01 
       1.701706958456e-01       4.347285535062e-01 
       1.758616357459e-01       4.154084687428e-01 
       1.817427160982e-01       3.999366376978e-01 
       1.878204015065e-01       3.856825220393e-01 
       1.941013164283e-01       3.698092246424e-01 
       2.005922709503e-01       3.505464144369e-01 
       2.073002914972e-01       3.280421571266e-01 
       2.142326570816e-01       3.042146002331e-01 
       2.213969417533e-01       2.816120730902e-01 
       2.288010639706e-01       2.622570550757e-01 
       2.364533437147e-01       2.469612221737e-01 
       2.443625682930e-01       2.350133194298e-01 
       2.525380679504e-01       2.244180915738e-01 
       2.609898026346e-01       2.130932167414e-01 
       2.697284615565e-01       2.001020488193e-01 
       2.787655775689e-01       1.860199703269e-01 
       2.881136588829e-01       1.725173866602e-01 
       2.977863412677e-01       1.610660664180e-01 
       3.077985646929e-01       1.517611087960e-01 
       3.181667794071e-01       1.435598173127e-01 
       3.289091877812e-01       1.351816464806e-01 
       3.400460299658e-01       1.261643051749e-01 
       3.515999236474e-01       1.172021240933e-01 
       3.635962711085e-01       1.091769540919e-01 
       3.760637506334e-01       1.023093225150e-01 
       3.890349143879e-01       9.593768389022e-02 
       4.025469216825e-01       8.950787562581e-02 
       4.166424456376e-01       8.311194969399e-02 
       4.313708035863e-01       7.721529607841e-02 
       4.467893782977e-01       7.190079599807e-02 
       4.629654199664e-01       6.686905245887e-02 
       4.799783501994e-01       6.191757671823e-02 
       4.979227319373e-01       5.722219288463e-02 
       5.169121270864e-01       5.290298998280e-02 
       5.370841404489e-01       4.876984398339e-02 
       5.586070464571e-01       4.479078919272e-02 
       5.816885094930e-01       4.105180824699e-02 
       6.065870144995e-01       3.748994684973e-02 
       6.336266468475e-01       3.407629807038e-02 
       6.632156059511e-01       3.083469052010e-02 
       6.958678639263e-01       2.772838763318e-02 
       7.322247985589e-01       2.476705465456e-02 
       7.730680195114e-01       2.193959509222e-02 
       8.193049553677e-01       1.925613842158e-02 
       8.718988016039e-01       1.672928249913e-02 
       9.317218031082e-01       1.438419103862e-02 
       9.993660908989e-01       1.225066853533e-02 
       1.075037110174e+00       1.035260895721e-02 
       1.158653485707e+00       8.699730521125e-03 
       1.250099157308e+00       7.284618332744e-03 
       1.349432401273e+00       6.085450324650e-03 
       1.456947457397e+00       5.075716676547e-03 
       1.573135111331e+00       4.228301382265e-03 
       1.698621895592e+00       3.518538733070e-03 
       1.834127512934e+00       2.924962411125e-03 
       1.980444934528e+00       2.429150502406e-03 
       2.138435191726e+00       2.015484924302e-03 
       2.309029199186e+00       1.670745945544e-03 
       2.493232377687e+00       1.383765378307e-03 
       2.692130395285e+00       1.145091217188e-03 
       2.906895534573e+00       9.468200197204e-04 
       3.138793597714e+00       7.822457315731e-04 
       3.389191366484e+00       6.457739379585e-04 
       3.659564657905e+00       5.327166675843e-04 
       3.951507022538e+00       4.391310736866e-04 
       4.266739136701e+00       3.617288787830e-04 
       4.607118943941e+00       2.977619072059e-04 
       4.974652605557e+00       2.449408768846e-04 
       5.371506324689e+00       2.013564269520e-04 
       5.800019113685e+00       1.654170941650e-04 
       6.262716579983e+00       1.358070623667e-04 
       6.762325811764e+00       1.114248225212e-04 
       7.301791451110e+00       9.136192404003e-05 
       7.884293049406e+00       7.486136841459e-05 
       8.513263807261e+00       6.130096858953e-05 
       9.192410809424e+00       5.016086989009e-05 
       9.925736873929e+00       4.101506833702e-05 
       1.071756414427e+01       3.351003116462e-05 
       1.157255956364e+01       2.735382761122e-05 
       1.249576238137e+01       2.230628247681e-05 
       1.349261385375e+01       1.816881790922e-05 
       1.456898931416e+01       1.477864675343e-05 
       1.573123280165e+01       1.200119918736e-05 
       1.698619445202e+01       9.725970109562e-06 
       1.834127087176e+01       7.862533101657e-06 
       1.980444873285e+01       6.336249634668e-06 
       2.138435184532e+01       5.086111076852e-06 
       2.309029198506e+01       4.062219892207e-06 
       2.493232377636e+01       3.223704389715e-06 
       2.692130395282e+01       2.537353028309e-06 
       2.906895534573e+01       1.976053039819e-06 
       3.138793597714e+01       1.517864122836e-06 
       3.389191366484e+01       1.145153255039e-06 
       3.659564657905e+01       8.436985804304e-07 
       3.951507022538e+01       6.021820255309e-07 
       4.266739136701e+01       4.115652850833e-07 
       4.607118943941e+01       2.646103772389e-07 
       4.974652605557e+01       1.554097557374e-07 
       5.371506324689e+01       7.894325332858e-08 
       5.800019113685e+01       3.063652743044e-08 
       6.262716579983e+01       5.964867405802e-09 
       6.762325811764e+01       1.246832053377e-10 
