# Matter power spectrum P(k) at redshift z=0
# for k=1.04775e-05 to 67.6233 h/Mpc,
# number of wavenumbers equal to 246
#    1:k (h/Mpc)              2:P (Mpc/h)^3        
       1.047750691338e-05       5.020964806749e+01 
       1.131335172818e-05       5.407048206553e+01 
       1.221587619877e-05       5.822819063615e+01 
       1.319039970550e-05       6.270562589683e+01 
       1.424266598317e-05       6.752731788102e+01 
       1.537887697396e-05       7.271977200258e+01 
       1.660572938097e-05       7.831147241542e+01 
       1.793045413791e-05       8.433311815128e+01 
       1.936085902737e-05       9.081778242446e+01 
       2.090537469909e-05       9.780108061340e+01 
       2.257310435923e-05       1.053213197032e+02 
       2.437387742372e-05       1.134197377001e+02 
       2.631830745176e-05       1.221408202816e+02 
       2.841785470091e-05       1.315324720916e+02 
       3.068489367268e-05       1.416462093729e+02 
       3.313278604643e-05       1.525374500691e+02 
       3.577595943165e-05       1.642660687078e+02 
       3.862999240274e-05       1.768963504868e+02 
       4.171170631739e-05       1.904975992460e+02 
       4.503926445983e-05       2.051444490305e+02 
       4.863227909323e-05       2.209171463752e+02 
       5.251192705226e-05       2.379022222314e+02 
       5.670107455699e-05       2.561927925519e+02 
       6.122441198393e-05       2.758890441791e+02 
       6.610859938837e-05       2.970989225465e+02 
       7.138242363583e-05       3.199385558200e+02 
       7.707696806873e-05       3.445329780878e+02 
       8.322579570814e-05       3.710167315928e+02 
       8.986514707061e-05       3.995346440954e+02 
       9.703415376577e-05       4.302425403884e+02 
       1.047750691338e-04       4.633080762974e+02 
       1.131335172818e-04       4.989116267507e+02 
       1.221587619877e-04       5.372471946561e+02 
       1.319039970550e-04       5.785234124629e+02 
       1.424266598317e-04       6.229645930980e+02 
       1.537887697396e-04       6.708118484951e+02 
       1.660572938097e-04       7.223242660220e+02 
       1.793045413791e-04       7.777801553605e+02 
       1.936085902737e-04       8.374783607334e+02 
       2.090537469909e-04       9.017396264495e+02 
       2.257310435923e-04       9.709080260152e+02 
       2.437387742372e-04       1.045352448644e+03 
       2.631830745176e-04       1.125468122836e+03 
       2.841785470091e-04       1.211678179511e+03 
       3.068489367268e-04       1.304435249091e+03 
       3.313278604643e-04       1.404223052541e+03 
       3.577595943165e-04       1.511558013390e+03 
       3.862999240274e-04       1.626990836464e+03 
       4.171170631739e-04       1.751108027370e+03 
       4.503926445983e-04       1.884533381345e+03 
       4.863227909323e-04       2.027929376470e+03 
       5.251192705226e-04       2.181998446367e+03 
       5.670107455699e-04       2.347484100857e+03 
       6.122441198393e-04       2.525171869337e+03 
       6.610859938837e-04       2.715889981401e+03 
       7.138242363583e-04       2.920509686085e+03 
       7.707696806873e-04       3.139945097711e+03 
       8.322579570814e-04       3.375152334396e+03 
       8.986514707061e-04       3.627127828231e+03 
       9.703415376577e-04       3.896905450016e+03 
       1.047750691338e-03       4.185552170962e+03 
       1.131335172818e-03       4.494162426791e+03 
       1.221587619877e-03       4.823850702662e+03 
       1.319039970550e-03       5.175742738831e+03 
       1.424266598317e-03       5.551019592532e+03 
       1.537887697396e-03       5.950788335887e+03 
       1.660572938097e-03       6.376123046782e+03 
       1.793045413791e-03       6.828073896123e+03 
       1.936085902737e-03       7.307625375386e+03 
       2.090537469909e-03       7.815671860204e+03 
       2.257310435923e-03       8.352990369398e+03 
       2.437387742372e-03       8.920211057510e+03 
       2.631830745176e-03       9.517783061887e+03 
       2.841785470091e-03       1.014593703671e+04 
       3.068489367268e-03       1.080464505739e+04 
       3.313278604643e-03       1.149357459543e+04 
       3.577595943165e-03       1.221203620826e+04 
       3.862999240274e-03       1.295892538505e+04 
       4.171170631739e-03       1.373266002278e+04 
       4.503926445983e-03       1.453111834594e+04 
       4.863227909323e-03       1.535154984182e+04 
       5.251192705226e-03       1.619063613169e+04 
       5.670107455699e-03       1.704431256582e+04 
       6.122441198393e-03       1.790755938604e+04 
       6.610859938837e-03       1.877460345612e+04 
       7.138242363583e-03       1.963872429601e+04 
       7.707696806873e-03       2.049215713331e+04 
       8.322579570814e-03       2.132606698661e+04 
       8.986514707061e-03       2.213055023350e+04 
       9.703415376577e-03       2.289445472825e+04 
       1.047750691338e-02       2.360547958186e+04 
       1.131335172818e-02       2.425023368014e+04 
       1.221587619877e-02       2.481423922376e+04 
       1.319039970550e-02       2.528218763107e+04 
       1.424266598317e-02       2.563814411635e+04 
       1.537887697392e-02       2.586606844438e+04 
       1.660572938023e-02       2.595027843984e+04 
       1.793045412706e-02       2.587631792582e+04 
       1.936085890181e-02       2.563221870103e+04 
       2.090537352463e-02       2.520937556709e+04 
       2.257309535333e-02       2.460447931598e+04 
       2.437382002918e-02       2.382087801734e+04 
       2.631799944462e-02       2.287043780117e+04 
       2.841644545389e-02       2.177448835569e+04 
       3.067933355377e-02       2.056555520654e+04 
       3.311368470740e-02       1.928730362501e+04 
       3.571840443502e-02       1.799397609390e+04 
       3.847720348444e-02       1.674684896156e+04 
       4.135335538431e-02       1.560464815036e+04 
       4.429361667738e-02       1.461040644264e+04 
       4.724366439141e-02       1.378057868695e+04 
       5.016480835311e-02       1.310505397521e+04 
       5.303989620246e-02       1.255715415942e+04 
       5.586870669566e-02       1.210428438472e+04 
       5.866042680613e-02       1.171465853532e+04 
       6.142798932958e-02       1.136053699317e+04 
       6.418496440164e-02       1.101857667498e+04 
       6.694418833788e-02       1.067065268041e+04 
       6.971731106057e-02       1.030357121445e+04 
       7.251476155766e-02       9.908990544244e+03 
       7.534587671527e-02       9.483786647782e+03 
       7.821907666265e-02       9.029487618536e+03 
       8.114203772912e-02       8.552298783205e+03 
       8.412184535029e-02       8.061971254654e+03 
       8.716512279304e-02       7.570776240966e+03 
       9.027813695930e-02       7.092444924854e+03 
       9.346688431697e-02       6.640462202637e+03 
       9.673716028276e-02       6.226701976091e+03 
       1.000946150830e-01       5.859940153092e+03 
       1.035447986537e-01       5.545246154030e+03 
       1.070931966762e-01       5.283140954175e+03 
       1.107452594425e-01       5.069420629425e+03 
       1.145064249153e-01       4.895223131380e+03 
       1.183821370918e-01       4.747833631852e+03 
       1.223778605862e-01       4.611728876224e+03 
       1.264990921987e-01       4.470613614710e+03 
       1.307513701367e-01       4.310245500633e+03 
       1.351402814784e-01       4.121367112929e+03 
       1.396714684203e-01       3.902038964399e+03 
       1.443506338194e-01       3.658636641325e+03 
       1.491835465229e-01       3.404454427693e+03 
       1.541760469708e-01       3.156649470774e+03 
       1.593340535561e-01       2.931952563622e+03 
       1.646635702297e-01       2.742347424692e+03 
       1.701706958456e-01       2.592234204012e+03 
       1.758616357459e-01       2.477220618426e+03 
       1.817427160982e-01       2.385151102756e+03 
       1.878204015065e-01       2.300326041510e+03 
       1.941013164283e-01       2.205724172697e+03 
       2.005922709503e-01       2.090773920618e+03 
       2.073002914972e-01       1.956422667017e+03 
       2.142326570816e-01       1.814149170422e+03 
       2.213969417533e-01       1.679247907009e+03 
       2.288010639706e-01       1.563795669019e+03 
       2.364533437147e-01       1.472631126624e+03 
       2.443625682930e-01       1.401453874219e+03 
       2.525380679504e-01       1.338353033564e+03 
       2.609898026346e-01       1.270837446940e+03 
       2.697284615565e-01       1.193313981956e+03 
       2.787655775689e-01       1.109262692323e+03 
       2.881136588829e-01       1.028690948161e+03 
       2.977863412677e-01       9.604011715735e+02 
       3.077985646929e-01       9.049384902237e+02 
       3.181667794071e-01       8.560542807140e+02 
       3.289091877812e-01       8.060916273800e+02 
       3.400460299658e-01       7.522873155140e+02 
       3.515999236474e-01       6.988149192746e+02 
       3.635962711085e-01       6.509506825872e+02 
       3.760637506334e-01       6.100048227172e+02 
       3.890349143879e-01       5.720068428443e+02 
       4.025469216825e-01       5.336482055845e+02 
       4.166424456376e-01       4.954914209384e+02 
       4.313708035863e-01       4.603222055730e+02 
       4.467893782977e-01       4.286227141041e+02 
       4.629654199664e-01       3.986097563318e+02 
       4.799783501994e-01       3.690696394132e+02 
       4.979227319373e-01       3.410585911355e+02 
       5.169121270864e-01       3.152920170764e+02 
       5.370841404489e-01       2.906323760025e+02 
       5.586070464571e-01       2.668917382882e+02 
       5.816885094930e-01       2.445819939115e+02 
       6.065870144995e-01       2.233268067088e+02 
       6.336266468475e-01       2.029538843087e+02 
       6.632156059511e-01       1.836058373214e+02 
       6.958678639263e-01       1.650629937886e+02 
       7.322247985589e-01       1.473835608184e+02 
       7.730680195114e-01       1.304982860426e+02 
       8.193049553677e-01       1.144682794565e+02 
       8.718988016039e-01       9.936919550844e+01 
       9.317218031082e-01       8.534959295654e+01 
       9.993660908989e-01       7.258686861730e+01 
       1.075037110174e+00       6.122387661818e+01 
       1.158653485707e+00       5.131873333456e+01 
       1.250099157308e+00       4.282729850895e+01 
       1.349432401273e+00       3.562023300007e+01 
       1.456947457397e+00       2.953893503928e+01 
       1.573135111331e+00       2.442252276889e+01 
       1.698621895592e+00       2.012424712250e+01 
       1.834127512934e+00       1.651651884141e+01 
       1.980444934528e+00       1.349007058065e+01 
       2.138435191726e+00       1.095300951287e+01 
       2.309029199186e+00       8.827726750395e+00 
       2.493232377687e+00       7.049181943225e+00 
       2.692130395285e+00       5.563185260562e+00 
       2.906895534573e+00       4.325019370064e+00 
       3.138793597714e+00       3.297812233117e+00 
       3.389191366484e+00       2.451600201676e+00 
       3.659564657905e+00       1.762113340916e+00 
       3.951507022538e+00       1.209822370518e+00 
       4.266739136701e+00       7.788040271619e-01 
       4.607118943941e+00       4.556682052310e-01 
       4.974652605557e+00       2.285287284945e-01 
       5.371506324689e+00       8.571651483512e-02 
       5.800019113685e+00       1.468818357274e-02 
       6.262716579983e+00       1.149570970492e-03 
       6.762325811764e+00       2.859261594207e-02 
       7.301791451110e+00       7.863006683043e-02 
       7.884293049406e+00       1.323126346923e-01 
       8.513263807261e+00       1.725148361611e-01 
       9.192410809424e+00       1.870451591263e-01 
       9.925736873929e+00       1.716153639099e-01 
       1.071756414427e+01       1.313779082485e-01 
       1.157255956364e+01       7.966836694508e-02 
       1.249576238137e+01       3.333153993452e-02 
       1.349261385375e+01       5.741576424305e-03 
       1.456898931416e+01       5.524924487087e-04 
       1.573123280165e+01       1.011859349548e-02 
       1.698619445202e+01       2.068276244320e-02 
       1.834127087176e+01       2.184348705924e-02 
       1.980444873285e+01       1.344325844567e-02 
       2.138435184532e+01       3.706350714465e-03 
       2.309029198506e+01       2.917500212894e-06 
       2.493232377636e+01       1.752013100960e-03 
       2.692130395282e+01       3.243764247554e-03 
       2.906895534573e+01       1.878534370273e-03 
       3.138793597714e+01       1.895678094249e-04 
       3.389191366484e+01       1.624746242743e-04 
       3.659564657905e+01       4.862852560133e-04 
       3.951507022538e+01       1.810905545288e-04 
       4.266739136701e+01       1.524655660990e-06 
       4.607118943941e+01       7.344843683702e-05 
       4.974652605557e+01       2.611115005826e-05 
       5.371506324689e+01       2.350766283808e-06 
       5.800019113685e+01       1.021560353275e-05 
       6.262716579983e+01       1.150769871203e-07 
       6.762325811764e+01       1.831224207083e-06 
