# Matter power spectrum P(k) at redshift z=0
# for k=1.04775e-05 to 67.6233 h/Mpc,
# number of wavenumbers equal to 246
#    1:k (h/Mpc)              2:P (Mpc/h)^3        
       1.047750691338e-05       5.020964806751e+01 
       1.131335172818e-05       5.407048206554e+01 
       1.221587619877e-05       5.822819063934e+01 
       1.319039970550e-05       6.270562589687e+01 
       1.424266598317e-05       6.752731788102e+01 
       1.537887697396e-05       7.271977200258e+01 
       1.660572938097e-05       7.831147241542e+01 
       1.793045413791e-05       8.433311815128e+01 
       1.936085902737e-05       9.081778242446e+01 
       2.090537469909e-05       9.780108061339e+01 
       2.257310435923e-05       1.053213197032e+02 
       2.437387742372e-05       1.134197377001e+02 
       2.631830745176e-05       1.221408202816e+02 
       2.841785470091e-05       1.315324720916e+02 
       3.068489367268e-05       1.416462093729e+02 
       3.313278604643e-05       1.525374500691e+02 
       3.577595943165e-05       1.642660687078e+02 
       3.862999240274e-05       1.768963504868e+02 
       4.171170631739e-05       1.904975992461e+02 
       4.503926445983e-05       2.051444490305e+02 
       4.863227909323e-05       2.209171463752e+02 
       5.251192705226e-05       2.379022222314e+02 
       5.670107455699e-05       2.561927925921e+02 
       6.122441198393e-05       2.758890441791e+02 
       6.610859938837e-05       2.970989225467e+02 
       7.138242363583e-05       3.199385558200e+02 
       7.707696806873e-05       3.445329780878e+02 
       8.322579570814e-05       3.710167315928e+02 
       8.986514707061e-05       3.995346440954e+02 
       9.703415376577e-05       4.302425403884e+02 
       1.047750691338e-04       4.633080762974e+02 
       1.131335172818e-04       4.989116267507e+02 
       1.221587619877e-04       5.372471946561e+02 
       1.319039970550e-04       5.785234124626e+02 
       1.424266598317e-04       6.229645930980e+02 
       1.537887697396e-04       6.708118484951e+02 
       1.660572938097e-04       7.223242660220e+02 
       1.793045413791e-04       7.777801554132e+02 
       1.936085902737e-04       8.374783607333e+02 
       2.090537469909e-04       9.017396264495e+02 
       2.257310435923e-04       9.709080260152e+02 
       2.437387742372e-04       1.045352448644e+03 
       2.631830745176e-04       1.125468122836e+03 
       2.841785470091e-04       1.211678179511e+03 
       3.068489367268e-04       1.304435249091e+03 
       3.313278604643e-04       1.404223052541e+03 
       3.577595943165e-04       1.511558013390e+03 
       3.862999240274e-04       1.626990836489e+03 
       4.171170631739e-04       1.751108027370e+03 
       4.503926445983e-04       1.884533381345e+03 
       4.863227909323e-04       2.027929376470e+03 
       5.251192705226e-04       2.181998446367e+03 
       5.670107455699e-04       2.347484100857e+03 
       6.122441198393e-04       2.525171869337e+03 
       6.610859938837e-04       2.715889981401e+03 
       7.138242363583e-04       2.920509686085e+03 
       7.707696806873e-04       3.139945097710e+03 
       8.322579570814e-04       3.375152334394e+03 
       8.986514707061e-04       3.627127828231e+03 
       9.703415376577e-04       3.896905450016e+03 
       1.047750691338e-03       4.185552170958e+03 
       1.131335172818e-03       4.494162426791e+03 
       1.221587619877e-03       4.823850702669e+03 
       1.319039970550e-03       5.175742735206e+03 
       1.424266598317e-03       5.551019592526e+03 
       1.537887697396e-03       5.950788335877e+03 
       1.660572938097e-03       6.376123046806e+03 
       1.793045413791e-03       6.828073896124e+03 
       1.936085902737e-03       7.307625375387e+03 
       2.090537469909e-03       7.815671860259e+03 
       2.257310435923e-03       8.352990369404e+03 
       2.437387742372e-03       8.920211057545e+03 
       2.631830745176e-03       9.517783061890e+03 
       2.841785470091e-03       1.014593703671e+04 
       3.068489367268e-03       1.080464505736e+04 
       3.313278604643e-03       1.149357459458e+04 
       3.577595943165e-03       1.221203620826e+04 
       3.862999240274e-03       1.295892538505e+04 
       4.171170631739e-03       1.373266002031e+04 
       4.503926445983e-03       1.453111834595e+04 
       4.863227909323e-03       1.535154984225e+04 
       5.251192705226e-03       1.619063613423e+04 
       5.670107455699e-03       1.704431256571e+04 
       6.122441198393e-03       1.790755938466e+04 
       6.610859938837e-03       1.877460416317e+04 
       7.138242363583e-03       1.963872429123e+04 
       7.707696806873e-03       2.049215713549e+04 
       8.322579570814e-03       2.132607230702e+04 
       8.986514707061e-03       2.213055137891e+04 
       9.703415376577e-03       2.289445470873e+04 
       1.047750691338e-02       2.360547637035e+04 
       1.131335172818e-02       2.425023476380e+04 
       1.221587619877e-02       2.481423922001e+04 
       1.319039970550e-02       2.528218634069e+04 
       1.424266598317e-02       2.563814421505e+04 
       1.537887697392e-02       2.586607016639e+04 
       1.660572938023e-02       2.595029226041e+04 
       1.793045412706e-02       2.587634835789e+04 
       1.936085890181e-02       2.563220369252e+04 
       2.090537352463e-02       2.520933186424e+04 
       2.257309535333e-02       2.460445246081e+04 
       2.437382002918e-02       2.382092781300e+04 
       2.631799944462e-02       2.287043210206e+04 
       2.841644545389e-02       2.177450144877e+04 
       3.067933355377e-02       2.056555346116e+04 
       3.311368470740e-02       1.928730650905e+04 
       3.571840443502e-02       1.799399181705e+04 
       3.847720348444e-02       1.674688522617e+04 
       4.135335538431e-02       1.560459183598e+04 
       4.429361667738e-02       1.461037066988e+04 
       4.724366439141e-02       1.378053588851e+04 
       5.016480835311e-02       1.310509628004e+04 
       5.303989620246e-02       1.255713593188e+04 
       5.586870669566e-02       1.210425629029e+04 
       5.866042680613e-02       1.171461991949e+04 
       6.142798932958e-02       1.136049553922e+04 
       6.418496440164e-02       1.101856019184e+04 
       6.694418833788e-02       1.067069699726e+04 
       6.971731106057e-02       1.030354527915e+04 
       7.251476155766e-02       9.909006782712e+03 
       7.534587671527e-02       9.483777351775e+03 
       7.821907666265e-02       9.029494512115e+03 
       8.114203772912e-02       8.552326843020e+03 
       8.412184535029e-02       8.061923826744e+03 
       8.716512279304e-02       7.570782051030e+03 
       9.027813695930e-02       7.092481840008e+03 
       9.346688431697e-02       6.640520818407e+03 
       9.673716028276e-02       6.226709954240e+03 
       1.000946150830e-01       5.859911742875e+03 
       1.035447986537e-01       5.545252286058e+03 
       1.070931966762e-01       5.283134674659e+03 
       1.107452594425e-01       5.069411177273e+03 
       1.145064249153e-01       4.895268193154e+03 
       1.183821370918e-01       4.747859383632e+03 
       1.223778605862e-01       4.611735253822e+03 
       1.264990921987e-01       4.470598529382e+03 
       1.307513701367e-01       4.310253839326e+03 
       1.351402814784e-01       4.121388923898e+03 
       1.396714684203e-01       3.902047681260e+03 
       1.443506338194e-01       3.658664694377e+03 
       1.491835465229e-01       3.404494546221e+03 
       1.541760469708e-01       3.156670632033e+03 
       1.593340535561e-01       2.931981141293e+03 
       1.646635702297e-01       2.742365678656e+03 
       1.701706958456e-01       2.592257018111e+03 
       1.758616357459e-01       2.477237695391e+03 
       1.817427160982e-01       2.385179722842e+03 
       1.878204015065e-01       2.300362996785e+03 
       1.941013164283e-01       2.205765771413e+03 
       2.005922709503e-01       2.090819646180e+03 
       2.073002914972e-01       1.956465093149e+03 
       2.142326570816e-01       1.814193636690e+03 
       2.213969417533e-01       1.679297783434e+03 
       2.288010639706e-01       1.563848167006e+03 
       2.364533437147e-01       1.472688391303e+03 
       2.443625682930e-01       1.401510677666e+03 
       2.525380679504e-01       1.338413026550e+03 
       2.609898026346e-01       1.270902963246e+03 
       2.697284615565e-01       1.193384219408e+03 
       2.787655775689e-01       1.109338128639e+03 
       2.881136588829e-01       1.028769907561e+03 
       2.977863412677e-01       9.604809054666e+02 
       3.077985646929e-01       9.050186421300e+02 
       3.181667794071e-01       8.561436881932e+02 
       3.289091877812e-01       8.061880846503e+02 
       3.400460299658e-01       7.523909066577e+02 
       3.515999236474e-01       6.989237801991e+02 
       3.635962711085e-01       6.510639064644e+02 
       3.760637506334e-01       6.101231467943e+02 
       3.890349143879e-01       5.721313211365e+02 
       4.025469216825e-01       5.337827454861e+02 
       4.166424456376e-01       4.956329570413e+02 
       4.313708035863e-01       4.604685522942e+02 
       4.467893782977e-01       4.287758204983e+02 
       4.629654199664e-01       3.987731947737e+02 
       4.799783501994e-01       3.692425669468e+02 
       4.979227319373e-01       3.412404781961e+02 
       5.169121270864e-01       3.154830348312e+02 
       5.370841404489e-01       2.908350615834e+02 
       5.586070464571e-01       2.671057675472e+02 
       5.816885094930e-01       2.448104960497e+02 
       6.065870144995e-01       2.235679805027e+02 
       6.336266468475e-01       2.032104305412e+02 
       6.632156059511e-01       1.838787050908e+02 
       6.958678639263e-01       1.653546462515e+02 
       7.322247985589e-01       1.476961374754e+02 
       7.730680195114e-01       1.308330456595e+02 
       8.193049553677e-01       1.148315323377e+02 
       8.718988016039e-01       9.976238503902e+01 
       9.317218031082e-01       8.577776402152e+01 
       9.993660908989e-01       7.305466978279e+01 
       1.075037110174e+00       6.173608485805e+01 
       1.158653485707e+00       5.187881890650e+01 
       1.250099157308e+00       4.344021719874e+01 
       1.349432401273e+00       3.628922882231e+01 
       1.456947457397e+00       3.026789866532e+01 
       1.573135111331e+00       2.521457614691e+01 
       1.698621895592e+00       2.098201938305e+01 
       1.834127512934e+00       1.744250728430e+01 
       1.980444934528e+00       1.448563839761e+01 
       2.138435191726e+00       1.201891937364e+01 
       2.309029199186e+00       9.963231785386e+00 
       2.493232377687e+00       8.251813128029e+00 
       2.692130395285e+00       6.828565657496e+00 
       2.906895534573e+00       5.646212189586e+00 
       3.138793597714e+00       4.664886990790e+00 
       3.389191366484e+00       3.851053809864e+00 
       3.659564657905e+00       3.176891594664e+00 
       3.951507022538e+00       2.618835946233e+00 
       4.266739136701e+00       2.157301025458e+00 
       4.607118943941e+00       1.775884454813e+00 
       4.974652605557e+00       1.460936109147e+00 
       5.371506324689e+00       1.201076401137e+00 
       5.800019113685e+00       9.868118559755e-01 
       6.262716579983e+00       8.102792970484e-01 
       6.762325811764e+00       6.649218439387e-01 
       7.301791451110e+00       5.453330037042e-01 
       7.884293049406e+00       4.469933309191e-01 
       8.513263807261e+00       3.661836633349e-01 
       9.192410809424e+00       2.998175703393e-01 
       9.925736873929e+00       2.453437678194e-01 
       1.071756414427e+01       2.006572697364e-01 
       1.157255956364e+01       1.640206321846e-01 
       1.249576238137e+01       1.339988009986e-01 
       1.349261385375e+01       1.094098977529e-01 
       1.456898931416e+01       8.927929214200e-02 
       1.573123280165e+01       7.280549572115e-02 
       1.698619445202e+01       5.933226883078e-02 
       1.834127087176e+01       4.831396827701e-02 
       1.980444873285e+01       3.930875184434e-02 
       2.138435184532e+01       3.195007011588e-02 
       2.309029198506e+01       2.593885524702e-02 
       2.493232377636e+01       2.102883889217e-02 
       2.692130395282e+01       1.701911802475e-02 
       2.906895534573e+01       1.374484222529e-02 
       3.138793597714e+01       1.107123405344e-02 
       3.389191366484e+01       8.887824610607e-03 
       3.659564657905e+01       7.104872851032e-03 
       3.951507022538e+01       5.648919230119e-03 
       4.266739136701e+01       4.460362694086e-03 
       4.607118943941e+01       3.490452866736e-03 
       4.974652605557e+01       2.700332843146e-03 
       5.371506324689e+01       2.057825762551e-03 
       5.800019113685e+01       1.537728412241e-03 
       6.262716579983e+01       1.119532290206e-03 
       6.762325811764e+01       7.869845918765e-04 
