# Matter power spectrum P(k) at redshift z=99
# for k=1.04775e-05 to 67.6233 h/Mpc,
# number of wavenumbers equal to 246
#    1:k (h/Mpc)              2:P (Mpc/h)^3        
       1.047750691338e-05       7.261927673142e-03 
       1.131335172818e-05       7.820331745761e-03 
       1.221587619877e-05       8.421675986515e-03 
       1.319039970550e-05       9.069258192223e-03 
       1.424266598317e-05       9.766638404451e-03 
       1.537887697396e-05       1.051764069685e-02 
       1.660572938097e-05       1.132639105523e-02 
       1.793045413791e-05       1.219733231420e-02 
       1.936085902737e-05       1.313524224385e-02 
       2.090537469909e-05       1.414527121898e-02 
       2.257310435923e-05       1.523296272197e-02 
       2.437387742372e-05       1.640429444535e-02 
       2.631830745176e-05       1.766569582183e-02 
       2.841785470091e-05       1.902408601799e-02 
       3.068489367268e-05       2.048692970598e-02 
       3.313278604643e-05       2.206225513601e-02 
       3.577595943165e-05       2.375870704916e-02 
       3.862999240274e-05       2.558560727487e-02 
       4.171170631739e-05       2.755297763352e-02 
       4.503926445983e-05       2.967161927324e-02 
       4.863227909323e-05       3.195316450842e-02 
       5.251192705226e-05       3.441013519295e-02 
       5.670107455699e-05       3.705601722535e-02 
       6.122441198393e-05       3.990533413575e-02 
       6.610859938837e-05       4.297372168216e-02 
       7.138242363583e-05       4.627802141703e-02 
       7.707696806873e-05       4.983636194174e-02 
       8.322579570814e-05       5.366826847248e-02 
       8.986514707061e-05       5.779476394587e-02 
       9.703415376577e-05       6.223848243904e-02 
       1.047750691338e-04       6.702379865660e-02 
       1.131335172818e-04       7.217695153403e-02 
       1.221587619877e-04       7.772619073597e-02 
       1.319039970550e-04       8.370193432402e-02 
       1.424266598317e-04       9.013692507575e-02 
       1.537887697396e-04       9.706641242600e-02 
       1.660572938097e-04       1.045283354275e-01 
       1.793045413791e-04       1.125635349072e-01 
       1.936085902737e-04       1.212159614972e-01 
       2.090537469909e-04       1.305329132718e-01 
       2.257310435923e-04       1.405652846219e-01 
       2.437387742372e-04       1.513678302545e-01 
       2.631830745176e-04       1.629994504876e-01 
       2.841785470091e-04       1.755234921230e-01 
       3.068489367268e-04       1.890080670419e-01 
       3.313278604643e-04       2.035264002441e-01 
       3.577595943165e-04       2.191571803688e-01 
       3.862999240274e-04       2.359849437599e-01 
       4.171170631739e-04       2.541004741546e-01 
       4.503926445983e-04       2.736012080285e-01 
       4.863227909323e-04       2.945916790973e-01 
       5.251192705226e-04       3.171839525191e-01 
       5.670107455699e-04       3.414980764011e-01 
       6.122441198393e-04       3.676625413110e-01 
       6.610859938837e-04       3.958147252314e-01 
       7.138242363583e-04       4.261013284913e-01 
       7.707696806873e-04       4.586787792365e-01 
       8.322579570814e-04       4.937136001368e-01 
       8.986514707061e-04       5.313826801412e-01 
       9.703415376577e-04       5.718734972168e-01 
       1.047750691338e-03       6.153841629515e-01 
       1.131335172818e-03       6.621233239474e-01 
       1.221587619877e-03       7.123098220430e-01 
       1.319039970550e-03       7.661720584768e-01 
       1.424266598317e-03       8.239546297729e-01 
       1.537887697396e-03       8.859011173465e-01 
       1.660572938097e-03       9.522588006393e-01 
       1.793045413791e-03       1.023280099818e+00 
       1.936085902737e-03       1.099216304576e+00 
       2.090537469909e-03       1.180312990449e+00 
       2.257310435923e-03       1.266804115841e+00 
       2.437387742372e-03       1.358904853397e+00 
       2.631830745176e-03       1.456802683144e+00 
       2.841785470091e-03       1.560646890505e+00 
       3.068489367268e-03       1.670536062477e+00 
       3.313278604643e-03       1.786503852134e+00 
       3.577595943165e-03       1.908502930750e+00 
       3.862999240274e-03       2.036387730660e+00 
       4.171170631739e-03       2.169896178561e+00 
       4.503926445983e-03       2.308631878913e+00 
       4.863227909323e-03       2.452047290859e+00 
       5.251192705226e-03       2.599430627957e+00 
       5.670107455699e-03       2.749896931663e+00 
       6.122441198393e-03       2.902386513178e+00 
       6.610859938837e-03       3.055668706340e+00 
       7.138242363583e-03       3.208356461218e+00 
       7.707696806873e-03       3.358923892689e+00 
       8.322579570814e-03       3.505725594906e+00 
       8.986514707061e-03       3.647009655071e+00 
       9.703415376577e-03       3.780923303487e+00 
       1.047750691338e-02       3.905491333893e+00 
       1.131335172818e-02       4.018588635814e+00 
       1.221587619877e-02       4.117901582973e+00 
       1.319039970550e-02       4.200915388433e+00 
       1.424266598317e-02       4.264942489664e+00 
       1.537887697392e-02       4.307217787227e+00 
       1.660572938023e-02       4.325062862161e+00 
       1.793045412706e-02       4.316057095894e+00 
       1.936085890181e-02       4.278225711706e+00 
       2.090537352463e-02       4.210200868623e+00 
       2.257309535333e-02       4.111420496215e+00 
       2.437382002918e-02       3.982420880835e+00 
       2.631799944462e-02       3.825164618772e+00 
       2.841644545389e-02       3.643277881773e+00 
       3.067933355377e-02       3.442194200266e+00 
       3.311368470740e-02       3.229240945274e+00 
       3.571840443502e-02       3.013507742433e+00 
       3.847720348444e-02       2.805293468408e+00 
       4.135335538431e-02       2.614410862240e+00 
       4.429361667738e-02       2.448136044482e+00 
       4.724366439141e-02       2.309232765996e+00 
       5.016480835311e-02       2.196113403385e+00 
       5.303989620246e-02       2.104364333820e+00 
       5.586870669566e-02       2.028462019652e+00 
       5.866042680613e-02       1.963157881585e+00 
       6.142798932958e-02       1.903783968018e+00 
       6.418496440164e-02       1.846476165842e+00 
       6.694418833788e-02       1.788197347115e+00 
       6.971731106057e-02       1.726717862562e+00 
       7.251476155766e-02       1.660654262722e+00 
       7.534587671527e-02       1.589468299785e+00 
       7.821907666265e-02       1.513436794948e+00 
       8.114203772912e-02       1.433569486176e+00 
       8.412184535029e-02       1.351499530746e+00 
       8.716512279304e-02       1.269272328509e+00 
       9.027813695930e-02       1.189192421089e+00 
       9.346688431697e-02       1.113501291504e+00 
       9.673716028276e-02       1.044173046107e+00 
       1.000946150830e-01       9.827087908428e-01 
       1.035447986537e-01       9.299398373801e-01 
       1.070931966762e-01       8.859593011776e-01 
       1.107452594425e-01       8.500709216506e-01 
       1.145064249153e-01       8.208031127921e-01 
       1.183821370918e-01       7.960240410086e-01 
       1.223778605862e-01       7.731467108958e-01 
       1.264990921987e-01       7.494522844528e-01 
       1.307513701367e-01       7.225572365403e-01 
       1.351402814784e-01       6.909079462804e-01 
       1.396714684203e-01       6.541804578382e-01 
       1.443506338194e-01       6.134279945135e-01 
       1.491835465229e-01       5.708681008439e-01 
       1.541760469708e-01       5.293627532818e-01 
       1.593340535561e-01       4.917093803063e-01 
       1.646635702297e-01       4.599188486178e-01 
       1.701706958456e-01       4.347267654623e-01 
       1.758616357459e-01       4.154063283729e-01 
       1.817427160982e-01       3.999343268300e-01 
       1.878204015065e-01       3.856821526403e-01 
       1.941013164283e-01       3.698087767198e-01 
       2.005922709503e-01       3.505451499269e-01 
       2.073002914972e-01       3.280437698559e-01 
       2.142326570816e-01       3.042126396329e-01 
       2.213969417533e-01       2.816090054721e-01 
       2.288010639706e-01       2.622544472582e-01 
       2.364533437147e-01       2.469592583900e-01 
       2.443625682930e-01       2.350098835033e-01 
       2.525380679504e-01       2.244147305482e-01 
       2.609898026346e-01       2.130910933786e-01 
       2.697284615565e-01       2.000984838548e-01 
       2.787655775689e-01       1.860161345690e-01 
       2.881136588829e-01       1.725128002668e-01 
       2.977863412677e-01       1.610615926444e-01 
       3.077985646929e-01       1.517562210497e-01 
       3.181667794071e-01       1.435548531625e-01 
       3.289091877812e-01       1.351773526093e-01 
       3.400460299658e-01       1.261588945869e-01 
       3.515999236474e-01       1.171961082459e-01 
       3.635962711085e-01       1.091705896856e-01 
       3.760637506334e-01       1.023030250860e-01 
       3.890349143879e-01       9.593115626040e-02 
       4.025469216825e-01       8.950074879263e-02 
       4.166424456376e-01       8.310421896472e-02 
       4.313708035863e-01       7.720788277553e-02 
       4.467893782977e-01       7.189259994760e-02 
       4.629654199664e-01       6.686058085764e-02 
       4.799783501994e-01       6.190848019052e-02 
       4.979227319373e-01       5.721243400575e-02 
       5.169121270864e-01       5.289285522175e-02 
       5.370841404489e-01       4.875905504796e-02 
       5.586070464571e-01       4.477965697910e-02 
       5.816885094930e-01       4.103985648621e-02 
       6.065870144995e-01       3.747710447330e-02 
       6.336266468475e-01       3.406271189002e-02 
       6.632156059511e-01       3.082000772625e-02 
       6.958678639263e-01       2.771276137201e-02 
       7.322247985589e-01       2.475040258918e-02 
       7.730680195114e-01       2.192155313260e-02 
       8.193049553677e-01       1.923657662421e-02 
       8.718988016039e-01       1.670796617186e-02 
       9.317218031082e-01       1.436091596159e-02 
       9.993660908989e-01       1.222503980097e-02 
       1.075037110174e+00       1.032442810372e-02 
       1.158653485707e+00       8.668628209677e-03 
       1.250099157308e+00       7.250302109423e-03 
       1.349432401273e+00       6.047668340264e-03 
       1.456947457397e+00       5.034102444841e-03 
       1.573135111331e+00       4.182526314167e-03 
       1.698621895592e+00       3.468269105393e-03 
       1.834127512934e+00       2.869910466898e-03 
       1.980444934528e+00       2.368928098249e-03 
       2.138435191726e+00       1.949770908384e-03 
       2.309029199186e+00       1.599226496039e-03 
       2.493232377687e+00       1.306133540832e-03 
       2.692130395285e+00       1.061138867337e-03 
       2.906895534573e+00       8.563645645187e-04 
       3.138793597714e+00       6.852635079551e-04 
       3.389191366484e+00       5.423785262401e-04 
       3.659564657905e+00       4.232193883467e-04 
       3.951507022538e+00       3.241156987967e-04 
       4.266739136701e+00       2.421126077086e-04 
       4.607118943941e+00       1.748467373750e-04 
       4.974652605557e+00       1.204848902901e-04 
       5.371506324689e+00       7.760415252828e-05 
       5.800019113685e+00       4.509997646735e-05 
       6.262716579983e+00       2.206111666670e-05 
       6.762325811764e+00       7.636794302244e-06 
       7.301791451110e+00       8.760647361584e-07 
       7.884293049406e+00       5.678383596186e-07 
       8.513263807261e+00       5.112606307196e-06 
       9.192410809424e+00       1.247304064369e-05 
       9.925736873929e+00       2.027401098569e-05 
       1.071756414427e+01       2.610690703686e-05 
       1.157255956364e+01       2.804009648351e-05 
       1.249576238137e+01       2.524337280364e-05 
       1.349261385375e+01       1.846646976586e-05 
       1.456898931416e+01       1.003800267642e-05 
       1.573123280165e+01       3.085936604578e-06 
       1.698619445202e+01       6.212855025716e-08 
       1.834127087176e+01       1.244219125936e-06 
       1.980444873285e+01       4.351566860469e-06 
       2.138435184532e+01       6.054338144648e-06 
       2.309029198506e+01       4.669624023984e-06 
       2.493232377636e+01       1.674740755197e-06 
       2.692130395282e+01       2.651506321357e-08 
       2.906895534573e+01       6.538438322842e-07 
       3.138793597714e+01       1.532175489515e-06 
       3.389191366484e+01       9.674691607021e-07 
       3.659564657905e+01       7.019797864732e-08 
       3.951507022538e+01       1.812072909774e-07 
       4.266739136701e+01       4.023559771767e-07 
       4.607118943941e+01       8.923337122812e-08 
       4.974652605557e+01       3.313412350201e-08 
       5.371506324689e+01       1.055996454382e-07 
       5.800019113685e+01       5.579268751863e-09 
       6.262716579983e+01       2.663376815181e-08 
       6.762325811764e+01       8.623758346620e-09 
