# Matter power spectrum P(k) at redshift z=0
# for k=1.04775e-05 to 67.6233 h/Mpc,
# number of wavenumbers equal to 246
#    1:k (h/Mpc)              2:P (Mpc/h)^3        
       1.047750691338e-05       5.020964806750e+01 
       1.131335172818e-05       5.407048206553e+01 
       1.221587619877e-05       5.822819063968e+01 
       1.319039970550e-05       6.270562589678e+01 
       1.424266598317e-05       6.752731788102e+01 
       1.537887697396e-05       7.271977200258e+01 
       1.660572938097e-05       7.831147241541e+01 
       1.793045413791e-05       8.433311815128e+01 
       1.936085902737e-05       9.081778242446e+01 
       2.090537469909e-05       9.780108061340e+01 
       2.257310435923e-05       1.053213197032e+02 
       2.437387742372e-05       1.134197377001e+02 
       2.631830745176e-05       1.221408202816e+02 
       2.841785470091e-05       1.315324720916e+02 
       3.068489367268e-05       1.416462093730e+02 
       3.313278604643e-05       1.525374500691e+02 
       3.577595943165e-05       1.642660687078e+02 
       3.862999240274e-05       1.768963504868e+02 
       4.171170631739e-05       1.904975992460e+02 
       4.503926445983e-05       2.051444490305e+02 
       4.863227909323e-05       2.209171463752e+02 
       5.251192705226e-05       2.379022222314e+02 
       5.670107455699e-05       2.561927925513e+02 
       6.122441198393e-05       2.758890441791e+02 
       6.610859938837e-05       2.970989225466e+02 
       7.138242363583e-05       3.199385558200e+02 
       7.707696806873e-05       3.445329780878e+02 
       8.322579570814e-05       3.710167315928e+02 
       8.986514707061e-05       3.995346440954e+02 
       9.703415376577e-05       4.302425403884e+02 
       1.047750691338e-04       4.633080762974e+02 
       1.131335172818e-04       4.989116267507e+02 
       1.221587619877e-04       5.372471946561e+02 
       1.319039970550e-04       5.785234124635e+02 
       1.424266598317e-04       6.229645930980e+02 
       1.537887697396e-04       6.708118484951e+02 
       1.660572938097e-04       7.223242660220e+02 
       1.793045413791e-04       7.777801554409e+02 
       1.936085902737e-04       8.374783607333e+02 
       2.090537469909e-04       9.017396264495e+02 
       2.257310435923e-04       9.709080260152e+02 
       2.437387742372e-04       1.045352448644e+03 
       2.631830745176e-04       1.125468122835e+03 
       2.841785470091e-04       1.211678179511e+03 
       3.068489367268e-04       1.304435249091e+03 
       3.313278604643e-04       1.404223052541e+03 
       3.577595943165e-04       1.511558013390e+03 
       3.862999240274e-04       1.626990836403e+03 
       4.171170631739e-04       1.751108027370e+03 
       4.503926445983e-04       1.884533381345e+03 
       4.863227909323e-04       2.027929376470e+03 
       5.251192705226e-04       2.181998446367e+03 
       5.670107455699e-04       2.347484100857e+03 
       6.122441198393e-04       2.525171869337e+03 
       6.610859938837e-04       2.715889981401e+03 
       7.138242363583e-04       2.920509686089e+03 
       7.707696806873e-04       3.139945097711e+03 
       8.322579570814e-04       3.375152334397e+03 
       8.986514707061e-04       3.627127828231e+03 
       9.703415376577e-04       3.896905450016e+03 
       1.047750691338e-03       4.185552170956e+03 
       1.131335172818e-03       4.494162426791e+03 
       1.221587619877e-03       4.823850702666e+03 
       1.319039970550e-03       5.175742735530e+03 
       1.424266598317e-03       5.551019592520e+03 
       1.537887697396e-03       5.950788335884e+03 
       1.660572938097e-03       6.376123046809e+03 
       1.793045413791e-03       6.828073896112e+03 
       1.936085902737e-03       7.307625375386e+03 
       2.090537469909e-03       7.815671898326e+03 
       2.257310435923e-03       8.352990369403e+03 
       2.437387742372e-03       8.920211057543e+03 
       2.631830745176e-03       9.517783061890e+03 
       2.841785470091e-03       1.014593703671e+04 
       3.068489367268e-03       1.080464505748e+04 
       3.313278604643e-03       1.149357459450e+04 
       3.577595943165e-03       1.221203620826e+04 
       3.862999240274e-03       1.295892538505e+04 
       4.171170631739e-03       1.373266002409e+04 
       4.503926445983e-03       1.453111834595e+04 
       4.863227909323e-03       1.535154984227e+04 
       5.251192705226e-03       1.619063613436e+04 
       5.670107455699e-03       1.704431256602e+04 
       6.122441198393e-03       1.790755938459e+04 
       6.610859938837e-03       1.877460409663e+04 
       7.138242363583e-03       1.963872429095e+04 
       7.707696806873e-03       2.049215713295e+04 
       8.322579570814e-03       2.132607230522e+04 
       8.986514707061e-03       2.213054583928e+04 
       9.703415376577e-03       2.289445470786e+04 
       1.047750691338e-02       2.360547927428e+04 
       1.131335172818e-02       2.425023101894e+04 
       1.221587619877e-02       2.481423920981e+04 
       1.319039970550e-02       2.528218677277e+04 
       1.424266598317e-02       2.563812851821e+04 
       1.537887697392e-02       2.586605466841e+04 
       1.660572938023e-02       2.595027612166e+04 
       1.793045412706e-02       2.587635499984e+04 
       1.936085890181e-02       2.563221803717e+04 
       2.090537352463e-02       2.520936463679e+04 
       2.257309535333e-02       2.460445316931e+04 
       2.437382002918e-02       2.382085299702e+04 
       2.631799944462e-02       2.287045348413e+04 
       2.841644545389e-02       2.177451638156e+04 
       3.067933355377e-02       2.056554630878e+04 
       3.311368470740e-02       1.928728948522e+04 
       3.571840443502e-02       1.799402770696e+04 
       3.847720348444e-02       1.674679585582e+04 
       4.135335538431e-02       1.560453474155e+04 
       4.429361667738e-02       1.461033304246e+04 
       4.724366439141e-02       1.378052118844e+04 
       5.016480835311e-02       1.310509497627e+04 
       5.303989620246e-02       1.255717353659e+04 
       5.586870669566e-02       1.210424472333e+04 
       5.866042680613e-02       1.171465265472e+04 
       6.142798932958e-02       1.136047628293e+04 
       6.418496440164e-02       1.101855819867e+04 
       6.694418833788e-02       1.067068110019e+04 
       6.971731106057e-02       1.030358377997e+04 
       7.251476155766e-02       9.909002906514e+03 
       7.534587671527e-02       9.483783432209e+03 
       7.821907666265e-02       9.029484559133e+03 
       8.114203772912e-02       8.552299640818e+03 
       8.412184535029e-02       8.061962434308e+03 
       8.716512279304e-02       7.570783030097e+03 
       9.027813695930e-02       7.092516456973e+03 
       9.346688431697e-02       6.640516718962e+03 
       9.673716028276e-02       6.226714865134e+03 
       1.000946150830e-01       5.859941973852e+03 
       1.035447986537e-01       5.545244085218e+03 
       1.070931966762e-01       5.283131379703e+03 
       1.107452594425e-01       5.069427584170e+03 
       1.145064249153e-01       4.895250460054e+03 
       1.183821370918e-01       4.747841550858e+03 
       1.223778605862e-01       4.611734684547e+03 
       1.264990921987e-01       4.470636819670e+03 
       1.307513701367e-01       4.310279658578e+03 
       1.351402814784e-01       4.121401342442e+03 
       1.396714684203e-01       3.902070397932e+03 
       1.443506338194e-01       3.658638428022e+03 
       1.491835465229e-01       3.404483334840e+03 
       1.541760469708e-01       3.156669166729e+03 
       1.593340535561e-01       2.931978683295e+03 
       1.646635702297e-01       2.742367386982e+03 
       1.701706958456e-01       2.592259804099e+03 
       1.758616357459e-01       2.477239593783e+03 
       1.817427160982e-01       2.385181934109e+03 
       1.878204015065e-01       2.300358576987e+03 
       1.941013164283e-01       2.205758553421e+03 
       2.005922709503e-01       2.090812198558e+03 
       2.073002914972e-01       1.956471205233e+03 
       2.142326570816e-01       1.814198669883e+03 
       2.213969417533e-01       1.679295525499e+03 
       2.288010639706e-01       1.563852193476e+03 
       2.364533437147e-01       1.472685669943e+03 
       2.443625682930e-01       1.401513046736e+03 
       2.525380679504e-01       1.338411918594e+03 
       2.609898026346e-01       1.270901222089e+03 
       2.697284615565e-01       1.193388072311e+03 
       2.787655775689e-01       1.109338332815e+03 
       2.881136588829e-01       1.028769168274e+03 
       2.977863412677e-01       9.604835196064e+02 
       3.077985646929e-01       9.050262660006e+02 
       3.181667794071e-01       8.561461548276e+02 
       3.289091877812e-01       8.061882506425e+02 
       3.400460299658e-01       7.523895177252e+02 
       3.515999236474e-01       6.989257003286e+02 
       3.635962711085e-01       6.510639347338e+02 
       3.760637506334e-01       6.101255415523e+02 
       3.890349143879e-01       5.721325143156e+02 
       4.025469216825e-01       5.337825082479e+02 
       4.166424456376e-01       4.956322153977e+02 
       4.313708035863e-01       4.604681705857e+02 
       4.467893782977e-01       4.287783724098e+02 
       4.629654199664e-01       3.987731457698e+02 
       4.799783501994e-01       3.692420281667e+02 
       4.979227319373e-01       3.412403795346e+02 
       5.169121270864e-01       3.154832385720e+02 
       5.370841404489e-01       2.908360644137e+02 
       5.586070464571e-01       2.671065857991e+02 
       5.816885094930e-01       2.448096869364e+02 
       6.065870144995e-01       2.235681861298e+02 
       6.336266468475e-01       2.032109966267e+02 
       6.632156059511e-01       1.838791142406e+02 
       6.958678639263e-01       1.653549185076e+02 
       7.322247985589e-01       1.476959656293e+02 
       7.730680195114e-01       1.308336989459e+02 
       8.193049553677e-01       1.148314456029e+02 
       8.718988016039e-01       9.976277196834e+01 
       9.317218031082e-01       8.577842028213e+01 
       9.993660908989e-01       7.305513460788e+01 
       1.075037110174e+00       6.173616374684e+01 
       1.158653485707e+00       5.187946306356e+01 
       1.250099157308e+00       4.344033805983e+01 
       1.349432401273e+00       3.628952438521e+01 
       1.456947457397e+00       3.026820203146e+01 
       1.573135111331e+00       2.521472140302e+01 
       1.698621895592e+00       2.098212044580e+01 
       1.834127512934e+00       1.744244192409e+01 
       1.980444934528e+00       1.448575646550e+01 
       2.138435191726e+00       1.201903582243e+01 
       2.309029199186e+00       9.963240322647e+00 
       2.493232377687e+00       8.251842473698e+00 
       2.692130395285e+00       6.828645951847e+00 
       2.906895534573e+00       5.646270291089e+00 
       3.138793597714e+00       4.664912936641e+00 
       3.389191366484e+00       3.851119461374e+00 
       3.659564657905e+00       3.176964592893e+00 
       3.951507022538e+00       2.618884333314e+00 
       4.266739136701e+00       2.157358070506e+00 
       4.607118943941e+00       1.775940482857e+00 
       4.974652605557e+00       1.460988380424e+00 
       5.371506324689e+00       1.201128469723e+00 
       5.800019113685e+00       9.868836627166e-01 
       6.262716579983e+00       8.103527997044e-01 
       6.762325811764e+00       6.650093602875e-01 
       7.301791451110e+00       5.454270198616e-01 
       7.884293049406e+00       4.470963801189e-01 
       8.513263807261e+00       3.662993262389e-01 
       9.192410809424e+00       2.999411630175e-01 
       9.925736873929e+00       2.454805499191e-01 
       1.071756414427e+01       2.008090429990e-01 
       1.157255956364e+01       1.641843088882e-01 
       1.249576238137e+01       1.341764690649e-01 
       1.349261385375e+01       1.096028965123e-01 
       1.456898931416e+01       8.948891919663e-02 
       1.573123280165e+01       7.303370049084e-02 
       1.698619445202e+01       5.957835897246e-02 
       1.834127087176e+01       4.858094726826e-02 
       1.980444873285e+01       3.959711851556e-02 
       2.138435184532e+01       3.226121892377e-02 
       2.309029198506e+01       2.627361214227e-02 
       2.493232377636e+01       2.138838935517e-02 
       2.692130395282e+01       1.740480012648e-02 
       2.906895534573e+01       1.415749624728e-02 
       3.138793597714e+01       1.151132531474e-02 
       3.389191366484e+01       9.356090345677e-03 
       3.659564657905e+01       7.601228092787e-03 
       3.951507022538e+01       6.173059685363e-03 
       4.266739136701e+01       5.011151135710e-03 
       4.607118943941e+01       4.066207078697e-03 
       4.974652605557e+01       3.298017128738e-03 
       5.371506324689e+01       2.673723193205e-03 
       5.800019113685e+01       2.166562611265e-03 
       6.262716579983e+01       1.754765368629e-03 
       6.762325811764e+01       1.420466685301e-03 
