# Matter power spectrum P(k) at redshift z=99
# for k=1.04775e-05 to 67.6233 h/Mpc,
# number of wavenumbers equal to 246
#    1:k (h/Mpc)              2:P (Mpc/h)^3        
       1.047750691338e-05       7.261927673119e-03 
       1.131335172818e-05       7.820331745737e-03 
       1.221587619877e-05       8.421675986488e-03 
       1.319039970550e-05       9.069258192194e-03 
       1.424266598317e-05       9.766638404421e-03 
       1.537887697396e-05       1.051764069682e-02 
       1.660572938097e-05       1.132639105520e-02 
       1.793045413791e-05       1.219733231416e-02 
       1.936085902737e-05       1.313524224380e-02 
       2.090537469909e-05       1.414527121893e-02 
       2.257310435923e-05       1.523296272192e-02 
       2.437387742372e-05       1.640429444530e-02 
       2.631830745176e-05       1.766569582177e-02 
       2.841785470091e-05       1.902408601793e-02 
       3.068489367268e-05       2.048692970591e-02 
       3.313278604643e-05       2.206225513594e-02 
       3.577595943165e-05       2.375870704909e-02 
       3.862999240274e-05       2.558560727479e-02 
       4.171170631739e-05       2.755297763344e-02 
       4.503926445983e-05       2.967161927314e-02 
       4.863227909323e-05       3.195316450832e-02 
       5.251192705226e-05       3.441013519284e-02 
       5.670107455699e-05       3.705601722526e-02 
       6.122441198393e-05       3.990533413562e-02 
       6.610859938837e-05       4.297372168203e-02 
       7.138242363583e-05       4.627802141688e-02 
       7.707696806873e-05       4.983636194159e-02 
       8.322579570814e-05       5.366826847231e-02 
       8.986514707061e-05       5.779476394568e-02 
       9.703415376577e-05       6.223848243885e-02 
       1.047750691338e-04       6.702379865640e-02 
       1.131335172818e-04       7.217695153381e-02 
       1.221587619877e-04       7.772619073573e-02 
       1.319039970550e-04       8.370193432375e-02 
       1.424266598317e-04       9.013692507546e-02 
       1.537887697396e-04       9.706641242570e-02 
       1.660572938097e-04       1.045283354271e-01 
       1.793045413791e-04       1.125635349068e-01 
       1.936085902737e-04       1.212159614968e-01 
       2.090537469909e-04       1.305329132714e-01 
       2.257310435923e-04       1.405652846215e-01 
       2.437387742372e-04       1.513678302540e-01 
       2.631830745176e-04       1.629994504870e-01 
       2.841785470091e-04       1.755234921224e-01 
       3.068489367268e-04       1.890080670413e-01 
       3.313278604643e-04       2.035264002435e-01 
       3.577595943165e-04       2.191571803681e-01 
       3.862999240274e-04       2.359849437592e-01 
       4.171170631739e-04       2.541004741539e-01 
       4.503926445983e-04       2.736012080277e-01 
       4.863227909323e-04       2.945916790965e-01 
       5.251192705226e-04       3.171839525183e-01 
       5.670107455699e-04       3.414980764002e-01 
       6.122441198393e-04       3.676625413100e-01 
       6.610859938837e-04       3.958147252303e-01 
       7.138242363583e-04       4.261013284920e-01 
       7.707696806873e-04       4.586787792354e-01 
       8.322579570814e-04       4.937136001342e-01 
       8.986514707061e-04       5.313826801401e-01 
       9.703415376577e-04       5.718734972157e-01 
       1.047750691338e-03       6.153841629505e-01 
       1.131335172818e-03       6.621233239466e-01 
       1.221587619877e-03       7.123098220425e-01 
       1.319039970550e-03       7.661720584636e-01 
       1.424266598317e-03       8.239546297728e-01 
       1.537887697396e-03       8.859011173467e-01 
       1.660572938097e-03       9.522588006419e-01 
       1.793045413791e-03       1.023280099819e+00 
       1.936085902737e-03       1.099216304579e+00 
       2.090537469909e-03       1.180312990453e+00 
       2.257310435923e-03       1.266804115852e+00 
       2.437387742372e-03       1.358904853407e+00 
       2.631830745176e-03       1.456802683156e+00 
       2.841785470091e-03       1.560646890522e+00 
       3.068489367268e-03       1.670536062499e+00 
       3.313278604643e-03       1.786503852161e+00 
       3.577595943165e-03       1.908502930789e+00 
       3.862999240274e-03       2.036387730709e+00 
       4.171170631739e-03       2.169896178466e+00 
       4.503926445983e-03       2.308631878994e+00 
       4.863227909323e-03       2.452047290962e+00 
       5.251192705226e-03       2.599430628088e+00 
       5.670107455699e-03       2.749896931782e+00 
       6.122441198393e-03       2.902386513386e+00 
       6.610859938837e-03       3.055668706112e+00 
       7.138242363583e-03       3.208356461543e+00 
       7.707696806873e-03       3.358923892657e+00 
       8.322579570814e-03       3.505725595297e+00 
       8.986514707061e-03       3.647009869291e+00 
       9.703415376577e-03       3.780923304292e+00 
       1.047750691338e-02       3.905491258197e+00 
       1.131335172818e-02       4.018588039083e+00 
       1.221587619877e-02       4.117901582769e+00 
       1.319039970550e-02       4.200915344869e+00 
       1.424266598317e-02       4.264942453089e+00 
       1.537887697392e-02       4.307216688371e+00 
       1.660572938023e-02       4.325059710741e+00 
       1.793045412706e-02       4.316061921210e+00 
       1.936085890181e-02       4.278230759567e+00 
       2.090537352463e-02       4.210204286211e+00 
       2.257309535333e-02       4.111420985227e+00 
       2.437382002918e-02       3.982429190798e+00 
       2.631799944462e-02       3.825170850011e+00 
       2.841644545389e-02       3.643284404065e+00 
       3.067933355377e-02       3.442199048828e+00 
       3.311368470740e-02       3.229239782838e+00 
       3.571840443502e-02       3.013507270845e+00 
       3.847720348444e-02       2.805294013191e+00 
       4.135335538431e-02       2.614409845620e+00 
       4.429361667738e-02       2.448139258907e+00 
       4.724366439141e-02       2.309234393091e+00 
       5.016480835311e-02       2.196115864163e+00 
       5.303989620246e-02       2.104368478414e+00 
       5.586870669566e-02       2.028464421103e+00 
       5.866042680613e-02       1.963152299029e+00 
       6.142798932958e-02       1.903784764971e+00 
       6.418496440164e-02       1.846481434922e+00 
       6.694418833788e-02       1.788198518195e+00 
       6.971731106057e-02       1.726716173379e+00 
       7.251476155766e-02       1.660651912009e+00 
       7.534587671527e-02       1.589474160662e+00 
       7.821907666265e-02       1.513438854800e+00 
       8.114203772912e-02       1.433571918187e+00 
       8.412184535029e-02       1.351496215120e+00 
       8.716512279304e-02       1.269276959613e+00 
       9.027813695930e-02       1.189192558953e+00 
       9.346688431697e-02       1.113502584007e+00 
       9.673716028276e-02       1.044175046474e+00 
       1.000946150830e-01       9.827053291272e-01 
       1.035447986537e-01       9.299372056354e-01 
       1.070931966762e-01       8.859592966990e-01 
       1.107452594425e-01       8.500705633571e-01 
       1.145064249153e-01       8.208058333090e-01 
       1.183821370918e-01       7.960261068257e-01 
       1.223778605862e-01       7.731452371606e-01 
       1.264990921987e-01       7.494516922435e-01 
       1.307513701367e-01       7.225588638050e-01 
       1.351402814784e-01       6.909071653686e-01 
       1.396714684203e-01       6.541812771731e-01 
       1.443506338194e-01       6.134257804104e-01 
       1.491835465229e-01       5.708682048669e-01 
       1.541760469708e-01       5.293652678805e-01 
       1.593340535561e-01       4.917111212454e-01 
       1.646635702297e-01       4.599210549394e-01 
       1.701706958456e-01       4.347286204454e-01 
       1.758616357459e-01       4.154081038822e-01 
       1.817427160982e-01       3.999373945877e-01 
       1.878204015065e-01       3.856827972069e-01 
       1.941013164283e-01       3.698099574342e-01 
       2.005922709503e-01       3.505459228870e-01 
       2.073002914972e-01       3.280425073229e-01 
       2.142326570816e-01       3.042135137896e-01 
       2.213969417533e-01       2.816116262347e-01 
       2.288010639706e-01       2.622570330945e-01 
       2.364533437147e-01       2.469619831552e-01 
       2.443625682930e-01       2.350128068143e-01 
       2.525380679504e-01       2.244174875061e-01 
       2.609898026346e-01       2.130936699535e-01 
       2.697284615565e-01       2.001017950074e-01 
       2.787655775689e-01       1.860203078903e-01 
       2.881136588829e-01       1.725174974200e-01 
       2.977863412677e-01       1.610663329399e-01 
       3.077985646929e-01       1.517608312948e-01 
       3.181667794071e-01       1.435592304167e-01 
       3.289091877812e-01       1.351817519189e-01 
       3.400460299658e-01       1.261646365836e-01 
       3.515999236474e-01       1.172020594439e-01 
       3.635962711085e-01       1.091769053168e-01 
       3.760637506334e-01       1.023095862729e-01 
       3.890349143879e-01       9.593778999183e-02 
       4.025469216825e-01       8.950760812137e-02 
       4.166424456376e-01       8.311196226898e-02 
       4.313708035863e-01       7.721551806261e-02 
       4.467893782977e-01       7.190034036225e-02 
       4.629654199664e-01       6.686885557338e-02 
       4.799783501994e-01       6.191758533549e-02 
       4.979227319373e-01       5.722233588187e-02 
       5.169121270864e-01       5.290289060863e-02 
       5.370841404489e-01       4.876991307595e-02 
       5.586070464571e-01       4.479087926118e-02 
       5.816885094930e-01       4.105193274548e-02 
       6.065870144995e-01       3.748986084742e-02 
       6.336266468475e-01       3.407632952229e-02 
       6.632156059511e-01       3.083460253277e-02 
       6.958678639263e-01       2.772836085573e-02 
       7.322247985589e-01       2.476712057951e-02 
       7.730680195114e-01       2.193960880247e-02 
       8.193049553677e-01       1.925614500512e-02 
       8.718988016039e-01       1.672926584050e-02 
       9.317218031082e-01       1.438425134995e-02 
       9.993660908989e-01       1.225066634285e-02 
       1.075037110174e+00       1.035262986704e-02 
       1.158653485707e+00       8.699755673245e-03 
       1.250099157308e+00       7.284616221916e-03 
       1.349432401273e+00       6.085474759419e-03 
       1.456947457397e+00       5.075719318321e-03 
       1.573135111331e+00       4.228317786837e-03 
       1.698621895592e+00       3.518556046402e-03 
       1.834127512934e+00       2.924993564913e-03 
       1.980444934528e+00       2.429172984422e-03 
       2.138435191726e+00       2.015515798665e-03 
       2.309029199186e+00       1.670778884254e-03 
       2.493232377687e+00       1.383802848890e-03 
       2.692130395285e+00       1.145129427779e-03 
       2.906895534573e+00       9.468565826523e-04 
       3.138793597714e+00       7.822926905911e-04 
       3.389191366484e+00       6.458220240808e-04 
       3.659564657905e+00       5.327708213633e-04 
       3.951507022538e+00       4.391863876234e-04 
       4.266739136701e+00       3.617897137960e-04 
       4.607118943941e+00       2.978289413753e-04 
       4.974652605557e+00       2.450158177776e-04 
       5.371506324689e+00       2.014376670486e-04 
       5.800019113685e+00       1.655063719200e-04 
       6.262716579983e+00       1.359034473460e-04 
       6.762325811764e+00       1.115296476611e-04 
       7.301791451110e+00       9.147607229739e-05 
       7.884293049406e+00       7.498580110188e-05 
       8.513263807261e+00       6.143612653511e-05 
       9.192410809424e+00       5.030834483870e-05 
       9.925736873929e+00       4.117522184711e-05 
       1.071756414427e+01       3.368336469103e-05 
       1.157255956364e+01       2.754153862172e-05 
       1.249576238137e+01       2.250887089887e-05 
       1.349261385375e+01       1.838765356695e-05 
       1.456898931416e+01       1.501426752338e-05 
       1.573123280165e+01       1.225455075473e-05 
       1.698619445202e+01       9.997655161958e-06 
       1.834127087176e+01       8.153115494408e-06 
       1.980444873285e+01       6.646211469207e-06 
       2.138435184532e+01       5.415740897127e-06 
       2.309029198506e+01       4.411361678833e-06 
       2.493232377636e+01       3.591865297178e-06 
       2.692130395282e+01       2.923566738246e-06 
       2.906895534573e+01       2.378734641914e-06 
       3.138793597714e+01       1.934773498609e-06 
       3.389191366484e+01       1.573102314818e-06 
       3.659564657905e+01       1.278623403919e-06 
       3.951507022538e+01       1.038914733586e-06 
       4.266739136701e+01       8.438672521530e-07 
       4.607118943941e+01       6.852130108343e-07 
       4.974652605557e+01       5.562109857081e-07 
       5.371506324689e+01       4.513385076819e-07 
       5.800019113685e+01       3.661290400665e-07 
       6.262716579983e+01       2.969148180863e-07 
       6.762325811764e+01       2.407057356657e-07 
