# Matter power spectrum P(k) at redshift z=0
# for k=1.04775e-05 to 67.6233 h/Mpc,
# number of wavenumbers equal to 246
#    1:k (h/Mpc)              2:P (Mpc/h)^3        
       1.047750691338e-05       5.020964806751e+01 
       1.131335172818e-05       5.407048206554e+01 
       1.221587619877e-05       5.822819063855e+01 
       1.319039970550e-05       6.270562589681e+01 
       1.424266598317e-05       6.752731788102e+01 
       1.537887697396e-05       7.271977200257e+01 
       1.660572938097e-05       7.831147241542e+01 
       1.793045413791e-05       8.433311815128e+01 
       1.936085902737e-05       9.081778242446e+01 
       2.090537469909e-05       9.780108061340e+01 
       2.257310435923e-05       1.053213197032e+02 
       2.437387742372e-05       1.134197377001e+02 
       2.631830745176e-05       1.221408202816e+02 
       2.841785470091e-05       1.315324720916e+02 
       3.068489367268e-05       1.416462093729e+02 
       3.313278604643e-05       1.525374500691e+02 
       3.577595943165e-05       1.642660687078e+02 
       3.862999240274e-05       1.768963504868e+02 
       4.171170631739e-05       1.904975992460e+02 
       4.503926445983e-05       2.051444490305e+02 
       4.863227909323e-05       2.209171463752e+02 
       5.251192705226e-05       2.379022222314e+02 
       5.670107455699e-05       2.561927925505e+02 
       6.122441198393e-05       2.758890441791e+02 
       6.610859938837e-05       2.970989225465e+02 
       7.138242363583e-05       3.199385558200e+02 
       7.707696806873e-05       3.445329780878e+02 
       8.322579570814e-05       3.710167315928e+02 
       8.986514707061e-05       3.995346440953e+02 
       9.703415376577e-05       4.302425403883e+02 
       1.047750691338e-04       4.633080762974e+02 
       1.131335172818e-04       4.989116267507e+02 
       1.221587619877e-04       5.372471946560e+02 
       1.319039970550e-04       5.785234124630e+02 
       1.424266598317e-04       6.229645930979e+02 
       1.537887697396e-04       6.708118484950e+02 
       1.660572938097e-04       7.223242660218e+02 
       1.793045413791e-04       7.777801552976e+02 
       1.936085902737e-04       8.374783607331e+02 
       2.090537469909e-04       9.017396264493e+02 
       2.257310435923e-04       9.709080260148e+02 
       2.437387742372e-04       1.045352448643e+03 
       2.631830745176e-04       1.125468122835e+03 
       2.841785470091e-04       1.211678179510e+03 
       3.068489367268e-04       1.304435249090e+03 
       3.313278604643e-04       1.404223052540e+03 
       3.577595943165e-04       1.511558013388e+03 
       3.862999240274e-04       1.626990836504e+03 
       4.171170631739e-04       1.751108027368e+03 
       4.503926445983e-04       1.884533381342e+03 
       4.863227909323e-04       2.027929376467e+03 
       5.251192705226e-04       2.181998446363e+03 
       5.670107455699e-04       2.347484100852e+03 
       6.122441198393e-04       2.525171869330e+03 
       6.610859938837e-04       2.715889981392e+03 
       7.138242363583e-04       2.920509686072e+03 
       7.707696806873e-04       3.139945097697e+03 
       8.322579570814e-04       3.375152334380e+03 
       8.986514707061e-04       3.627127828209e+03 
       9.703415376577e-04       3.896905449989e+03 
       1.047750691338e-03       4.185552170920e+03 
       1.131335172818e-03       4.494162426748e+03 
       1.221587619877e-03       4.823850702612e+03 
       1.319039970550e-03       5.175742738530e+03 
       1.424266598317e-03       5.551019592442e+03 
       1.537887697396e-03       5.950788335761e+03 
       1.660572938097e-03       6.376123046688e+03 
       1.793045413791e-03       6.828073895939e+03 
       1.936085902737e-03       7.307625375150e+03 
       2.090537469909e-03       7.815671864042e+03 
       2.257310435923e-03       8.352990368999e+03 
       2.437387742372e-03       8.920211057055e+03 
       2.631830745176e-03       9.517783061263e+03 
       2.841785470091e-03       1.014593703592e+04 
       3.068489367268e-03       1.080464505640e+04 
       3.313278604643e-03       1.149357459357e+04 
       3.577595943165e-03       1.221203620665e+04 
       3.862999240274e-03       1.295892538303e+04 
       4.171170631739e-03       1.373266002019e+04 
       4.503926445983e-03       1.453111834275e+04 
       4.863227909323e-03       1.535154972756e+04 
       5.251192705226e-03       1.619063545131e+04 
       5.670107455699e-03       1.704431252455e+04 
       6.122441198393e-03       1.790755977200e+04 
       6.610859938837e-03       1.877460429906e+04 
       7.138242363583e-03       1.963872546438e+04 
       7.707696806873e-03       2.049215698029e+04 
       8.322579570814e-03       2.132611345278e+04 
       8.986514707061e-03       2.213055718375e+04 
       9.703415376577e-03       2.289445718785e+04 
       1.047750691338e-02       2.360548335439e+04 
       1.131335172818e-02       2.425021382854e+04 
       1.221587619877e-02       2.481423464025e+04 
       1.319039970550e-02       2.528219697294e+04 
       1.424266598317e-02       2.563814759865e+04 
       1.537887697392e-02       2.586610448658e+04 
       1.660572938023e-02       2.595036484162e+04 
       1.793045412706e-02       2.587644221301e+04 
       1.936085890181e-02       2.563217759226e+04 
       2.090537352463e-02       2.520930593245e+04 
       2.257309535333e-02       2.460441241861e+04 
       2.437382002918e-02       2.382083285915e+04 
       2.631799944462e-02       2.287041742998e+04 
       2.841644545389e-02       2.177438540422e+04 
       3.067933355377e-02       2.056544792897e+04 
       3.311368470740e-02       1.928720160304e+04 
       3.571840443502e-02       1.799391259773e+04 
       3.847720348444e-02       1.674673934336e+04 
       4.135335538431e-02       1.560461226423e+04 
       4.429361667738e-02       1.461028680215e+04 
       4.724366439141e-02       1.378045586280e+04 
       5.016480835311e-02       1.310502293319e+04 
       5.303989620246e-02       1.255712428286e+04 
       5.586870669566e-02       1.210426693055e+04 
       5.866042680613e-02       1.171467037394e+04 
       6.142798932958e-02       1.136018426068e+04 
       6.418496440164e-02       1.101860706462e+04 
       6.694418833788e-02       1.067068110572e+04 
       6.971731106057e-02       1.030367082298e+04 
       7.251476155766e-02       9.909041167931e+03 
       7.534587671527e-02       9.483622661786e+03 
       7.821907666265e-02       9.029336045477e+03 
       8.114203772912e-02       8.552147077566e+03 
       8.412184535029e-02       8.061930253382e+03 
       8.716512279304e-02       7.570777666662e+03 
       9.027813695930e-02       7.092474473376e+03 
       9.346688431697e-02       6.640522503450e+03 
       9.673716028276e-02       6.226718277900e+03 
       1.000946150830e-01       5.859937540840e+03 
       1.035447986537e-01       5.545259005020e+03 
       1.070931966762e-01       5.283153717397e+03 
       1.107452594425e-01       5.069454794757e+03 
       1.145064249153e-01       4.895264177937e+03 
       1.183821370918e-01       4.747840275201e+03 
       1.223778605862e-01       4.611722859628e+03 
       1.264990921987e-01       4.470604521100e+03 
       1.307513701367e-01       4.310281918469e+03 
       1.351402814784e-01       4.121397798706e+03 
       1.396714684203e-01       3.902052772889e+03 
       1.443506338194e-01       3.658652602046e+03 
       1.491835465229e-01       3.404466936153e+03 
       1.541760469708e-01       3.156639252161e+03 
       1.593340535561e-01       2.931927257432e+03 
       1.646635702297e-01       2.742356297003e+03 
       1.701706958456e-01       2.592237495227e+03 
       1.758616357459e-01       2.477211781871e+03 
       1.817427160982e-01       2.385161800421e+03 
       1.878204015065e-01       2.300345974017e+03 
       1.941013164283e-01       2.205772312143e+03 
       2.005922709503e-01       2.090840352583e+03 
       2.073002914972e-01       1.956458555994e+03 
       2.142326570816e-01       1.814166620555e+03 
       2.213969417533e-01       1.679266224460e+03 
       2.288010639706e-01       1.563843081289e+03 
       2.364533437147e-01       1.472665700685e+03 
       2.443625682930e-01       1.401510740696e+03 
       2.525380679504e-01       1.338415992768e+03 
       2.609898026346e-01       1.270894465409e+03 
       2.697284615565e-01       1.193353032159e+03 
       2.787655775689e-01       1.109326465656e+03 
       2.881136588829e-01       1.028756797035e+03 
       2.977863412677e-01       9.604715353650e+02 
       3.077985646929e-01       9.050122711589e+02 
       3.181667794071e-01       8.561290269814e+02 
       3.289091877812e-01       8.061734048980e+02 
       3.400460299658e-01       7.523768121330e+02 
       3.515999236474e-01       6.989078509951e+02 
       3.635962711085e-01       6.510544205535e+02 
       3.760637506334e-01       6.101138095360e+02 
       3.890349143879e-01       5.721211971369e+02 
       4.025469216825e-01       5.337692173255e+02 
       4.166424456376e-01       4.956163455984e+02 
       4.313708035863e-01       4.604576050469e+02 
       4.467893782977e-01       4.287629681035e+02 
       4.629654199664e-01       3.987614310415e+02 
       4.799783501994e-01       3.692284450330e+02 
       4.979227319373e-01       3.412301804100e+02 
       5.169121270864e-01       3.154714063821e+02 
       5.370841404489e-01       2.908232273730e+02 
       5.586070464571e-01       2.670945781532e+02 
       5.816885094930e-01       2.447971585340e+02 
       6.065870144995e-01       2.235591285929e+02 
       6.336266468475e-01       2.032014371719e+02 
       6.632156059511e-01       1.838701770226e+02 
       6.958678639263e-01       1.653456038256e+02 
       7.322247985589e-01       1.476875004833e+02 
       7.730680195114e-01       1.308252950283e+02 
       8.193049553677e-01       1.148232943788e+02 
       8.718988016039e-01       9.975423121336e+01 
       9.317218031082e-01       8.576921271227e+01 
       9.993660908989e-01       7.304594070231e+01 
       1.075037110174e+00       6.172733924641e+01 
       1.158653485707e+00       5.187028093876e+01 
       1.250099157308e+00       4.343130749932e+01 
       1.349432401273e+00       3.628074209860e+01 
       1.456947457397e+00       3.025919570404e+01 
       1.573135111331e+00       2.520580328170e+01 
       1.698621895592e+00       2.097325443558e+01 
       1.834127512934e+00       1.743365869819e+01 
       1.980444934528e+00       1.447699193686e+01 
       2.138435191726e+00       1.201036392161e+01 
       2.309029199186e+00       9.954601215933e+00 
       2.493232377687e+00       8.243286388990e+00 
       2.692130395285e+00       6.820091300976e+00 
       2.906895534573e+00       5.637808000002e+00 
       3.138793597714e+00       4.656533829812e+00 
       3.389191366484e+00       3.842879060026e+00 
       3.659564657905e+00       3.168798517118e+00 
       3.951507022538e+00       2.610821608393e+00 
       4.266739136701e+00       2.149394253316e+00 
       4.607118943941e+00       1.768077556982e+00 
       4.974652605557e+00       1.453261929987e+00 
       5.371506324689e+00       1.193508828688e+00 
       5.800019113685e+00       9.793715884997e-01 
       6.262716579983e+00       8.029696081149e-01 
       6.762325811764e+00       6.577379195246e-01 
       7.301791451110e+00       5.382797024483e-01 
       7.884293049406e+00       4.400761587619e-01 
       8.513263807261e+00       3.594023058540e-01 
       9.192410809424e+00       2.931721197561e-01 
       9.925736873929e+00       2.388413345088e-01 
       1.071756414427e+01       1.942975259373e-01 
       1.157255956364e+01       1.578017814945e-01 
       1.249576238137e+01       1.279231832332e-01 
       1.349261385375e+01       1.034802366362e-01 
       1.456898931416e+01       8.349492945569e-02 
       1.573123280165e+01       6.717207638004e-02 
       1.698619445202e+01       5.385051927950e-02 
       1.834127087176e+01       4.298991810664e-02 
       1.980444873285e+01       3.414573305179e-02 
       2.138435184532e+01       2.695492869479e-02 
       2.309029198506e+01       2.111967406326e-02 
       2.493232377636e+01       1.639599262113e-02 
       2.692130395282e+01       1.258484265121e-02 
       2.906895534573e+01       9.524029130551e-03 
       3.138793597714e+01       7.081336555523e-03 
       3.389191366484e+01       5.149061410796e-03 
       3.659564657905e+01       3.639358190814e-03 
       3.951507022538e+01       2.479971127638e-03 
       4.266739136701e+01       1.611071950299e-03 
       4.607118943941e+01       9.816703912812e-04 
       4.974652605557e+01       5.474454451123e-04 
       5.371506324689e+01       2.682669187766e-04 
       5.800019113685e+01       1.069364607311e-04 
       6.262716579983e+01       2.877948096627e-05 
       6.762325811764e+01       2.338536124348e-06 
