# Matter power spectrum P(k) at redshift z=0
# for k=1.04775e-05 to 67.6233 h/Mpc,
# number of wavenumbers equal to 246
#    1:k (h/Mpc)              2:P (Mpc/h)^3        
       1.047750691338e-05       5.020964806754e+01 
       1.131335172818e-05       5.407048206553e+01 
       1.221587619877e-05       5.822819063805e+01 
       1.319039970550e-05       6.270562589678e+01 
       1.424266598317e-05       6.752731788102e+01 
       1.537887697396e-05       7.271977200258e+01 
       1.660572938097e-05       7.831147241542e+01 
       1.793045413791e-05       8.433311815128e+01 
       1.936085902737e-05       9.081778242446e+01 
       2.090537469909e-05       9.780108061339e+01 
       2.257310435923e-05       1.053213197032e+02 
       2.437387742372e-05       1.134197377001e+02 
       2.631830745176e-05       1.221408202816e+02 
       2.841785470091e-05       1.315324720916e+02 
       3.068489367268e-05       1.416462093730e+02 
       3.313278604643e-05       1.525374500691e+02 
       3.577595943165e-05       1.642660687078e+02 
       3.862999240274e-05       1.768963504868e+02 
       4.171170631739e-05       1.904975992460e+02 
       4.503926445983e-05       2.051444490305e+02 
       4.863227909323e-05       2.209171463752e+02 
       5.251192705226e-05       2.379022222314e+02 
       5.670107455699e-05       2.561927925741e+02 
       6.122441198393e-05       2.758890441791e+02 
       6.610859938837e-05       2.970989225465e+02 
       7.138242363583e-05       3.199385558200e+02 
       7.707696806873e-05       3.445329780878e+02 
       8.322579570814e-05       3.710167315928e+02 
       8.986514707061e-05       3.995346440954e+02 
       9.703415376577e-05       4.302425403884e+02 
       1.047750691338e-04       4.633080762974e+02 
       1.131335172818e-04       4.989116267507e+02 
       1.221587619877e-04       5.372471946561e+02 
       1.319039970550e-04       5.785234124630e+02 
       1.424266598317e-04       6.229645930980e+02 
       1.537887697396e-04       6.708118484951e+02 
       1.660572938097e-04       7.223242660220e+02 
       1.793045413791e-04       7.777801553141e+02 
       1.936085902737e-04       8.374783607334e+02 
       2.090537469909e-04       9.017396264495e+02 
       2.257310435923e-04       9.709080260152e+02 
       2.437387742372e-04       1.045352448644e+03 
       2.631830745176e-04       1.125468122836e+03 
       2.841785470091e-04       1.211678179511e+03 
       3.068489367268e-04       1.304435249091e+03 
       3.313278604643e-04       1.404223052541e+03 
       3.577595943165e-04       1.511558013390e+03 
       3.862999240274e-04       1.626990836479e+03 
       4.171170631739e-04       1.751108027370e+03 
       4.503926445983e-04       1.884533381345e+03 
       4.863227909323e-04       2.027929376470e+03 
       5.251192705226e-04       2.181998446367e+03 
       5.670107455699e-04       2.347484100857e+03 
       6.122441198393e-04       2.525171869335e+03 
       6.610859938837e-04       2.715889981400e+03 
       7.138242363583e-04       2.920509686090e+03 
       7.707696806873e-04       3.139945097710e+03 
       8.322579570814e-04       3.375152334396e+03 
       8.986514707061e-04       3.627127828231e+03 
       9.703415376577e-04       3.896905450016e+03 
       1.047750691338e-03       4.185552170959e+03 
       1.131335172818e-03       4.494162426791e+03 
       1.221587619877e-03       4.823850702665e+03 
       1.319039970550e-03       5.175742737569e+03 
       1.424266598317e-03       5.551019592523e+03 
       1.537887697396e-03       5.950788335880e+03 
       1.660572938097e-03       6.376123046806e+03 
       1.793045413791e-03       6.828073896123e+03 
       1.936085902737e-03       7.307625375386e+03 
       2.090537469909e-03       7.815671908667e+03 
       2.257310435923e-03       8.352990369398e+03 
       2.437387742372e-03       8.920211057550e+03 
       2.631830745176e-03       9.517783061890e+03 
       2.841785470091e-03       1.014593703671e+04 
       3.068489367268e-03       1.080464505729e+04 
       3.313278604643e-03       1.149357459486e+04 
       3.577595943165e-03       1.221203620826e+04 
       3.862999240274e-03       1.295892538505e+04 
       4.171170631739e-03       1.373265998464e+04 
       4.503926445983e-03       1.453111834595e+04 
       4.863227909323e-03       1.535154984226e+04 
       5.251192705226e-03       1.619063613430e+04 
       5.670107455699e-03       1.704431256571e+04 
       6.122441198393e-03       1.790755938454e+04 
       6.610859938837e-03       1.877460413228e+04 
       7.138242363583e-03       1.963872429107e+04 
       7.707696806873e-03       2.049215713277e+04 
       8.322579570814e-03       2.132607230656e+04 
       8.986514707061e-03       2.213055120175e+04 
       9.703415376577e-03       2.289445470823e+04 
       1.047750691338e-02       2.360549054000e+04 
       1.131335172818e-02       2.425023100318e+04 
       1.221587619877e-02       2.481423921598e+04 
       1.319039970550e-02       2.528218677786e+04 
       1.424266598317e-02       2.563814428726e+04 
       1.537887697392e-02       2.586607515347e+04 
       1.660572938023e-02       2.595027246353e+04 
       1.793045412706e-02       2.587633140593e+04 
       1.936085890181e-02       2.563220889035e+04 
       2.090537352463e-02       2.520935466479e+04 
       2.257309535333e-02       2.460447325422e+04 
       2.437382002918e-02       2.382088442731e+04 
       2.631799944462e-02       2.287039627084e+04 
       2.841644545389e-02       2.177451387899e+04 
       3.067933355377e-02       2.056553523474e+04 
       3.311368470740e-02       1.928729410102e+04 
       3.571840443502e-02       1.799402641343e+04 
       3.847720348444e-02       1.674682242798e+04 
       4.135335538431e-02       1.560463027599e+04 
       4.429361667738e-02       1.461040583399e+04 
       4.724366439141e-02       1.378051691297e+04 
       5.016480835311e-02       1.310506927293e+04 
       5.303989620246e-02       1.255715429388e+04 
       5.586870669566e-02       1.210422819649e+04 
       5.866042680613e-02       1.171464550638e+04 
       6.142798932958e-02       1.136046494455e+04 
       6.418496440164e-02       1.101858296331e+04 
       6.694418833788e-02       1.067068693202e+04 
       6.971731106057e-02       1.030356006673e+04 
       7.251476155766e-02       9.909004966406e+03 
       7.534587671527e-02       9.483782997108e+03 
       7.821907666265e-02       9.029488242568e+03 
       8.114203772912e-02       8.552317472652e+03 
       8.412184535029e-02       8.061939601871e+03 
       8.716512279304e-02       7.570775451016e+03 
       9.027813695930e-02       7.092495618028e+03 
       9.346688431697e-02       6.640527669524e+03 
       9.673716028276e-02       6.226710562420e+03 
       1.000946150830e-01       5.859952456577e+03 
       1.035447986537e-01       5.545239433737e+03 
       1.070931966762e-01       5.283142357421e+03 
       1.107452594425e-01       5.069417952741e+03 
       1.145064249153e-01       4.895245288582e+03 
       1.183821370918e-01       4.747853096393e+03 
       1.223778605862e-01       4.611736481715e+03 
       1.264990921987e-01       4.470610332983e+03 
       1.307513701367e-01       4.310276588853e+03 
       1.351402814784e-01       4.121391738866e+03 
       1.396714684203e-01       3.902049751810e+03 
       1.443506338194e-01       3.658645115055e+03 
       1.491835465229e-01       3.404484440266e+03 
       1.541760469708e-01       3.156669061922e+03 
       1.593340535561e-01       2.931982273052e+03 
       1.646635702297e-01       2.742372293065e+03 
       1.701706958456e-01       2.592261898203e+03 
       1.758616357459e-01       2.477239502724e+03 
       1.817427160982e-01       2.385181592662e+03 
       1.878204015065e-01       2.300358092532e+03 
       1.941013164283e-01       2.205756535300e+03 
       2.005922709503e-01       2.090815860194e+03 
       2.073002914972e-01       1.956465539306e+03 
       2.142326570816e-01       1.814191216809e+03 
       2.213969417533e-01       1.679294892914e+03 
       2.288010639706e-01       1.563848600568e+03 
       2.364533437147e-01       1.472689183018e+03 
       2.443625682930e-01       1.401511604629e+03 
       2.525380679504e-01       1.338413792590e+03 
       2.609898026346e-01       1.270899414766e+03 
       2.697284615565e-01       1.193381251267e+03 
       2.787655775689e-01       1.109337703098e+03 
       2.881136588829e-01       1.028770944749e+03 
       2.977863412677e-01       9.604830102203e+02 
       3.077985646929e-01       9.050223747812e+02 
       3.181667794071e-01       8.561439866568e+02 
       3.289091877812e-01       8.061860528767e+02 
       3.400460299658e-01       7.523914219911e+02 
       3.515999236474e-01       6.989242087702e+02 
       3.635962711085e-01       6.510636327007e+02 
       3.760637506334e-01       6.101225329255e+02 
       3.890349143879e-01       5.721302812378e+02 
       4.025469216825e-01       5.337815281140e+02 
       4.166424456376e-01       4.956330332973e+02 
       4.313708035863e-01       4.604702428589e+02 
       4.467893782977e-01       4.287762628464e+02 
       4.629654199664e-01       3.987720428799e+02 
       4.799783501994e-01       3.692418528255e+02 
       4.979227319373e-01       3.412406586006e+02 
       5.169121270864e-01       3.154834583629e+02 
       5.370841404489e-01       2.908355613584e+02 
       5.586070464571e-01       2.671066136429e+02 
       5.816885094930e-01       2.448085469760e+02 
       6.065870144995e-01       2.235683360098e+02 
       6.336266468475e-01       2.032105285158e+02 
       6.632156059511e-01       1.838795228647e+02 
       6.958678639263e-01       1.653550629964e+02 
       7.322247985589e-01       1.476957185239e+02 
       7.730680195114e-01       1.308340201761e+02 
       8.193049553677e-01       1.148315498509e+02 
       8.718988016039e-01       9.976268628394e+01 
       9.317218031082e-01       8.577796960992e+01 
       9.993660908989e-01       7.305488287994e+01 
       1.075037110174e+00       6.173572951195e+01 
       1.158653485707e+00       5.187929972928e+01 
       1.250099157308e+00       4.344031628725e+01 
       1.349432401273e+00       3.628940106631e+01 
       1.456947457397e+00       3.026787905630e+01 
       1.573135111331e+00       2.521454886491e+01 
       1.698621895592e+00       2.098205324111e+01 
       1.834127512934e+00       1.744229819135e+01 
       1.980444934528e+00       1.448567874984e+01 
       2.138435191726e+00       1.201899873018e+01 
       2.309029199186e+00       9.963153025006e+00 
       2.493232377687e+00       8.251811864140e+00 
       2.692130395285e+00       6.828588499567e+00 
       2.906895534573e+00       5.646249745442e+00 
       3.138793597714e+00       4.664872985359e+00 
       3.389191366484e+00       3.851113816456e+00 
       3.659564657905e+00       3.176943702134e+00 
       3.951507022538e+00       2.618879117248e+00 
       4.266739136701e+00       2.157292784762e+00 
       4.607118943941e+00       1.775941467503e+00 
       4.974652605557e+00       1.460987262878e+00 
       5.371506324689e+00       1.201127330359e+00 
       5.800019113685e+00       9.868751801002e-01 
       6.262716579983e+00       8.103471938451e-01 
       6.762325811764e+00       6.650050097038e-01 
       7.301791451110e+00       5.454223511811e-01 
       7.884293049406e+00       4.470942989891e-01 
       8.513263807261e+00       3.662946503129e-01 
       9.192410809424e+00       2.999369381679e-01 
       9.925736873929e+00       2.454756804820e-01 
       1.071756414427e+01       2.008010406984e-01 
       1.157255956364e+01       1.641761616908e-01 
       1.249576238137e+01       1.341697646061e-01 
       1.349261385375e+01       1.095946057173e-01 
       1.456898931416e+01       8.948019615943e-02 
       1.573123280165e+01       7.302290945817e-02 
       1.698619445202e+01       5.956745734559e-02 
       1.834127087176e+01       4.856892250123e-02 
       1.980444873285e+01       3.958393683249e-02 
       2.138435184532e+01       3.224655558935e-02 
       2.309029198506e+01       2.625788177197e-02 
       2.493232377636e+01       2.137140126035e-02 
       2.692130395282e+01       1.738641777097e-02 
       2.906895534573e+01       1.413755221976e-02 
       3.138793597714e+01       1.148982535842e-02 
       3.389191366484e+01       9.332874523212e-03 
       3.659564657905e+01       7.576112499394e-03 
       3.951507022538e+01       6.145989183576e-03 
       4.266739136701e+01       4.981985691821e-03 
       4.607118943941e+01       4.034836557716e-03 
       4.974652605557e+01       3.264277026715e-03 
       5.371506324689e+01       2.637537775310e-03 
       5.800019113685e+01       2.127893736816e-03 
       6.262716579983e+01       1.713452863461e-03 
       6.762325811764e+01       1.376479053100e-03 
