# Matter power spectrum P(k) at redshift z=0
# for k=1.04775e-05 to 67.6233 h/Mpc,
# number of wavenumbers equal to 246
#    1:k (h/Mpc)              2:P (Mpc/h)^3        
       1.047750691338e-05       5.020964806754e+01 
       1.131335172818e-05       5.407048206553e+01 
       1.221587619877e-05       5.822819063904e+01 
       1.319039970550e-05       6.270562589682e+01 
       1.424266598317e-05       6.752731788102e+01 
       1.537887697396e-05       7.271977200257e+01 
       1.660572938097e-05       7.831147241542e+01 
       1.793045413791e-05       8.433311815128e+01 
       1.936085902737e-05       9.081778242446e+01 
       2.090537469909e-05       9.780108061340e+01 
       2.257310435923e-05       1.053213197032e+02 
       2.437387742372e-05       1.134197377001e+02 
       2.631830745176e-05       1.221408202816e+02 
       2.841785470091e-05       1.315324720916e+02 
       3.068489367268e-05       1.416462093729e+02 
       3.313278604643e-05       1.525374500691e+02 
       3.577595943165e-05       1.642660687078e+02 
       3.862999240274e-05       1.768963504868e+02 
       4.171170631739e-05       1.904975992460e+02 
       4.503926445983e-05       2.051444490305e+02 
       4.863227909323e-05       2.209171463752e+02 
       5.251192705226e-05       2.379022222314e+02 
       5.670107455699e-05       2.561927925420e+02 
       6.122441198393e-05       2.758890441791e+02 
       6.610859938837e-05       2.970989225466e+02 
       7.138242363583e-05       3.199385558200e+02 
       7.707696806873e-05       3.445329780878e+02 
       8.322579570814e-05       3.710167315928e+02 
       8.986514707061e-05       3.995346440954e+02 
       9.703415376577e-05       4.302425403884e+02 
       1.047750691338e-04       4.633080762974e+02 
       1.131335172818e-04       4.989116267507e+02 
       1.221587619877e-04       5.372471946561e+02 
       1.319039970550e-04       5.785234124629e+02 
       1.424266598317e-04       6.229645930980e+02 
       1.537887697396e-04       6.708118484951e+02 
       1.660572938097e-04       7.223242660220e+02 
       1.793045413791e-04       7.777801552927e+02 
       1.936085902737e-04       8.374783607333e+02 
       2.090537469909e-04       9.017396264495e+02 
       2.257310435923e-04       9.709080260151e+02 
       2.437387742372e-04       1.045352448644e+03 
       2.631830745176e-04       1.125468122836e+03 
       2.841785470091e-04       1.211678179510e+03 
       3.068489367268e-04       1.304435249091e+03 
       3.313278604643e-04       1.404223052541e+03 
       3.577595943165e-04       1.511558013390e+03 
       3.862999240274e-04       1.626990836456e+03 
       4.171170631739e-04       1.751108027370e+03 
       4.503926445983e-04       1.884533381345e+03 
       4.863227909323e-04       2.027929376469e+03 
       5.251192705226e-04       2.181998446367e+03 
       5.670107455699e-04       2.347484100856e+03 
       6.122441198393e-04       2.525171869336e+03 
       6.610859938837e-04       2.715889981401e+03 
       7.138242363583e-04       2.920509686090e+03 
       7.707696806873e-04       3.139945097708e+03 
       8.322579570814e-04       3.375152334394e+03 
       8.986514707061e-04       3.627127828228e+03 
       9.703415376577e-04       3.896905450013e+03 
       1.047750691338e-03       4.185552170960e+03 
       1.131335172818e-03       4.494162426786e+03 
       1.221587619877e-03       4.823850702657e+03 
       1.319039970550e-03       5.175742738031e+03 
       1.424266598317e-03       5.551019592514e+03 
       1.537887697396e-03       5.950788335863e+03 
       1.660572938097e-03       6.376123046808e+03 
       1.793045413791e-03       6.828073896107e+03 
       1.936085902737e-03       7.307625375358e+03 
       2.090537469909e-03       7.815671857729e+03 
       2.257310435923e-03       8.352990369347e+03 
       2.437387742372e-03       8.920211057493e+03 
       2.631830745176e-03       9.517783061815e+03 
       2.841785470091e-03       1.014593703662e+04 
       3.068489367268e-03       1.080464505725e+04 
       3.313278604643e-03       1.149357459461e+04 
       3.577595943165e-03       1.221203620807e+04 
       3.862999240274e-03       1.295892538481e+04 
       4.171170631739e-03       1.373266002337e+04 
       4.503926445983e-03       1.453111834557e+04 
       4.863227909323e-03       1.535154982856e+04 
       5.251192705226e-03       1.619063605319e+04 
       5.670107455699e-03       1.704431256137e+04 
       6.122441198393e-03       1.790755943157e+04 
       6.610859938837e-03       1.877460423422e+04 
       7.138242363583e-03       1.963872444463e+04 
       7.707696806873e-03       2.049215712776e+04 
       8.322579570814e-03       2.132611395173e+04 
       8.986514707061e-03       2.213054613179e+04 
       9.703415376577e-03       2.289445529142e+04 
       1.047750691338e-02       2.360549126014e+04 
       1.131335172818e-02       2.425022732628e+04 
       1.221587619877e-02       2.481423937745e+04 
       1.319039970550e-02       2.528219142681e+04 
       1.424266598317e-02       2.563814304143e+04 
       1.537887697392e-02       2.586607653283e+04 
       1.660572938023e-02       2.595028524192e+04 
       1.793045412706e-02       2.587635302419e+04 
       1.936085890181e-02       2.563221207575e+04 
       2.090537352463e-02       2.520936903449e+04 
       2.257309535333e-02       2.460446979409e+04 
       2.437382002918e-02       2.382094621559e+04 
       2.631799944462e-02       2.287052396224e+04 
       2.841644545389e-02       2.177463578809e+04 
       3.067933355377e-02       2.056553639579e+04 
       3.311368470740e-02       1.928726482720e+04 
       3.571840443502e-02       1.799410611249e+04 
       3.847720348444e-02       1.674679452668e+04 
       4.135335538431e-02       1.560453820358e+04 
       4.429361667738e-02       1.461031671347e+04 
       4.724366439141e-02       1.378053743576e+04 
       5.016480835311e-02       1.310506127682e+04 
       5.303989620246e-02       1.255713271756e+04 
       5.586870669566e-02       1.210424951270e+04 
       5.866042680613e-02       1.171468432763e+04 
       6.142798932958e-02       1.136050021745e+04 
       6.418496440164e-02       1.101859162079e+04 
       6.694418833788e-02       1.067066696568e+04 
       6.971731106057e-02       1.030357541042e+04 
       7.251476155766e-02       9.909073337676e+03 
       7.534587671527e-02       9.483691154189e+03 
       7.821907666265e-02       9.029406992772e+03 
       8.114203772912e-02       8.552217605740e+03 
       8.412184535029e-02       8.061952887156e+03 
       8.716512279304e-02       7.570797004266e+03 
       9.027813695930e-02       7.092490833821e+03 
       9.346688431697e-02       6.640506534535e+03 
       9.673716028276e-02       6.226744416924e+03 
       1.000946150830e-01       5.859964538900e+03 
       1.035447986537e-01       5.545258191032e+03 
       1.070931966762e-01       5.283150690873e+03 
       1.107452594425e-01       5.069438270249e+03 
       1.145064249153e-01       4.895250537399e+03 
       1.183821370918e-01       4.747847696745e+03 
       1.223778605862e-01       4.611732780332e+03 
       1.264990921987e-01       4.470613911575e+03 
       1.307513701367e-01       4.310247776610e+03 
       1.351402814784e-01       4.121398420122e+03 
       1.396714684203e-01       3.902048658030e+03 
       1.443506338194e-01       3.658655463051e+03 
       1.491835465229e-01       3.404463827306e+03 
       1.541760469708e-01       3.156644213829e+03 
       1.593340535561e-01       2.931946121668e+03 
       1.646635702297e-01       2.742359689968e+03 
       1.701706958456e-01       2.592234944353e+03 
       1.758616357459e-01       2.477216609837e+03 
       1.817427160982e-01       2.385160620916e+03 
       1.878204015065e-01       2.300350929958e+03 
       1.941013164283e-01       2.205774762954e+03 
       2.005922709503e-01       2.090826723487e+03 
       2.073002914972e-01       1.956472095673e+03 
       2.142326570816e-01       1.814174158008e+03 
       2.213969417533e-01       1.679267274449e+03 
       2.288010639706e-01       1.563835155365e+03 
       2.364533437147e-01       1.472667812796e+03 
       2.443625682930e-01       1.401505620792e+03 
       2.525380679504e-01       1.338416010677e+03 
       2.609898026346e-01       1.270901889509e+03 
       2.697284615565e-01       1.193356203607e+03 
       2.787655775689e-01       1.109318906074e+03 
       2.881136588829e-01       1.028758015204e+03 
       2.977863412677e-01       9.604701708462e+02 
       3.077985646929e-01       9.050046673427e+02 
       3.181667794071e-01       8.561338133060e+02 
       3.289091877812e-01       8.061816463851e+02 
       3.400460299658e-01       7.523774236155e+02 
       3.515999236474e-01       6.989149947007e+02 
       3.635962711085e-01       6.510523762293e+02 
       3.760637506334e-01       6.101110025116e+02 
       3.890349143879e-01       5.721218339699e+02 
       4.025469216825e-01       5.337702220230e+02 
       4.166424456376e-01       4.956199245435e+02 
       4.313708035863e-01       4.604557011115e+02 
       4.467893782977e-01       4.287645146935e+02 
       4.629654199664e-01       3.987604640035e+02 
       4.799783501994e-01       3.692277943535e+02 
       4.979227319373e-01       3.412253479392e+02 
       5.169121270864e-01       3.154683217928e+02 
       5.370841404489e-01       2.908205129487e+02 
       5.586070464571e-01       2.670907933948e+02 
       5.816885094930e-01       2.447931358779e+02 
       6.065870144995e-01       2.235508111426e+02 
       6.336266468475e-01       2.031915543688e+02 
       6.632156059511e-01       1.838597138432e+02 
       6.958678639263e-01       1.653341832766e+02 
       7.322247985589e-01       1.476737365402e+02 
       7.730680195114e-01       1.308100159612e+02 
       8.193049553677e-01       1.148060994944e+02 
       8.718988016039e-01       9.973491724126e+01 
       9.317218031082e-01       8.574780670482e+01 
       9.993660908989e-01       7.302215661556e+01 
       1.075037110174e+00       6.169995318274e+01 
       1.158653485707e+00       5.183943753188e+01 
       1.250099157308e+00       4.339608786483e+01 
       1.349432401273e+00       3.624081843710e+01 
       1.456947457397e+00       3.021448834073e+01 
       1.573135111331e+00       2.515546679507e+01 
       1.698621895592e+00       2.091699503894e+01 
       1.834127512934e+00       1.737080388671e+01 
       1.980444934528e+00       1.440710617854e+01 
       2.138435191726e+00       1.193254896520e+01 
       2.309029199186e+00       9.868479288149e+00 
       2.493232377687e+00       8.148184323324e+00 
       2.692130395285e+00       6.715332173677e+00 
       2.906895534573e+00       5.522704345149e+00 
       3.138793597714e+00       4.530315048244e+00 
       3.389191366484e+00       3.704918935276e+00 
       3.659564657905e+00       3.018524101326e+00 
       3.951507022538e+00       2.447750451980e+00 
       4.266739136701e+00       1.973137715889e+00 
       4.607118943941e+00       1.578537974350e+00 
       4.974652605557e+00       1.250539566984e+00 
       5.371506324689e+00       9.781535277971e-01 
       5.800019113685e+00       7.523840926758e-01 
       6.262716579983e+00       5.660012530682e-01 
       6.762325811764e+00       4.131931751906e-01 
       7.301791451110e+00       2.894313994874e-01 
       7.884293049406e+00       1.911699254429e-01 
       8.513263807261e+00       1.156866619346e-01 
       9.192410809424e+00       6.080115375761e-02 
       9.925736873929e+00       2.460464341347e-02 
       1.071756414427e+01       5.138945744311e-03 
       1.157255956364e+01       5.951563575700e-05 
       1.249576238137e+01       6.332836142518e-03 
       1.349261385375e+01       2.005490628829e-02 
       1.456898931416e+01       3.652705986722e-02 
       1.573123280165e+01       5.070198410541e-02 
       1.698619445202e+01       5.809103667444e-02 
       1.834127087176e+01       5.598602617519e-02 
       1.980444873285e+01       4.463845370860e-02 
       2.138435184532e+01       2.770618579326e-02 
       2.309029198506e+01       1.131401456583e-02 
       2.493232377636e+01       1.469524132942e-03 
       2.692130395282e+01       7.623150666022e-04 
       2.906895534573e+01       6.405263541902e-03 
       3.138793597714e+01       1.178092598942e-02 
       3.389191366484e+01       1.145338384900e-02 
       3.659564657905e+01       5.900910819738e-03 
       3.951507022538e+01       8.009880843075e-04 
       4.266739136701e+01       4.348621557111e-04 
       4.607118943941e+01       2.661507634641e-03 
       4.974652605557e+01       2.733987231796e-03 
       5.371506324689e+01       6.888589244284e-04 
       5.800019113685e+01       6.584715353042e-05 
       6.262716579983e+01       7.680906625807e-04 
       6.762325811764e+01       4.598655378663e-04 
