# Matter power spectrum P(k) at redshift z=99
# for k=1.04775e-05 to 67.6233 h/Mpc,
# number of wavenumbers equal to 246
#    1:k (h/Mpc)              2:P (Mpc/h)^3        
       1.047750691338e-05       7.261927673119e-03 
       1.131335172818e-05       7.820331745737e-03 
       1.221587619877e-05       8.421675986489e-03 
       1.319039970550e-05       9.069258192194e-03 
       1.424266598317e-05       9.766638404421e-03 
       1.537887697396e-05       1.051764069682e-02 
       1.660572938097e-05       1.132639105520e-02 
       1.793045413791e-05       1.219733231416e-02 
       1.936085902737e-05       1.313524224380e-02 
       2.090537469909e-05       1.414527121893e-02 
       2.257310435923e-05       1.523296272192e-02 
       2.437387742372e-05       1.640429444530e-02 
       2.631830745176e-05       1.766569582177e-02 
       2.841785470091e-05       1.902408601793e-02 
       3.068489367268e-05       2.048692970591e-02 
       3.313278604643e-05       2.206225513594e-02 
       3.577595943165e-05       2.375870704909e-02 
       3.862999240274e-05       2.558560727479e-02 
       4.171170631739e-05       2.755297763344e-02 
       4.503926445983e-05       2.967161927314e-02 
       4.863227909323e-05       3.195316450832e-02 
       5.251192705226e-05       3.441013519284e-02 
       5.670107455699e-05       3.705601722529e-02 
       6.122441198393e-05       3.990533413561e-02 
       6.610859938837e-05       4.297372168203e-02 
       7.138242363583e-05       4.627802141688e-02 
       7.707696806873e-05       4.983636194159e-02 
       8.322579570814e-05       5.366826847231e-02 
       8.986514707061e-05       5.779476394568e-02 
       9.703415376577e-05       6.223848243885e-02 
       1.047750691338e-04       6.702379865640e-02 
       1.131335172818e-04       7.217695153381e-02 
       1.221587619877e-04       7.772619073571e-02 
       1.319039970550e-04       8.370193432376e-02 
       1.424266598317e-04       9.013692507547e-02 
       1.537887697396e-04       9.706641242570e-02 
       1.660572938097e-04       1.045283354271e-01 
       1.793045413791e-04       1.125635349068e-01 
       1.936085902737e-04       1.212159614968e-01 
       2.090537469909e-04       1.305329132714e-01 
       2.257310435923e-04       1.405652846215e-01 
       2.437387742372e-04       1.513678302540e-01 
       2.631830745176e-04       1.629994504871e-01 
       2.841785470091e-04       1.755234921224e-01 
       3.068489367268e-04       1.890080670413e-01 
       3.313278604643e-04       2.035264002435e-01 
       3.577595943165e-04       2.191571803681e-01 
       3.862999240274e-04       2.359849437591e-01 
       4.171170631739e-04       2.541004741539e-01 
       4.503926445983e-04       2.736012080277e-01 
       4.863227909323e-04       2.945916790965e-01 
       5.251192705226e-04       3.171839525183e-01 
       5.670107455699e-04       3.414980764002e-01 
       6.122441198393e-04       3.676625413100e-01 
       6.610859938837e-04       3.958147252304e-01 
       7.138242363583e-04       4.261013284915e-01 
       7.707696806873e-04       4.586787792353e-01 
       8.322579570814e-04       4.937136001351e-01 
       8.986514707061e-04       5.313826801402e-01 
       9.703415376577e-04       5.718734972157e-01 
       1.047750691338e-03       6.153841629505e-01 
       1.131335172818e-03       6.621233239466e-01 
       1.221587619877e-03       7.123098220424e-01 
       1.319039970550e-03       7.661720584418e-01 
       1.424266598317e-03       8.239546297727e-01 
       1.537887697396e-03       8.859011173466e-01 
       1.660572938097e-03       9.522588006421e-01 
       1.793045413791e-03       1.023280099819e+00 
       1.936085902737e-03       1.099216304579e+00 
       2.090537469909e-03       1.180312990453e+00 
       2.257310435923e-03       1.266804115853e+00 
       2.437387742372e-03       1.358904853405e+00 
       2.631830745176e-03       1.456802683156e+00 
       2.841785470091e-03       1.560646890522e+00 
       3.068489367268e-03       1.670536062499e+00 
       3.313278604643e-03       1.786503852156e+00 
       3.577595943165e-03       1.908502930789e+00 
       3.862999240274e-03       2.036387730709e+00 
       4.171170631739e-03       2.169896178597e+00 
       4.503926445983e-03       2.308631878994e+00 
       4.863227909323e-03       2.452047290962e+00 
       5.251192705226e-03       2.599430628088e+00 
       5.670107455699e-03       2.749896931810e+00 
       6.122441198393e-03       2.902386513383e+00 
       6.610859938837e-03       3.055668698019e+00 
       7.138242363583e-03       3.208356461543e+00 
       7.707696806873e-03       3.358923892340e+00 
       8.322579570814e-03       3.505724702463e+00 
       8.986514707061e-03       3.647009247184e+00 
       9.703415376577e-03       3.780923304321e+00 
       1.047750691338e-02       3.905491208356e+00 
       1.131335172818e-02       4.018587641230e+00 
       1.221587619877e-02       4.117901584519e+00 
       1.319039970550e-02       4.200915387233e+00 
       1.424266598317e-02       4.264941357909e+00 
       1.537887697392e-02       4.307217629897e+00 
       1.660572938023e-02       4.325062042231e+00 
       1.793045412706e-02       4.316059451724e+00 
       1.936085890181e-02       4.278230951116e+00 
       2.090537352463e-02       4.210203657132e+00 
       2.257309535333e-02       4.111413848576e+00 
       2.437382002918e-02       3.982423627898e+00 
       2.631799944462e-02       3.825165335395e+00 
       2.841644545389e-02       3.643278884991e+00 
       3.067933355377e-02       3.442196684429e+00 
       3.311368470740e-02       3.229240803050e+00 
       3.571840443502e-02       3.013510409566e+00 
       3.847720348444e-02       2.805284693496e+00 
       4.135335538431e-02       2.614418661052e+00 
       4.429361667738e-02       2.448133687296e+00 
       4.724366439141e-02       2.309232677735e+00 
       5.016480835311e-02       2.196110009390e+00 
       5.303989620246e-02       2.104364223862e+00 
       5.586870669566e-02       2.028465595094e+00 
       5.866042680613e-02       1.963153401927e+00 
       6.142798932958e-02       1.903778321266e+00 
       6.418496440164e-02       1.846481242962e+00 
       6.694418833788e-02       1.788195287866e+00 
       6.971731106057e-02       1.726712426311e+00 
       7.251476155766e-02       1.660656094880e+00 
       7.534587671527e-02       1.589469075705e+00 
       7.821907666265e-02       1.513442569758e+00 
       8.114203772912e-02       1.433567893059e+00 
       8.412184535029e-02       1.351492426277e+00 
       8.716512279304e-02       1.269277603242e+00 
       9.027813695930e-02       1.189194335782e+00 
       9.346688431697e-02       1.113499686334e+00 
       9.673716028276e-02       1.044176529130e+00 
       1.000946150830e-01       9.827053745712e-01 
       1.035447986537e-01       9.299376509881e-01 
       1.070931966762e-01       8.859596121976e-01 
       1.107452594425e-01       8.500690861079e-01 
       1.145064249153e-01       8.208035993829e-01 
       1.183821370918e-01       7.960268100210e-01 
       1.223778605862e-01       7.731463313754e-01 
       1.264990921987e-01       7.494531295041e-01 
       1.307513701367e-01       7.225587270604e-01 
       1.351402814784e-01       6.909090619325e-01 
       1.396714684203e-01       6.541799771214e-01 
       1.443506338194e-01       6.134276088794e-01 
       1.491835465229e-01       5.708680758401e-01 
       1.541760469708e-01       5.293637136177e-01 
       1.593340535561e-01       4.917110946476e-01 
       1.646635702297e-01       4.599200911651e-01 
       1.701706958456e-01       4.347286532232e-01 
       1.758616357459e-01       4.154089023891e-01 
       1.817427160982e-01       3.999370788409e-01 
       1.878204015065e-01       3.856827767812e-01 
       1.941013164283e-01       3.698096890599e-01 
       2.005922709503e-01       3.505455497520e-01 
       2.073002914972e-01       3.280438868146e-01 
       2.142326570816e-01       3.042136379591e-01 
       2.213969417533e-01       2.816118968469e-01 
       2.288010639706e-01       2.622574182530e-01 
       2.364533437147e-01       2.469615886326e-01 
       2.443625682930e-01       2.350129567779e-01 
       2.525380679504e-01       2.244181228950e-01 
       2.609898026346e-01       2.130940269370e-01 
       2.697284615565e-01       2.001010324051e-01 
       2.787655775689e-01       1.860202746126e-01 
       2.881136588829e-01       1.725174062774e-01 
       2.977863412677e-01       1.610661094807e-01 
       3.077985646929e-01       1.517611932027e-01 
       3.181667794071e-01       1.435593138260e-01 
       3.289091877812e-01       1.351814488981e-01 
       3.400460299658e-01       1.261643922899e-01 
       3.515999236474e-01       1.172016767497e-01 
       3.635962711085e-01       1.091767777480e-01 
       3.760637506334e-01       1.023095989876e-01 
       3.890349143879e-01       9.593784677994e-02 
       4.025469216825e-01       8.950821121496e-02 
       4.166424456376e-01       8.311183980684e-02 
       4.313708035863e-01       7.721544284983e-02 
       4.467893782977e-01       7.190047320444e-02 
       4.629654199664e-01       6.686911838968e-02 
       4.799783501994e-01       6.191746743285e-02 
       4.979227319373e-01       5.722224360860e-02 
       5.169121270864e-01       5.290301223403e-02 
       5.370841404489e-01       4.876976200492e-02 
       5.586070464571e-01       4.479079045045e-02 
       5.816885094930e-01       4.105193993685e-02 
       6.065870144995e-01       3.748991585884e-02 
       6.336266468475e-01       3.407624189490e-02 
       6.632156059511e-01       3.083464536966e-02 
       6.958678639263e-01       2.772838151051e-02 
       7.322247985589e-01       2.476707748347e-02 
       7.730680195114e-01       2.193958070884e-02 
       8.193049553677e-01       1.925613283985e-02 
       8.718988016039e-01       1.672925023001e-02 
       9.317218031082e-01       1.438423765641e-02 
       9.993660908989e-01       1.225064077422e-02 
       1.075037110174e+00       1.035257914826e-02 
       1.158653485707e+00       8.699711353585e-03 
       1.250099157308e+00       7.284589268228e-03 
       1.349432401273e+00       6.085461223206e-03 
       1.456947457397e+00       5.075702653269e-03 
       1.573135111331e+00       4.228268644974e-03 
       1.698621895592e+00       3.518513481649e-03 
       1.834127512934e+00       2.924945682847e-03 
       1.980444934528e+00       2.429117249653e-03 
       2.138435191726e+00       2.015452411532e-03 
       2.309029199186e+00       1.670717306071e-03 
       2.493232377687e+00       1.383725476324e-03 
       2.692130395285e+00       1.145057656568e-03 
       2.906895534573e+00       9.467783545691e-04 
       3.138793597714e+00       7.821988599357e-04 
       3.389191366484e+00       6.457241701140e-04 
       3.659564657905e+00       5.326614905586e-04 
       3.951507022538e+00       4.390690675866e-04 
       4.266739136701e+00       3.616604051307e-04 
       4.607118943941e+00       2.976858421610e-04 
       4.974652605557e+00       2.448606266834e-04 
       5.371506324689e+00       2.012666885058e-04 
       5.800019113685e+00       1.653229237040e-04 
       6.262716579983e+00       1.357036891719e-04 
       6.762325811764e+00       1.113119631572e-04 
       7.301791451110e+00       9.123869401279e-05 
       7.884293049406e+00       7.472825549112e-05 
       8.513263807261e+00       6.115633089733e-05 
       9.192410809424e+00       5.000481334455e-05 
       9.925736873929e+00       4.084658990377e-05 
       1.071756414427e+01       3.332851608158e-05 
       1.157255956364e+01       2.715842178319e-05 
       1.249576238137e+01       2.209661716558e-05 
       1.349261385375e+01       1.794450151548e-05 
       1.456898931416e+01       1.453941582384e-05 
       1.573123280165e+01       1.174674848360e-05 
       1.698619445202e+01       9.456647024250e-06 
       1.834127087176e+01       7.578744381492e-06 
       1.980444873285e+01       6.038887711468e-06 
       2.138435184532e+01       4.776629102824e-06 
       2.309029198506e+01       3.742639221906e-06 
       2.493232377636e+01       2.896826677003e-06 
       2.692130395282e+01       2.206773875089e-06 
       2.906895534573e+01       1.646385033791e-06 
       3.138793597714e+01       1.194726410069e-06 
       3.389191366484e+01       8.351211556039e-07 
       3.659564657905e+01       5.542250875345e-07 
       3.951507022538e+01       3.412745877653e-07 
       4.266739136701e+01       1.873002866462e-07 
       4.607118943941e+01       8.440126306974e-08 
       4.974652605557e+01       2.503440441790e-08 
       5.371506324689e+01       1.390258959090e-09 
       5.800019113685e+01       4.949498816914e-09 
       6.262716579983e+01       2.632880131611e-08 
       6.762325811764e+01       5.556998428984e-08 
