# Matter power spectrum P(k) at redshift z=0
# for k=1.04775e-05 to 67.6233 h/Mpc,
# number of wavenumbers equal to 246
#    1:k (h/Mpc)              2:P (Mpc/h)^3        
       1.047750691338e-05       5.020964806750e+01 
       1.131335172818e-05       5.407048206553e+01 
       1.221587619877e-05       5.822819063902e+01 
       1.319039970550e-05       6.270562589680e+01 
       1.424266598317e-05       6.752731788102e+01 
       1.537887697396e-05       7.271977200258e+01 
       1.660572938097e-05       7.831147241542e+01 
       1.793045413791e-05       8.433311815128e+01 
       1.936085902737e-05       9.081778242446e+01 
       2.090537469909e-05       9.780108061341e+01 
       2.257310435923e-05       1.053213197032e+02 
       2.437387742372e-05       1.134197377001e+02 
       2.631830745176e-05       1.221408202816e+02 
       2.841785470091e-05       1.315324720916e+02 
       3.068489367268e-05       1.416462093729e+02 
       3.313278604643e-05       1.525374500691e+02 
       3.577595943165e-05       1.642660687078e+02 
       3.862999240274e-05       1.768963504868e+02 
       4.171170631739e-05       1.904975992460e+02 
       4.503926445983e-05       2.051444490305e+02 
       4.863227909323e-05       2.209171463752e+02 
       5.251192705226e-05       2.379022222314e+02 
       5.670107455699e-05       2.561927925483e+02 
       6.122441198393e-05       2.758890441791e+02 
       6.610859938837e-05       2.970989225466e+02 
       7.138242363583e-05       3.199385558200e+02 
       7.707696806873e-05       3.445329780878e+02 
       8.322579570814e-05       3.710167315928e+02 
       8.986514707061e-05       3.995346440954e+02 
       9.703415376577e-05       4.302425403884e+02 
       1.047750691338e-04       4.633080762974e+02 
       1.131335172818e-04       4.989116267507e+02 
       1.221587619877e-04       5.372471946561e+02 
       1.319039970550e-04       5.785234124633e+02 
       1.424266598317e-04       6.229645930980e+02 
       1.537887697396e-04       6.708118484951e+02 
       1.660572938097e-04       7.223242660220e+02 
       1.793045413791e-04       7.777801557890e+02 
       1.936085902737e-04       8.374783607333e+02 
       2.090537469909e-04       9.017396264495e+02 
       2.257310435923e-04       9.709080260152e+02 
       2.437387742372e-04       1.045352448644e+03 
       2.631830745176e-04       1.125468122836e+03 
       2.841785470091e-04       1.211678179511e+03 
       3.068489367268e-04       1.304435249091e+03 
       3.313278604643e-04       1.404223052541e+03 
       3.577595943165e-04       1.511558013390e+03 
       3.862999240274e-04       1.626990836449e+03 
       4.171170631739e-04       1.751108027371e+03 
       4.503926445983e-04       1.884533381345e+03 
       4.863227909323e-04       2.027929376471e+03 
       5.251192705226e-04       2.181998446367e+03 
       5.670107455699e-04       2.347484100857e+03 
       6.122441198393e-04       2.525171869337e+03 
       6.610859938837e-04       2.715889981402e+03 
       7.138242363583e-04       2.920509686090e+03 
       7.707696806873e-04       3.139945097711e+03 
       8.322579570814e-04       3.375152334396e+03 
       8.986514707061e-04       3.627127828231e+03 
       9.703415376577e-04       3.896905450016e+03 
       1.047750691338e-03       4.185552170956e+03 
       1.131335172818e-03       4.494162426791e+03 
       1.221587619877e-03       4.823850702663e+03 
       1.319039970550e-03       5.175742738316e+03 
       1.424266598317e-03       5.551019592520e+03 
       1.537887697396e-03       5.950788335878e+03 
       1.660572938097e-03       6.376123046804e+03 
       1.793045413791e-03       6.828073896113e+03 
       1.936085902737e-03       7.307625375386e+03 
       2.090537469909e-03       7.815671858446e+03 
       2.257310435923e-03       8.352990369403e+03 
       2.437387742372e-03       8.920211057543e+03 
       2.631830745176e-03       9.517783061890e+03 
       2.841785470091e-03       1.014593703671e+04 
       3.068489367268e-03       1.080464505735e+04 
       3.313278604643e-03       1.149357459423e+04 
       3.577595943165e-03       1.221203620826e+04 
       3.862999240274e-03       1.295892538505e+04 
       4.171170631739e-03       1.373266002350e+04 
       4.503926445983e-03       1.453111834595e+04 
       4.863227909323e-03       1.535154984227e+04 
       5.251192705226e-03       1.619063613436e+04 
       5.670107455699e-03       1.704431256577e+04 
       6.122441198393e-03       1.790755938458e+04 
       6.610859938837e-03       1.877460489898e+04 
       7.138242363583e-03       1.963872429096e+04 
       7.707696806873e-03       2.049215713703e+04 
       8.322579570814e-03       2.132607230566e+04 
       8.986514707061e-03       2.213054924703e+04 
       9.703415376577e-03       2.289445470798e+04 
       1.047750691338e-02       2.360548636125e+04 
       1.131335172818e-02       2.425023183378e+04 
       1.221587619877e-02       2.481423920950e+04 
       1.319039970550e-02       2.528218872898e+04 
       1.424266598317e-02       2.563814580823e+04 
       1.537887697392e-02       2.586607326521e+04 
       1.660572938023e-02       2.595024843542e+04 
       1.793045412706e-02       2.587634128323e+04 
       1.936085890181e-02       2.563221956172e+04 
       2.090537352463e-02       2.520934122139e+04 
       2.257309535333e-02       2.460444119229e+04 
       2.437382002918e-02       2.382089067157e+04 
       2.631799944462e-02       2.287045419021e+04 
       2.841644545389e-02       2.177447572246e+04 
       3.067933355377e-02       2.056555453328e+04 
       3.311368470740e-02       1.928729269603e+04 
       3.571840443502e-02       1.799402428539e+04 
       3.847720348444e-02       1.674685430886e+04 
       4.135335538431e-02       1.560466136939e+04 
       4.429361667738e-02       1.461041111522e+04 
       4.724366439141e-02       1.378053646225e+04 
       5.016480835311e-02       1.310507719003e+04 
       5.303989620246e-02       1.255714376084e+04 
       5.586870669566e-02       1.210426116667e+04 
       5.866042680613e-02       1.171464871651e+04 
       6.142798932958e-02       1.136044638409e+04 
       6.418496440164e-02       1.101857660816e+04 
       6.694418833788e-02       1.067069234074e+04 
       6.971731106057e-02       1.030356312293e+04 
       7.251476155766e-02       9.908979041465e+03 
       7.534587671527e-02       9.483779515806e+03 
       7.821907666265e-02       9.029499078676e+03 
       8.114203772912e-02       8.552323162307e+03 
       8.412184535029e-02       8.061980562496e+03 
       8.716512279304e-02       7.570768359741e+03 
       9.027813695930e-02       7.092504490190e+03 
       9.346688431697e-02       6.640500292958e+03 
       9.673716028276e-02       6.226709592548e+03 
       1.000946150830e-01       5.859925031992e+03 
       1.035447986537e-01       5.545226359429e+03 
       1.070931966762e-01       5.283127894020e+03 
       1.107452594425e-01       5.069418937066e+03 
       1.145064249153e-01       4.895242085741e+03 
       1.183821370918e-01       4.747837035857e+03 
       1.223778605862e-01       4.611745188733e+03 
       1.264990921987e-01       4.470621244681e+03 
       1.307513701367e-01       4.310277239208e+03 
       1.351402814784e-01       4.121395894399e+03 
       1.396714684203e-01       3.902061488998e+03 
       1.443506338194e-01       3.658642305424e+03 
       1.491835465229e-01       3.404484040215e+03 
       1.541760469708e-01       3.156682014123e+03 
       1.593340535561e-01       2.931982784814e+03 
       1.646635702297e-01       2.742372193946e+03 
       1.701706958456e-01       2.592262913738e+03 
       1.758616357459e-01       2.477238236892e+03 
       1.817427160982e-01       2.385180548888e+03 
       1.878204015065e-01       2.300366691484e+03 
       1.941013164283e-01       2.205760743484e+03 
       2.005922709503e-01       2.090814455467e+03 
       2.073002914972e-01       1.956469478268e+03 
       2.142326570816e-01       1.814193766827e+03 
       2.213969417533e-01       1.679297230134e+03 
       2.288010639706e-01       1.563849061716e+03 
       2.364533437147e-01       1.472685519899e+03 
       2.443625682930e-01       1.401509322141e+03 
       2.525380679504e-01       1.338413120801e+03 
       2.609898026346e-01       1.270900283756e+03 
       2.697284615565e-01       1.193381970059e+03 
       2.787655775689e-01       1.109341043973e+03 
       2.881136588829e-01       1.028770685382e+03 
       2.977863412677e-01       9.604825077708e+02 
       3.077985646929e-01       9.050235746602e+02 
       3.181667794071e-01       8.561480026811e+02 
       3.289091877812e-01       8.061867453332e+02 
       3.400460299658e-01       7.523906480501e+02 
       3.515999236474e-01       6.989255780156e+02 
       3.635962711085e-01       6.510648875885e+02 
       3.760637506334e-01       6.101225962082e+02 
       3.890349143879e-01       5.721321917282e+02 
       4.025469216825e-01       5.337818614465e+02 
       4.166424456376e-01       4.956325031491e+02 
       4.313708035863e-01       4.604696839070e+02 
       4.467893782977e-01       4.287796693648e+02 
       4.629654199664e-01       3.987728565474e+02 
       4.799783501994e-01       3.692420018491e+02 
       4.979227319373e-01       3.412406045783e+02 
       5.169121270864e-01       3.154857760354e+02 
       5.370841404489e-01       2.908352445170e+02 
       5.586070464571e-01       2.671064484546e+02 
       5.816885094930e-01       2.448105193537e+02 
       6.065870144995e-01       2.235681963852e+02 
       6.336266468475e-01       2.032107795098e+02 
       6.632156059511e-01       1.838794055223e+02 
       6.958678639263e-01       1.653551501380e+02 
       7.322247985589e-01       1.476953341258e+02 
       7.730680195114e-01       1.308341874502e+02 
       8.193049553677e-01       1.148313133881e+02 
       8.718988016039e-01       9.976262041157e+01 
       9.317218031082e-01       8.577831174062e+01 
       9.993660908989e-01       7.305513036449e+01 
       1.075037110174e+00       6.173599615277e+01 
       1.158653485707e+00       5.187938372159e+01 
       1.250099157308e+00       4.344030601271e+01 
       1.349432401273e+00       3.628964454117e+01 
       1.456947457397e+00       3.026810301986e+01 
       1.573135111331e+00       2.521473473099e+01 
       1.698621895592e+00       2.098210749729e+01 
       1.834127512934e+00       1.744248902415e+01 
       1.980444934528e+00       1.448573736109e+01 
       2.138435191726e+00       1.201902585202e+01 
       2.309029199186e+00       9.963239300115e+00 
       2.493232377687e+00       8.251905455167e+00 
       2.692130395285e+00       6.828666140523e+00 
       2.906895534573e+00       5.646267988145e+00 
       3.138793597714e+00       4.664929422079e+00 
       3.389191366484e+00       3.851135080461e+00 
       3.659564657905e+00       3.176973081452e+00 
       3.951507022538e+00       2.618903196290e+00 
       4.266739136701e+00       2.157357619674e+00 
       4.607118943941e+00       1.775952584364e+00 
       4.974652605557e+00       1.461005881891e+00 
       5.371506324689e+00       1.201140237250e+00 
       5.800019113685e+00       9.868858920382e-01 
       6.262716579983e+00       8.103575864611e-01 
       6.762325811764e+00       6.650133915673e-01 
       7.301791451110e+00       5.454302133816e-01 
       7.884293049406e+00       4.471013903456e-01 
       8.513263807261e+00       3.662992233709e-01 
       9.192410809424e+00       2.999416437883e-01 
       9.925736873929e+00       2.454828597964e-01 
       1.071756414427e+01       2.008079003631e-01 
       1.157255956364e+01       1.641878801553e-01 
       1.249576238137e+01       1.341765277813e-01 
       1.349261385375e+01       1.096047066758e-01 
       1.456898931416e+01       8.948954181148e-02 
       1.573123280165e+01       7.303375889890e-02 
       1.698619445202e+01       5.957842355878e-02 
       1.834127087176e+01       4.858139559078e-02 
       1.980444873285e+01       3.959722639921e-02 
       2.138435184532e+01       3.226122145844e-02 
       2.309029198506e+01       2.627341396176e-02 
       2.493232377636e+01       2.138854918850e-02 
       2.692130395282e+01       1.740469954527e-02 
       2.906895534573e+01       1.415747339559e-02 
       3.138793597714e+01       1.151137976562e-02 
       3.389191366484e+01       9.356042742475e-03 
       3.659564657905e+01       7.601317560983e-03 
       3.951507022538e+01       6.173146434444e-03 
       4.266739136701e+01       5.011186486160e-03 
       4.607118943941e+01       4.066215961591e-03 
       4.974652605557e+01       3.298010037039e-03 
       5.371506324689e+01       2.673735543887e-03 
       5.800019113685e+01       2.166606216620e-03 
       6.262716579983e+01       1.754745871618e-03 
       6.762325811764e+01       1.420481199696e-03 
