# Matter power spectrum P(k) at redshift z=99
# for k=1.04775e-05 to 67.6233 h/Mpc,
# number of wavenumbers equal to 246
#    1:k (h/Mpc)              2:P (Mpc/h)^3        
       1.047750691338e-05       7.261927673119e-03 
       1.131335172818e-05       7.820331745737e-03 
       1.221587619877e-05       8.421675986488e-03 
       1.319039970550e-05       9.069258192194e-03 
       1.424266598317e-05       9.766638404421e-03 
       1.537887697396e-05       1.051764069682e-02 
       1.660572938097e-05       1.132639105520e-02 
       1.793045413791e-05       1.219733231416e-02 
       1.936085902737e-05       1.313524224380e-02 
       2.090537469909e-05       1.414527121893e-02 
       2.257310435923e-05       1.523296272192e-02 
       2.437387742372e-05       1.640429444530e-02 
       2.631830745176e-05       1.766569582177e-02 
       2.841785470091e-05       1.902408601793e-02 
       3.068489367268e-05       2.048692970591e-02 
       3.313278604643e-05       2.206225513594e-02 
       3.577595943165e-05       2.375870704909e-02 
       3.862999240274e-05       2.558560727479e-02 
       4.171170631739e-05       2.755297763344e-02 
       4.503926445983e-05       2.967161927313e-02 
       4.863227909323e-05       3.195316450832e-02 
       5.251192705226e-05       3.441013519284e-02 
       5.670107455699e-05       3.705601722526e-02 
       6.122441198393e-05       3.990533413561e-02 
       6.610859938837e-05       4.297372168203e-02 
       7.138242363583e-05       4.627802141688e-02 
       7.707696806873e-05       4.983636194159e-02 
       8.322579570814e-05       5.366826847231e-02 
       8.986514707061e-05       5.779476394568e-02 
       9.703415376577e-05       6.223848243885e-02 
       1.047750691338e-04       6.702379865640e-02 
       1.131335172818e-04       7.217695153381e-02 
       1.221587619877e-04       7.772619073572e-02 
       1.319039970550e-04       8.370193432375e-02 
       1.424266598317e-04       9.013692507547e-02 
       1.537887697396e-04       9.706641242570e-02 
       1.660572938097e-04       1.045283354271e-01 
       1.793045413791e-04       1.125635349068e-01 
       1.936085902737e-04       1.212159614968e-01 
       2.090537469909e-04       1.305329132714e-01 
       2.257310435923e-04       1.405652846215e-01 
       2.437387742372e-04       1.513678302540e-01 
       2.631830745176e-04       1.629994504870e-01 
       2.841785470091e-04       1.755234921224e-01 
       3.068489367268e-04       1.890080670413e-01 
       3.313278604643e-04       2.035264002435e-01 
       3.577595943165e-04       2.191571803681e-01 
       3.862999240274e-04       2.359849437593e-01 
       4.171170631739e-04       2.541004741539e-01 
       4.503926445983e-04       2.736012080277e-01 
       4.863227909323e-04       2.945916790965e-01 
       5.251192705226e-04       3.171839525183e-01 
       5.670107455699e-04       3.414980764002e-01 
       6.122441198393e-04       3.676625413100e-01 
       6.610859938837e-04       3.958147252303e-01 
       7.138242363583e-04       4.261013284909e-01 
       7.707696806873e-04       4.586787792352e-01 
       8.322579570814e-04       4.937136001369e-01 
       8.986514707061e-04       5.313826801402e-01 
       9.703415376577e-04       5.718734972157e-01 
       1.047750691338e-03       6.153841629505e-01 
       1.131335172818e-03       6.621233239466e-01 
       1.221587619877e-03       7.123098220426e-01 
       1.319039970550e-03       7.661720584580e-01 
       1.424266598317e-03       8.239546297730e-01 
       1.537887697396e-03       8.859011173466e-01 
       1.660572938097e-03       9.522588006418e-01 
       1.793045413791e-03       1.023280099819e+00 
       1.936085902737e-03       1.099216304579e+00 
       2.090537469909e-03       1.180312990454e+00 
       2.257310435923e-03       1.266804115850e+00 
       2.437387742372e-03       1.358904853404e+00 
       2.631830745176e-03       1.456802683156e+00 
       2.841785470091e-03       1.560646890522e+00 
       3.068489367268e-03       1.670536062500e+00 
       3.313278604643e-03       1.786503852158e+00 
       3.577595943165e-03       1.908502930789e+00 
       3.862999240274e-03       2.036387730709e+00 
       4.171170631739e-03       2.169896177899e+00 
       4.503926445983e-03       2.308631878994e+00 
       4.863227909323e-03       2.452047290962e+00 
       5.251192705226e-03       2.599430628088e+00 
       5.670107455699e-03       2.749896931839e+00 
       6.122441198393e-03       2.902386513387e+00 
       6.610859938837e-03       3.055668700904e+00 
       7.138242363583e-03       3.208356461545e+00 
       7.707696806873e-03       3.358923892788e+00 
       8.322579570814e-03       3.505725595369e+00 
       8.986514707061e-03       3.647009565174e+00 
       9.703415376577e-03       3.780923304273e+00 
       1.047750691338e-02       3.905491534232e+00 
       1.131335172818e-02       4.018587953012e+00 
       1.221587619877e-02       4.117901587103e+00 
       1.319039970550e-02       4.200915275975e+00 
       1.424266598317e-02       4.264942773713e+00 
       1.537887697392e-02       4.307219240017e+00 
       1.660572938023e-02       4.325065215634e+00 
       1.793045412706e-02       4.316056805279e+00 
       1.936085890181e-02       4.278231423976e+00 
       2.090537352463e-02       4.210204092388e+00 
       2.257309535333e-02       4.111420826796e+00 
       2.437382002918e-02       3.982419705931e+00 
       2.631799944462e-02       3.825172308901e+00 
       2.841644545389e-02       3.643278803026e+00 
       3.067933355377e-02       3.442194404240e+00 
       3.311368470740e-02       3.229241212536e+00 
       3.571840443502e-02       3.013511164506e+00 
       3.847720348444e-02       2.805286858703e+00 
       4.135335538431e-02       2.614414563416e+00 
       4.429361667738e-02       2.448137415758e+00 
       4.724366439141e-02       2.309238639381e+00 
       5.016480835311e-02       2.196115194797e+00 
       5.303989620246e-02       2.104363457856e+00 
       5.586870669566e-02       2.028462533470e+00 
       5.866042680613e-02       1.963154853452e+00 
       6.142798932958e-02       1.903781165963e+00 
       6.418496440164e-02       1.846477523063e+00 
       6.694418833788e-02       1.788198805131e+00 
       6.971731106057e-02       1.726717107945e+00 
       7.251476155766e-02       1.660653141091e+00 
       7.534587671527e-02       1.589471866766e+00 
       7.821907666265e-02       1.513437494783e+00 
       8.114203772912e-02       1.433567626190e+00 
       8.412184535029e-02       1.351494674493e+00 
       8.716512279304e-02       1.269274015567e+00 
       9.027813695930e-02       1.189194792936e+00 
       9.346688431697e-02       1.113499889883e+00 
       9.673716028276e-02       1.044178026445e+00 
       1.000946150830e-01       9.827053141204e-01 
       1.035447986537e-01       9.299395469564e-01 
       1.070931966762e-01       8.859622168939e-01 
       1.107452594425e-01       8.500709631795e-01 
       1.145064249153e-01       8.208029500508e-01 
       1.183821370918e-01       7.960248939403e-01 
       1.223778605862e-01       7.731447229424e-01 
       1.264990921987e-01       7.494515577201e-01 
       1.307513701367e-01       7.225572431698e-01 
       1.351402814784e-01       6.909085135030e-01 
       1.396714684203e-01       6.541804759938e-01 
       1.443506338194e-01       6.134269894461e-01 
       1.491835465229e-01       5.708682837731e-01 
       1.541760469708e-01       5.293641679589e-01 
       1.593340535561e-01       4.917109400122e-01 
       1.646635702297e-01       4.599203042522e-01 
       1.701706958456e-01       4.347288492845e-01 
       1.758616357459e-01       4.154083255280e-01 
       1.817427160982e-01       3.999375572114e-01 
       1.878204015065e-01       3.856826040666e-01 
       1.941013164283e-01       3.698099269868e-01 
       2.005922709503e-01       3.505455289015e-01 
       2.073002914972e-01       3.280439242752e-01 
       2.142326570816e-01       3.042133513047e-01 
       2.213969417533e-01       2.816116841746e-01 
       2.288010639706e-01       2.622568223887e-01 
       2.364533437147e-01       2.469614682783e-01 
       2.443625682930e-01       2.350136548880e-01 
       2.525380679504e-01       2.244176246552e-01 
       2.609898026346e-01       2.130933677120e-01 
       2.697284615565e-01       2.001015832153e-01 
       2.787655775689e-01       1.860195233108e-01 
       2.881136588829e-01       1.725174055606e-01 
       2.977863412677e-01       1.610664562768e-01 
       3.077985646929e-01       1.517608867825e-01 
       3.181667794071e-01       1.435591507409e-01 
       3.289091877812e-01       1.351817515787e-01 
       3.400460299658e-01       1.261643862591e-01 
       3.515999236474e-01       1.172018392060e-01 
       3.635962711085e-01       1.091770169278e-01 
       3.760637506334e-01       1.023096422905e-01 
       3.890349143879e-01       9.593767682748e-02 
       4.025469216825e-01       8.950794964970e-02 
       4.166424456376e-01       8.311190394208e-02 
       4.313708035863e-01       7.721554127480e-02 
       4.467893782977e-01       7.190074471462e-02 
       4.629654199664e-01       6.686902504155e-02 
       4.799783501994e-01       6.191772278307e-02 
       4.979227319373e-01       5.722225654935e-02 
       5.169121270864e-01       5.290296300782e-02 
       5.370841404489e-01       4.876978956805e-02 
       5.586070464571e-01       4.479068761894e-02 
       5.816885094930e-01       4.105188470486e-02 
       6.065870144995e-01       3.748992020091e-02 
       6.336266468475e-01       3.407626002618e-02 
       6.632156059511e-01       3.083463018726e-02 
       6.958678639263e-01       2.772826485296e-02 
       7.322247985589e-01       2.476713339113e-02 
       7.730680195114e-01       2.193952788131e-02 
       8.193049553677e-01       1.925610605882e-02 
       8.718988016039e-01       1.672926342200e-02 
       9.317218031082e-01       1.438419929516e-02 
       9.993660908989e-01       1.225068735309e-02 
       1.075037110174e+00       1.035259093619e-02 
       1.158653485707e+00       8.699722091607e-03 
       1.250099157308e+00       7.284559218955e-03 
       1.349432401273e+00       6.085457227767e-03 
       1.456947457397e+00       5.075710292318e-03 
       1.573135111331e+00       4.228292872624e-03 
       1.698621895592e+00       3.518520029107e-03 
       1.834127512934e+00       2.924947673791e-03 
       1.980444934528e+00       2.429127984347e-03 
       2.138435191726e+00       2.015475125773e-03 
       2.309029199186e+00       1.670737617095e-03 
       2.493232377687e+00       1.383757012342e-03 
       2.692130395285e+00       1.145072905279e-03 
       2.906895534573e+00       9.468014392085e-04 
       3.138793597714e+00       7.822264675542e-04 
       3.389191366484e+00       6.457563001408e-04 
       3.659564657905e+00       5.326932394853e-04 
       3.951507022538e+00       4.391046682127e-04 
       4.266739136701e+00       3.616988007352e-04 
       4.607118943941e+00       2.977293322786e-04 
       4.974652605557e+00       2.449074759172e-04 
       5.371506324689e+00       2.013172095752e-04 
       5.800019113685e+00       1.653772904269e-04 
       6.262716579983e+00       1.357626583163e-04 
       6.762325811764e+00       1.113762908774e-04 
       7.301791451110e+00       9.130887320396e-05 
       7.884293049406e+00       7.480404396178e-05 
       8.513263807261e+00       6.123834625850e-05 
       9.192410809424e+00       5.009364368859e-05 
       9.925736873929e+00       4.094212357447e-05 
       1.071756414427e+01       3.343151642497e-05 
       1.157255956364e+01       2.726905373452e-05 
       1.249576238137e+01       2.221512924962e-05 
       1.349261385375e+01       1.807125782303e-05 
       1.456898931416e+01       1.467414963669e-05 
       1.573123280165e+01       1.188981493068e-05 
       1.698619445202e+01       9.607852441369e-06 
       1.834127087176e+01       7.737572507088e-06 
       1.980444873285e+01       6.204761740968e-06 
       2.138435184532e+01       4.948664893834e-06 
       2.309029198506e+01       3.919430003414e-06 
       2.493232377636e+01       3.076628663591e-06 
       2.692130395282e+01       2.387368668944e-06 
       2.906895534573e+01       1.824871839207e-06 
       3.138793597714e+01       1.367804338071e-06 
       3.389191366484e+01       9.988782380972e-07 
       3.659564657905e+01       7.043444070065e-07 
       3.951507022538e+01       4.732792316101e-07 
       4.266739136701e+01       2.968355105170e-07 
       4.607118943941e+01       1.677580145906e-07 
       4.974652605557e+01       7.971368780229e-08 
       5.371506324689e+01       2.679840410683e-08 
       5.800019113685e+01       3.002942558080e-09 
       6.262716579983e+01       1.830113266143e-09 
       6.762325811764e+01       1.612257069975e-08 
