# Matter power spectrum P(k) at redshift z=0
# for k=1.04775e-05 to 67.6233 h/Mpc,
# number of wavenumbers equal to 246
#    1:k (h/Mpc)              2:P (Mpc/h)^3        
       1.047750691338e-05       5.020964806749e+01 
       1.131335172818e-05       5.407048206553e+01 
       1.221587619877e-05       5.822819063835e+01 
       1.319039970550e-05       6.270562589683e+01 
       1.424266598317e-05       6.752731788102e+01 
       1.537887697396e-05       7.271977200257e+01 
       1.660572938097e-05       7.831147241542e+01 
       1.793045413791e-05       8.433311815128e+01 
       1.936085902737e-05       9.081778242446e+01 
       2.090537469909e-05       9.780108061340e+01 
       2.257310435923e-05       1.053213197032e+02 
       2.437387742372e-05       1.134197377001e+02 
       2.631830745176e-05       1.221408202816e+02 
       2.841785470091e-05       1.315324720916e+02 
       3.068489367268e-05       1.416462093730e+02 
       3.313278604643e-05       1.525374500691e+02 
       3.577595943165e-05       1.642660687078e+02 
       3.862999240274e-05       1.768963504868e+02 
       4.171170631739e-05       1.904975992460e+02 
       4.503926445983e-05       2.051444490305e+02 
       4.863227909323e-05       2.209171463752e+02 
       5.251192705226e-05       2.379022222314e+02 
       5.670107455699e-05       2.561927925607e+02 
       6.122441198393e-05       2.758890441791e+02 
       6.610859938837e-05       2.970989225466e+02 
       7.138242363583e-05       3.199385558200e+02 
       7.707696806873e-05       3.445329780878e+02 
       8.322579570814e-05       3.710167315928e+02 
       8.986514707061e-05       3.995346440954e+02 
       9.703415376577e-05       4.302425403884e+02 
       1.047750691338e-04       4.633080762974e+02 
       1.131335172818e-04       4.989116267507e+02 
       1.221587619877e-04       5.372471946561e+02 
       1.319039970550e-04       5.785234124630e+02 
       1.424266598317e-04       6.229645930980e+02 
       1.537887697396e-04       6.708118484951e+02 
       1.660572938097e-04       7.223242660220e+02 
       1.793045413791e-04       7.777801550013e+02 
       1.936085902737e-04       8.374783607333e+02 
       2.090537469909e-04       9.017396264495e+02 
       2.257310435923e-04       9.709080260152e+02 
       2.437387742372e-04       1.045352448644e+03 
       2.631830745176e-04       1.125468122835e+03 
       2.841785470091e-04       1.211678179510e+03 
       3.068489367268e-04       1.304435249091e+03 
       3.313278604643e-04       1.404223052541e+03 
       3.577595943165e-04       1.511558013390e+03 
       3.862999240274e-04       1.626990836477e+03 
       4.171170631739e-04       1.751108027370e+03 
       4.503926445983e-04       1.884533381345e+03 
       4.863227909323e-04       2.027929376470e+03 
       5.251192705226e-04       2.181998446367e+03 
       5.670107455699e-04       2.347484100857e+03 
       6.122441198393e-04       2.525171869335e+03 
       6.610859938837e-04       2.715889981400e+03 
       7.138242363583e-04       2.920509686091e+03 
       7.707696806873e-04       3.139945097710e+03 
       8.322579570814e-04       3.375152334394e+03 
       8.986514707061e-04       3.627127828229e+03 
       9.703415376577e-04       3.896905450014e+03 
       1.047750691338e-03       4.185552170963e+03 
       1.131335172818e-03       4.494162426787e+03 
       1.221587619877e-03       4.823850702666e+03 
       1.319039970550e-03       5.175742735053e+03 
       1.424266598317e-03       5.551019592510e+03 
       1.537887697396e-03       5.950788335867e+03 
       1.660572938097e-03       6.376123046785e+03 
       1.793045413791e-03       6.828073896113e+03 
       1.936085902737e-03       7.307625375365e+03 
       2.090537469909e-03       7.815671860158e+03 
       2.257310435923e-03       8.352990369353e+03 
       2.437387742372e-03       8.920211057477e+03 
       2.631830745176e-03       9.517783061832e+03 
       2.841785470091e-03       1.014593703664e+04 
       3.068489367268e-03       1.080464505736e+04 
       3.313278604643e-03       1.149357459459e+04 
       3.577595943165e-03       1.221203620811e+04 
       3.862999240274e-03       1.295892538487e+04 
       4.171170631739e-03       1.373266002347e+04 
       4.503926445983e-03       1.453111834566e+04 
       4.863227909323e-03       1.535154983171e+04 
       5.251192705226e-03       1.619063607186e+04 
       5.670107455699e-03       1.704431256233e+04 
       6.122441198393e-03       1.790755942081e+04 
       6.610859938837e-03       1.877460422075e+04 
       7.138242363583e-03       1.963872440964e+04 
       7.707696806873e-03       2.049215713207e+04 
       8.322579570814e-03       2.132611396317e+04 
       8.986514707061e-03       2.213054989190e+04 
       9.703415376577e-03       2.289445516519e+04 
       1.047750691338e-02       2.360548697710e+04 
       1.131335172818e-02       2.425022761237e+04 
       1.221587619877e-02       2.481423935144e+04 
       1.319039970550e-02       2.528218955802e+04 
       1.424266598317e-02       2.563814919996e+04 
       1.537887697392e-02       2.586607966388e+04 
       1.660572938023e-02       2.595027477181e+04 
       1.793045412706e-02       2.587633700438e+04 
       1.936085890181e-02       2.563220184772e+04 
       2.090537352463e-02       2.520933231318e+04 
       2.257309535333e-02       2.460446023973e+04 
       2.437382002918e-02       2.382085643237e+04 
       2.631799944462e-02       2.287037387076e+04 
       2.841644545389e-02       2.177463868554e+04 
       3.067933355377e-02       2.056554859585e+04 
       3.311368470740e-02       1.928730480570e+04 
       3.571840443502e-02       1.799405338964e+04 
       3.847720348444e-02       1.674681672857e+04 
       4.135335538431e-02       1.560455073064e+04 
       4.429361667738e-02       1.461032159865e+04 
       4.724366439141e-02       1.378055502944e+04 
       5.016480835311e-02       1.310502677940e+04 
       5.303989620246e-02       1.255717622971e+04 
       5.586870669566e-02       1.210424180928e+04 
       5.866042680613e-02       1.171468484529e+04 
       6.142798932958e-02       1.136050782626e+04 
       6.418496440164e-02       1.101863584555e+04 
       6.694418833788e-02       1.067071872372e+04 
       6.971731106057e-02       1.030362656023e+04 
       7.251476155766e-02       9.909075124050e+03 
       7.534587671527e-02       9.483710905036e+03 
       7.821907666265e-02       9.029444700665e+03 
       8.114203772912e-02       8.552339261875e+03 
       8.412184535029e-02       8.061952809797e+03 
       8.716512279304e-02       7.570790535901e+03 
       9.027813695930e-02       7.092502653543e+03 
       9.346688431697e-02       6.640521438291e+03 
       9.673716028276e-02       6.226732040051e+03 
       1.000946150830e-01       5.859957439668e+03 
       1.035447986537e-01       5.545267702435e+03 
       1.070931966762e-01       5.283154821633e+03 
       1.107452594425e-01       5.069444768110e+03 
       1.145064249153e-01       4.895262986497e+03 
       1.183821370918e-01       4.747848961547e+03 
       1.223778605862e-01       4.611732921690e+03 
       1.264990921987e-01       4.470623153180e+03 
       1.307513701367e-01       4.310257949531e+03 
       1.351402814784e-01       4.121388405446e+03 
       1.396714684203e-01       3.902062509524e+03 
       1.443506338194e-01       3.658659725020e+03 
       1.491835465229e-01       3.404480461150e+03 
       1.541760469708e-01       3.156642033843e+03 
       1.593340535561e-01       2.931945378065e+03 
       1.646635702297e-01       2.742357397489e+03 
       1.701706958456e-01       2.592236145176e+03 
       1.758616357459e-01       2.477216047344e+03 
       1.817427160982e-01       2.385173045464e+03 
       1.878204015065e-01       2.300349960596e+03 
       1.941013164283e-01       2.205780295646e+03 
       2.005922709503e-01       2.090843662952e+03 
       2.073002914972e-01       1.956467464448e+03 
       2.142326570816e-01       1.814175500855e+03 
       2.213969417533e-01       1.679273059454e+03 
       2.288010639706e-01       1.563832017368e+03 
       2.364533437147e-01       1.472671689397e+03 
       2.443625682930e-01       1.401505851631e+03 
       2.525380679504e-01       1.338417499809e+03 
       2.609898026346e-01       1.270901193799e+03 
       2.697284615565e-01       1.193356953874e+03 
       2.787655775689e-01       1.109333589942e+03 
       2.881136588829e-01       1.028761412936e+03 
       2.977863412677e-01       9.604725498014e+02 
       3.077985646929e-01       9.050157717696e+02 
       3.181667794071e-01       8.561344520203e+02 
       3.289091877812e-01       8.061779716556e+02 
       3.400460299658e-01       7.523786226975e+02 
       3.515999236474e-01       6.989134521902e+02 
       3.635962711085e-01       6.510551010122e+02 
       3.760637506334e-01       6.101183055346e+02 
       3.890349143879e-01       5.721221057936e+02 
       4.025469216825e-01       5.337710295386e+02 
       4.166424456376e-01       4.956237328180e+02 
       4.313708035863e-01       4.604592393602e+02 
       4.467893782977e-01       4.287683366656e+02 
       4.629654199664e-01       3.987637233453e+02 
       4.799783501994e-01       3.692335420106e+02 
       4.979227319373e-01       3.412335458871e+02 
       5.169121270864e-01       3.154763861015e+02 
       5.370841404489e-01       2.908283195513e+02 
       5.586070464571e-01       2.670980960049e+02 
       5.816885094930e-01       2.448023509338e+02 
       6.065870144995e-01       2.235604402847e+02 
       6.336266468475e-01       2.032029320079e+02 
       6.632156059511e-01       1.838705120705e+02 
       6.958678639263e-01       1.653464317774e+02 
       7.322247985589e-01       1.476866279051e+02 
       7.730680195114e-01       1.308247858704e+02 
       8.193049553677e-01       1.148206788336e+02 
       8.718988016039e-01       9.975124324180e+01 
       9.317218031082e-01       8.576637781546e+01 
       9.993660908989e-01       7.304214392404e+01 
       1.075037110174e+00       6.172199778880e+01 
       1.158653485707e+00       5.186372563694e+01 
       1.250099157308e+00       4.342320323311e+01 
       1.349432401273e+00       3.627062952160e+01 
       1.456947457397e+00       3.024733640855e+01 
       1.573135111331e+00       2.519186895416e+01 
       1.698621895592e+00       2.095716530478e+01 
       1.834127512934e+00       1.741497696039e+01 
       1.980444934528e+00       1.445553138033e+01 
       2.138435191726e+00       1.198586147248e+01 
       2.309029199186e+00       9.926840654041e+00 
       2.493232377687e+00       8.211963568353e+00 
       2.692130395285e+00       6.784995196799e+00 
       2.906895534573e+00       5.598503828155e+00 
       3.138793597714e+00       4.612731382017e+00 
       3.389191366484e+00       3.794181540365e+00 
       3.659564657905e+00       3.114882707631e+00 
       3.951507022538e+00       2.551365280741e+00 
       4.266739136701e+00       2.084061233739e+00 
       4.607118943941e+00       1.696566002517e+00 
       4.974652605557e+00       1.375290713079e+00 
       5.371506324689e+00       1.108890563351e+00 
       5.800019113685e+00       8.879965617195e-01 
       6.262716579983e+00       7.048560062580e-01 
       6.762325811764e+00       5.530962408648e-01 
       7.301791451110e+00       4.275410629211e-01 
       7.884293049406e+00       3.239556386657e-01 
       8.513263807261e+00       2.389853384112e-01 
       9.192410809424e+00       1.699611802849e-01 
       9.925736873929e+00       1.148165914538e-01 
       1.071756414427e+01       7.194809403646e-02 
       1.157255956364e+01       4.009848753824e-02 
       1.249576238137e+01       1.821543792938e-02 
       1.349261385375e+01       5.294871333562e-03 
       1.456898931416e+01       2.065955474890e-04 
       1.573123280165e+01       1.529528333380e-03 
       1.698619445202e+01       7.429060766681e-03 
       1.834127087176e+01       1.563742378040e-02 
       1.980444873285e+01       2.360726558653e-02 
       2.138435184532e+01       2.888122575438e-02 
       2.309029198506e+01       2.967163789528e-02 
       2.493232377636e+01       2.549502641967e-02 
       2.692130395282e+01       1.758466266186e-02 
       2.906895534573e+01       8.703561313588e-03 
       3.138793597714e+01       2.126784296219e-03 
       3.389191366484e+01       5.889179131023e-06 
       3.659564657905e+01       1.972555888837e-03 
       3.951507022538e+01       5.173158195240e-03 
       4.266739136701e+01       6.271073242234e-03 
       4.607118943941e+01       4.219892364022e-03 
       4.974652605557e+01       1.169172261016e-03 
       5.371506324689e+01       4.766526772242e-06 
       5.800019113685e+01       9.217028999876e-04 
       6.262716579983e+01       1.549715569458e-03 
       6.762325811764e+01       7.389749357148e-04 
