# Matter power spectrum P(k) at redshift z=0
# for k=1.04775e-05 to 67.6233 h/Mpc,
# number of wavenumbers equal to 246
#    1:k (h/Mpc)              2:P (Mpc/h)^3        
       1.047750691338e-05       5.020964806751e+01 
       1.131335172818e-05       5.407048206554e+01 
       1.221587619877e-05       5.822819064066e+01 
       1.319039970550e-05       6.270562589679e+01 
       1.424266598317e-05       6.752731788102e+01 
       1.537887697396e-05       7.271977200258e+01 
       1.660572938097e-05       7.831147241542e+01 
       1.793045413791e-05       8.433311815128e+01 
       1.936085902737e-05       9.081778242446e+01 
       2.090537469909e-05       9.780108061340e+01 
       2.257310435923e-05       1.053213197032e+02 
       2.437387742372e-05       1.134197377001e+02 
       2.631830745176e-05       1.221408202815e+02 
       2.841785470091e-05       1.315324720916e+02 
       3.068489367268e-05       1.416462093730e+02 
       3.313278604643e-05       1.525374500691e+02 
       3.577595943165e-05       1.642660687078e+02 
       3.862999240274e-05       1.768963504868e+02 
       4.171170631739e-05       1.904975992460e+02 
       4.503926445983e-05       2.051444490305e+02 
       4.863227909323e-05       2.209171463752e+02 
       5.251192705226e-05       2.379022222314e+02 
       5.670107455699e-05       2.561927925425e+02 
       6.122441198393e-05       2.758890441791e+02 
       6.610859938837e-05       2.970989225465e+02 
       7.138242363583e-05       3.199385558200e+02 
       7.707696806873e-05       3.445329780878e+02 
       8.322579570814e-05       3.710167315928e+02 
       8.986514707061e-05       3.995346440954e+02 
       9.703415376577e-05       4.302425403884e+02 
       1.047750691338e-04       4.633080762974e+02 
       1.131335172818e-04       4.989116267507e+02 
       1.221587619877e-04       5.372471946561e+02 
       1.319039970550e-04       5.785234124633e+02 
       1.424266598317e-04       6.229645930980e+02 
       1.537887697396e-04       6.708118484951e+02 
       1.660572938097e-04       7.223242660220e+02 
       1.793045413791e-04       7.777801554323e+02 
       1.936085902737e-04       8.374783607333e+02 
       2.090537469909e-04       9.017396264495e+02 
       2.257310435923e-04       9.709080260152e+02 
       2.437387742372e-04       1.045352448644e+03 
       2.631830745176e-04       1.125468122836e+03 
       2.841785470091e-04       1.211678179511e+03 
       3.068489367268e-04       1.304435249091e+03 
       3.313278604643e-04       1.404223052541e+03 
       3.577595943165e-04       1.511558013390e+03 
       3.862999240274e-04       1.626990836426e+03 
       4.171170631739e-04       1.751108027370e+03 
       4.503926445983e-04       1.884533381345e+03 
       4.863227909323e-04       2.027929376470e+03 
       5.251192705226e-04       2.181998446367e+03 
       5.670107455699e-04       2.347484100857e+03 
       6.122441198393e-04       2.525171869334e+03 
       6.610859938837e-04       2.715889981400e+03 
       7.138242363583e-04       2.920509686088e+03 
       7.707696806873e-04       3.139945097709e+03 
       8.322579570814e-04       3.375152334395e+03 
       8.986514707061e-04       3.627127828231e+03 
       9.703415376577e-04       3.896905450016e+03 
       1.047750691338e-03       4.185552170960e+03 
       1.131335172818e-03       4.494162426791e+03 
       1.221587619877e-03       4.823850702669e+03 
       1.319039970550e-03       5.175742738780e+03 
       1.424266598317e-03       5.551019592516e+03 
       1.537887697396e-03       5.950788335882e+03 
       1.660572938097e-03       6.376123046805e+03 
       1.793045413791e-03       6.828073896117e+03 
       1.936085902737e-03       7.307625375386e+03 
       2.090537469909e-03       7.815671860131e+03 
       2.257310435923e-03       8.352990369395e+03 
       2.437387742372e-03       8.920211057542e+03 
       2.631830745176e-03       9.517783061890e+03 
       2.841785470091e-03       1.014593703671e+04 
       3.068489367268e-03       1.080464505735e+04 
       3.313278604643e-03       1.149357459423e+04 
       3.577595943165e-03       1.221203620826e+04 
       3.862999240274e-03       1.295892538505e+04 
       4.171170631739e-03       1.373266002577e+04 
       4.503926445983e-03       1.453111834595e+04 
       4.863227909323e-03       1.535154984220e+04 
       5.251192705226e-03       1.619063613394e+04 
       5.670107455699e-03       1.704431256577e+04 
       6.122441198393e-03       1.790755938480e+04 
       6.610859938837e-03       1.877460418841e+04 
       7.138242363583e-03       1.963872429176e+04 
       7.707696806873e-03       2.049215712373e+04 
       8.322579570814e-03       2.132606808042e+04 
       8.986514707061e-03       2.213054919618e+04 
       9.703415376577e-03       2.289445471102e+04 
       1.047750691338e-02       2.360547779133e+04 
       1.131335172818e-02       2.425023241707e+04 
       1.221587619877e-02       2.481423922339e+04 
       1.319039970550e-02       2.528218873230e+04 
       1.424266598317e-02       2.563815290441e+04 
       1.537887697392e-02       2.586608161973e+04 
       1.660572938023e-02       2.595028876026e+04 
       1.793045412706e-02       2.587634273717e+04 
       1.936085890181e-02       2.563219153805e+04 
       2.090537352463e-02       2.520934422321e+04 
       2.257309535333e-02       2.460447197730e+04 
       2.437382002918e-02       2.382087527742e+04 
       2.631799944462e-02       2.287044614472e+04 
       2.841644545389e-02       2.177448732266e+04 
       3.067933355377e-02       2.056556541884e+04 
       3.311368470740e-02       1.928738858187e+04 
       3.571840443502e-02       1.799400543671e+04 
       3.847720348444e-02       1.674681130241e+04 
       4.135335538431e-02       1.560453801303e+04 
       4.429361667738e-02       1.461039016283e+04 
       4.724366439141e-02       1.378056678828e+04 
       5.016480835311e-02       1.310503299480e+04 
       5.303989620246e-02       1.255716201886e+04 
       5.586870669566e-02       1.210429282072e+04 
       5.866042680613e-02       1.171467347815e+04 
       6.142798932958e-02       1.136047893166e+04 
       6.418496440164e-02       1.101854830515e+04 
       6.694418833788e-02       1.067067655080e+04 
       6.971731106057e-02       1.030356223858e+04 
       7.251476155766e-02       9.909016375648e+03 
       7.534587671527e-02       9.483783154150e+03 
       7.821907666265e-02       9.029528578139e+03 
       8.114203772912e-02       8.552307741616e+03 
       8.412184535029e-02       8.061909872150e+03 
       8.716512279304e-02       7.570774054120e+03 
       9.027813695930e-02       7.092471628220e+03 
       9.346688431697e-02       6.640497606132e+03 
       9.673716028276e-02       6.226674611238e+03 
       1.000946150830e-01       5.859898654975e+03 
       1.035447986537e-01       5.545243711412e+03 
       1.070931966762e-01       5.283164340715e+03 
       1.107452594425e-01       5.069420864466e+03 
       1.145064249153e-01       4.895238213599e+03 
       1.183821370918e-01       4.747841285674e+03 
       1.223778605862e-01       4.611746273826e+03 
       1.264990921987e-01       4.470617251754e+03 
       1.307513701367e-01       4.310268122599e+03 
       1.351402814784e-01       4.121383637909e+03 
       1.396714684203e-01       3.902069522408e+03 
       1.443506338194e-01       3.658647767262e+03 
       1.491835465229e-01       3.404463839583e+03 
       1.541760469708e-01       3.156673757084e+03 
       1.593340535561e-01       2.931982378466e+03 
       1.646635702297e-01       2.742373767165e+03 
       1.701706958456e-01       2.592253757671e+03 
       1.758616357459e-01       2.477232354577e+03 
       1.817427160982e-01       2.385181105380e+03 
       1.878204015065e-01       2.300359578796e+03 
       1.941013164283e-01       2.205755823522e+03 
       2.005922709503e-01       2.090816386642e+03 
       2.073002914972e-01       1.956465867142e+03 
       2.142326570816e-01       1.814194084575e+03 
       2.213969417533e-01       1.679286345497e+03 
       2.288010639706e-01       1.563845896423e+03 
       2.364533437147e-01       1.472688453929e+03 
       2.443625682930e-01       1.401511234581e+03 
       2.525380679504e-01       1.338414018755e+03 
       2.609898026346e-01       1.270900072158e+03 
       2.697284615565e-01       1.193380321377e+03 
       2.787655775689e-01       1.109336566038e+03 
       2.881136588829e-01       1.028771311827e+03 
       2.977863412677e-01       9.604822051390e+02 
       3.077985646929e-01       9.050226457978e+02 
       3.181667794071e-01       8.561438808517e+02 
       3.289091877812e-01       8.061860663666e+02 
       3.400460299658e-01       7.523927108764e+02 
       3.515999236474e-01       6.989215099835e+02 
       3.635962711085e-01       6.510624558705e+02 
       3.760637506334e-01       6.101190120494e+02 
       3.890349143879e-01       5.721323173695e+02 
       4.025469216825e-01       5.337822248687e+02 
       4.166424456376e-01       4.956311845326e+02 
       4.313708035863e-01       4.604692124822e+02 
       4.467893782977e-01       4.287776891833e+02 
       4.629654199664e-01       3.987719102986e+02 
       4.799783501994e-01       3.692408825265e+02 
       4.979227319373e-01       3.412402864368e+02 
       5.169121270864e-01       3.154837260117e+02 
       5.370841404489e-01       2.908354750344e+02 
       5.586070464571e-01       2.671059205838e+02 
       5.816885094930e-01       2.448087374286e+02 
       6.065870144995e-01       2.235677990042e+02 
       6.336266468475e-01       2.032097348913e+02 
       6.632156059511e-01       1.838789914620e+02 
       6.958678639263e-01       1.653548113617e+02 
       7.322247985589e-01       1.476955509029e+02 
       7.730680195114e-01       1.308333110204e+02 
       8.193049553677e-01       1.148312173509e+02 
       8.718988016039e-01       9.976260646524e+01 
       9.317218031082e-01       8.577771945353e+01 
       9.993660908989e-01       7.305448087154e+01 
       1.075037110174e+00       6.173559225320e+01 
       1.158653485707e+00       5.187859920935e+01 
       1.250099157308e+00       4.343970082233e+01 
       1.349432401273e+00       3.628877331194e+01 
       1.456947457397e+00       3.026718752414e+01 
       1.573135111331e+00       2.521365214792e+01 
       1.698621895592e+00       2.098114859712e+01 
       1.834127512934e+00       1.744132834006e+01 
       1.980444934528e+00       1.448451639122e+01 
       2.138435191726e+00       1.201765029127e+01 
       2.309029199186e+00       9.961702218090e+00 
       2.493232377687e+00       8.250189371328e+00 
       2.692130395285e+00       6.826830697009e+00 
       2.906895534573e+00       5.644289173981e+00 
       3.138793597714e+00       4.662744538068e+00 
       3.389191366484e+00       3.848745834680e+00 
       3.659564657905e+00       3.174322943570e+00 
       3.951507022538e+00       2.616024870511e+00 
       4.266739136701e+00       2.154223935010e+00 
       4.607118943941e+00       1.772530824289e+00 
       4.974652605557e+00       1.457286539454e+00 
       5.371506324689e+00       1.197088690286e+00 
       5.800019113685e+00       9.824763090054e-01 
       6.262716579983e+00       8.055731468364e-01 
       6.762325811764e+00       6.598264915063e-01 
       7.301791451110e+00       5.398159447306e-01 
       7.884293049406e+00       4.410299103464e-01 
       8.513263807261e+00       3.597530399900e-01 
       9.192410809424e+00       2.928981861485e-01 
       9.925736873929e+00       2.379157357990e-01 
       1.071756414427e+01       1.927094175952e-01 
       1.157255956364e+01       1.555379815093e-01 
       1.249576238137e+01       1.249805039891e-01 
       1.349261385375e+01       9.986133236946e-02 
       1.456898931416e+01       7.921872340117e-02 
       1.573123280165e+01       6.226622518259e-02 
       1.698619445202e+01       4.836476155065e-02 
       1.834127087176e+01       3.699181487207e-02 
       1.980444873285e+01       2.772848499438e-02 
       2.138435184532e+01       2.023739187665e-02 
       2.309029198506e+01       1.424910027189e-02 
       2.493232377636e+01       9.548049074805e-03 
       2.692130395282e+01       5.959988413116e-03 
       2.906895534573e+01       3.340664681190e-03 
       3.138793597714e+01       1.563022184358e-03 
       3.389191366484e+01       5.067390990969e-04 
       3.659564657905e+01       4.758828532832e-05 
       3.951507022538e+01       4.985592235996e-05 
       4.266739136701e+01       3.633227152199e-04 
       4.607118943941e+01       8.269060033275e-04 
       4.974652605557e+01       1.281011384205e-03 
       5.371506324689e+01       1.588063796153e-03 
       5.800019113685e+01       1.658280252652e-03 
       6.262716579983e+01       1.472318499566e-03 
       6.762325811764e+01       1.089800082900e-03 
