# Matter power spectrum P(k) at redshift z=99
# for k=1.04775e-05 to 67.6233 h/Mpc,
# number of wavenumbers equal to 246
#    1:k (h/Mpc)              2:P (Mpc/h)^3        
       1.047750691338e-05       7.261927673119e-03 
       1.131335172818e-05       7.820331745737e-03 
       1.221587619877e-05       8.421675986489e-03 
       1.319039970550e-05       9.069258192194e-03 
       1.424266598317e-05       9.766638404421e-03 
       1.537887697396e-05       1.051764069681e-02 
       1.660572938097e-05       1.132639105520e-02 
       1.793045413791e-05       1.219733231416e-02 
       1.936085902737e-05       1.313524224380e-02 
       2.090537469909e-05       1.414527121893e-02 
       2.257310435923e-05       1.523296272192e-02 
       2.437387742372e-05       1.640429444530e-02 
       2.631830745176e-05       1.766569582177e-02 
       2.841785470091e-05       1.902408601793e-02 
       3.068489367268e-05       2.048692970591e-02 
       3.313278604643e-05       2.206225513594e-02 
       3.577595943165e-05       2.375870704909e-02 
       3.862999240274e-05       2.558560727479e-02 
       4.171170631739e-05       2.755297763344e-02 
       4.503926445983e-05       2.967161927315e-02 
       4.863227909323e-05       3.195316450832e-02 
       5.251192705226e-05       3.441013519284e-02 
       5.670107455699e-05       3.705601722527e-02 
       6.122441198393e-05       3.990533413562e-02 
       6.610859938837e-05       4.297372168203e-02 
       7.138242363583e-05       4.627802141688e-02 
       7.707696806873e-05       4.983636194159e-02 
       8.322579570814e-05       5.366826847231e-02 
       8.986514707061e-05       5.779476394569e-02 
       9.703415376577e-05       6.223848243885e-02 
       1.047750691338e-04       6.702379865640e-02 
       1.131335172818e-04       7.217695153381e-02 
       1.221587619877e-04       7.772619073572e-02 
       1.319039970550e-04       8.370193432376e-02 
       1.424266598317e-04       9.013692507548e-02 
       1.537887697396e-04       9.706641242570e-02 
       1.660572938097e-04       1.045283354271e-01 
       1.793045413791e-04       1.125635349068e-01 
       1.936085902737e-04       1.212159614968e-01 
       2.090537469909e-04       1.305329132714e-01 
       2.257310435923e-04       1.405652846215e-01 
       2.437387742372e-04       1.513678302540e-01 
       2.631830745176e-04       1.629994504870e-01 
       2.841785470091e-04       1.755234921224e-01 
       3.068489367268e-04       1.890080670413e-01 
       3.313278604643e-04       2.035264002435e-01 
       3.577595943165e-04       2.191571803681e-01 
       3.862999240274e-04       2.359849437593e-01 
       4.171170631739e-04       2.541004741539e-01 
       4.503926445983e-04       2.736012080278e-01 
       4.863227909323e-04       2.945916790965e-01 
       5.251192705226e-04       3.171839525182e-01 
       5.670107455699e-04       3.414980764002e-01 
       6.122441198393e-04       3.676625413100e-01 
       6.610859938837e-04       3.958147252304e-01 
       7.138242363583e-04       4.261013284924e-01 
       7.707696806873e-04       4.586787792354e-01 
       8.322579570814e-04       4.937136001343e-01 
       8.986514707061e-04       5.313826801402e-01 
       9.703415376577e-04       5.718734972157e-01 
       1.047750691338e-03       6.153841629505e-01 
       1.131335172818e-03       6.621233239466e-01 
       1.221587619877e-03       7.123098220434e-01 
       1.319039970550e-03       7.661720584341e-01 
       1.424266598317e-03       8.239546297727e-01 
       1.537887697396e-03       8.859011173466e-01 
       1.660572938097e-03       9.522588006423e-01 
       1.793045413791e-03       1.023280099819e+00 
       1.936085902737e-03       1.099216304579e+00 
       2.090537469909e-03       1.180312990453e+00 
       2.257310435923e-03       1.266804115851e+00 
       2.437387742372e-03       1.358904853408e+00 
       2.631830745176e-03       1.456802683156e+00 
       2.841785470091e-03       1.560646890522e+00 
       3.068489367268e-03       1.670536062501e+00 
       3.313278604643e-03       1.786503852163e+00 
       3.577595943165e-03       1.908502930788e+00 
       3.862999240274e-03       2.036387730709e+00 
       4.171170631739e-03       2.169896178197e+00 
       4.503926445983e-03       2.308631878994e+00 
       4.863227909323e-03       2.452047290962e+00 
       5.251192705226e-03       2.599430628088e+00 
       5.670107455699e-03       2.749896931810e+00 
       6.122441198393e-03       2.902386513385e+00 
       6.610859938837e-03       3.055668696940e+00 
       7.138242363583e-03       3.208356461547e+00 
       7.707696806873e-03       3.358923893449e+00 
       8.322579570814e-03       3.505725150840e+00 
       8.986514707061e-03       3.647009615620e+00 
       9.703415376577e-03       3.780923304294e+00 
       1.047750691338e-02       3.905490258799e+00 
       1.131335172818e-02       4.018588531698e+00 
       1.221587619877e-02       4.117901579689e+00 
       1.319039970550e-02       4.200915477134e+00 
       1.424266598317e-02       4.264942354132e+00 
       1.537887697392e-02       4.307217225039e+00 
       1.660572938023e-02       4.325062986363e+00 
       1.793045412706e-02       4.316058987045e+00 
       1.936085890181e-02       4.278231590694e+00 
       2.090537352463e-02       4.210199148572e+00 
       2.257309535333e-02       4.111419968750e+00 
       2.437382002918e-02       3.982412488466e+00 
       2.631799944462e-02       3.825164865340e+00 
       2.841644545389e-02       3.643283143125e+00 
       3.067933355377e-02       3.442196953882e+00 
       3.311368470740e-02       3.229236298917e+00 
       3.571840443502e-02       3.013520055708e+00 
       3.847720348444e-02       2.805275910881e+00 
       4.135335538431e-02       2.614387435065e+00 
       4.429361667738e-02       2.448138548213e+00 
       4.724366439141e-02       2.309239112668e+00 
       5.016480835311e-02       2.196111806660e+00 
       5.303989620246e-02       2.104370406574e+00 
       5.586870669566e-02       2.028460056083e+00 
       5.866042680613e-02       1.963152976590e+00 
       6.142798932958e-02       1.903780747152e+00 
       6.418496440164e-02       1.846477206012e+00 
       6.694418833788e-02       1.788198127288e+00 
       6.971731106057e-02       1.726715515649e+00 
       7.251476155766e-02       1.660654254091e+00 
       7.534587671527e-02       1.589470218492e+00 
       7.821907666265e-02       1.513440146664e+00 
       8.114203772912e-02       1.433568677128e+00 
       8.412184535029e-02       1.351492885342e+00 
       8.716512279304e-02       1.269274157672e+00 
       9.027813695930e-02       1.189195302612e+00 
       9.346688431697e-02       1.113501033978e+00 
       9.673716028276e-02       1.044173889609e+00 
       1.000946150830e-01       9.827063129566e-01 
       1.035447986537e-01       9.299388070703e-01 
       1.070931966762e-01       8.859601951105e-01 
       1.107452594425e-01       8.500706050430e-01 
       1.145064249153e-01       8.208053322568e-01 
       1.183821370918e-01       7.960255640382e-01 
       1.223778605862e-01       7.731464868538e-01 
       1.264990921987e-01       7.494527976026e-01 
       1.307513701367e-01       7.225568366375e-01 
       1.351402814784e-01       6.909095812724e-01 
       1.396714684203e-01       6.541806461442e-01 
       1.443506338194e-01       6.134271637373e-01 
       1.491835465229e-01       5.708687173530e-01 
       1.541760469708e-01       5.293637716507e-01 
       1.593340535561e-01       4.917106879958e-01 
       1.646635702297e-01       4.599194481834e-01 
       1.701706958456e-01       4.347281068055e-01 
       1.758616357459e-01       4.154087013751e-01 
       1.817427160982e-01       3.999370483424e-01 
       1.878204015065e-01       3.856826593873e-01 
       1.941013164283e-01       3.698091939558e-01 
       2.005922709503e-01       3.505458177267e-01 
       2.073002914972e-01       3.280424258189e-01 
       2.142326570816e-01       3.042138222131e-01 
       2.213969417533e-01       2.816118327642e-01 
       2.288010639706e-01       2.622574466584e-01 
       2.364533437147e-01       2.469622328111e-01 
       2.443625682930e-01       2.350136697409e-01 
       2.525380679504e-01       2.244177312570e-01 
       2.609898026346e-01       2.130941414117e-01 
       2.697284615565e-01       2.001023204236e-01 
       2.787655775689e-01       1.860201395998e-01 
       2.881136588829e-01       1.725177424384e-01 
       2.977863412677e-01       1.610662095731e-01 
       3.077985646929e-01       1.517611375407e-01 
       3.181667794071e-01       1.435597031175e-01 
       3.289091877812e-01       1.351817408365e-01 
       3.400460299658e-01       1.261644747371e-01 
       3.515999236474e-01       1.172018924151e-01 
       3.635962711085e-01       1.091770609593e-01 
       3.760637506334e-01       1.023099017507e-01 
       3.890349143879e-01       9.593793943490e-02 
       4.025469216825e-01       8.950750458357e-02 
       4.166424456376e-01       8.311201180378e-02 
       4.313708035863e-01       7.721558127021e-02 
       4.467893782977e-01       7.190052874977e-02 
       4.629654199664e-01       6.686906071820e-02 
       4.799783501994e-01       6.191758007385e-02 
       4.979227319373e-01       5.722238757725e-02 
       5.169121270864e-01       5.290304997201e-02 
       5.370841404489e-01       4.877002368270e-02 
       5.586070464571e-01       4.479081051264e-02 
       5.816885094930e-01       4.105190220593e-02 
       6.065870144995e-01       3.748990629783e-02 
       6.336266468475e-01       3.407626063976e-02 
       6.632156059511e-01       3.083461277273e-02 
       6.958678639263e-01       2.772835896865e-02 
       7.322247985589e-01       2.476715730017e-02 
       7.730680195114e-01       2.193968112908e-02 
       8.193049553677e-01       1.925613087962e-02 
       8.718988016039e-01       1.672933854000e-02 
       9.317218031082e-01       1.438425172107e-02 
       9.993660908989e-01       1.225065953769e-02 
       1.075037110174e+00       1.035260220443e-02 
       1.158653485707e+00       8.699719716974e-03 
       1.250099157308e+00       7.284615897892e-03 
       1.349432401273e+00       6.085470684696e-03 
       1.456947457397e+00       5.075719938265e-03 
       1.573135111331e+00       4.228313185105e-03 
       1.698621895592e+00       3.518546257004e-03 
       1.834127512934e+00       2.924990725366e-03 
       1.980444934528e+00       2.429168877006e-03 
       2.138435191726e+00       2.015509404809e-03 
       2.309029199186e+00       1.670783289796e-03 
       2.493232377687e+00       1.383796152115e-03 
       2.692130395285e+00       1.145139270038e-03 
       2.906895534573e+00       9.468576576315e-04 
       3.138793597714e+00       7.822876935991e-04 
       3.389191366484e+00       6.458244982848e-04 
       3.659564657905e+00       5.327683716045e-04 
       3.951507022538e+00       4.391870748755e-04 
       4.266739136701e+00       3.617884458093e-04 
       4.607118943941e+00       2.978268088230e-04 
       4.974652605557e+00       2.450132058949e-04 
       5.371506324689e+00       2.014358120562e-04 
       5.800019113685e+00       1.655057165240e-04 
       6.262716579983e+00       1.359036251369e-04 
       6.762325811764e+00       1.115302175761e-04 
       7.301791451110e+00       9.147555249407e-05 
       7.884293049406e+00       7.498595012071e-05 
       8.513263807261e+00       6.143601863150e-05 
       9.192410809424e+00       5.030807278441e-05 
       9.925736873929e+00       4.117521386968e-05 
       1.071756414427e+01       3.368320944608e-05 
       1.157255956364e+01       2.754162545559e-05 
       1.249576238137e+01       2.250900084958e-05 
       1.349261385375e+01       1.838743684605e-05 
       1.456898931416e+01       1.501416021572e-05 
       1.573123280165e+01       1.225430638265e-05 
       1.698619445202e+01       9.997544901425e-06 
       1.834127087176e+01       8.153051311664e-06 
       1.980444873285e+01       6.646235026375e-06 
       2.138435184532e+01       5.415730019475e-06 
       2.309029198506e+01       4.411338475287e-06 
       2.493232377636e+01       3.591858930514e-06 
       2.692130395282e+01       2.923553820056e-06 
       2.906895534573e+01       2.378748108965e-06 
       3.138793597714e+01       1.934764712173e-06 
       3.389191366484e+01       1.573096518632e-06 
       3.659564657905e+01       1.278618156261e-06 
       3.951507022538e+01       1.038906411027e-06 
       4.266739136701e+01       8.438657594544e-07 
       4.607118943941e+01       6.852133029958e-07 
       4.974652605557e+01       5.562023166381e-07 
       5.371506324689e+01       4.513404207488e-07 
       5.800019113685e+01       3.661292581312e-07 
       6.262716579983e+01       2.969136203783e-07 
       6.762325811764e+01       2.407013608605e-07 
