# Matter power spectrum P(k) at redshift z=0
# for k=1.04775e-05 to 67.6233 h/Mpc,
# number of wavenumbers equal to 246
#    1:k (h/Mpc)              2:P (Mpc/h)^3        
       1.047750691338e-05       5.020964806756e+01 
       1.131335172818e-05       5.407048206553e+01 
       1.221587619877e-05       5.822819063714e+01 
       1.319039970550e-05       6.270562589680e+01 
       1.424266598317e-05       6.752731788102e+01 
       1.537887697396e-05       7.271977200258e+01 
       1.660572938097e-05       7.831147241542e+01 
       1.793045413791e-05       8.433311815128e+01 
       1.936085902737e-05       9.081778242446e+01 
       2.090537469909e-05       9.780108061339e+01 
       2.257310435923e-05       1.053213197032e+02 
       2.437387742372e-05       1.134197377001e+02 
       2.631830745176e-05       1.221408202815e+02 
       2.841785470091e-05       1.315324720916e+02 
       3.068489367268e-05       1.416462093729e+02 
       3.313278604643e-05       1.525374500691e+02 
       3.577595943165e-05       1.642660687078e+02 
       3.862999240274e-05       1.768963504868e+02 
       4.171170631739e-05       1.904975992460e+02 
       4.503926445983e-05       2.051444490305e+02 
       4.863227909323e-05       2.209171463752e+02 
       5.251192705226e-05       2.379022222314e+02 
       5.670107455699e-05       2.561927925726e+02 
       6.122441198393e-05       2.758890441791e+02 
       6.610859938837e-05       2.970989225466e+02 
       7.138242363583e-05       3.199385558200e+02 
       7.707696806873e-05       3.445329780878e+02 
       8.322579570814e-05       3.710167315928e+02 
       8.986514707061e-05       3.995346440954e+02 
       9.703415376577e-05       4.302425403884e+02 
       1.047750691338e-04       4.633080762974e+02 
       1.131335172818e-04       4.989116267507e+02 
       1.221587619877e-04       5.372471946561e+02 
       1.319039970550e-04       5.785234124633e+02 
       1.424266598317e-04       6.229645930980e+02 
       1.537887697396e-04       6.708118484951e+02 
       1.660572938097e-04       7.223242660219e+02 
       1.793045413791e-04       7.777801553808e+02 
       1.936085902737e-04       8.374783607334e+02 
       2.090537469909e-04       9.017396264495e+02 
       2.257310435923e-04       9.709080260152e+02 
       2.437387742372e-04       1.045352448644e+03 
       2.631830745176e-04       1.125468122836e+03 
       2.841785470091e-04       1.211678179511e+03 
       3.068489367268e-04       1.304435249091e+03 
       3.313278604643e-04       1.404223052541e+03 
       3.577595943165e-04       1.511558013390e+03 
       3.862999240274e-04       1.626990836503e+03 
       4.171170631739e-04       1.751108027371e+03 
       4.503926445983e-04       1.884533381345e+03 
       4.863227909323e-04       2.027929376470e+03 
       5.251192705226e-04       2.181998446367e+03 
       5.670107455699e-04       2.347484100857e+03 
       6.122441198393e-04       2.525171869335e+03 
       6.610859938837e-04       2.715889981400e+03 
       7.138242363583e-04       2.920509686081e+03 
       7.707696806873e-04       3.139945097710e+03 
       8.322579570814e-04       3.375152334395e+03 
       8.986514707061e-04       3.627127828231e+03 
       9.703415376577e-04       3.896905450016e+03 
       1.047750691338e-03       4.185552170959e+03 
       1.131335172818e-03       4.494162426791e+03 
       1.221587619877e-03       4.823850702670e+03 
       1.319039970550e-03       5.175742734977e+03 
       1.424266598317e-03       5.551019592523e+03 
       1.537887697396e-03       5.950788335875e+03 
       1.660572938097e-03       6.376123046803e+03 
       1.793045413791e-03       6.828073896109e+03 
       1.936085902737e-03       7.307625375386e+03 
       2.090537469909e-03       7.815671898022e+03 
       2.257310435923e-03       8.352990369400e+03 
       2.437387742372e-03       8.920211057526e+03 
       2.631830745176e-03       9.517783061890e+03 
       2.841785470091e-03       1.014593703671e+04 
       3.068489367268e-03       1.080464505744e+04 
       3.313278604643e-03       1.149357459458e+04 
       3.577595943165e-03       1.221203620826e+04 
       3.862999240274e-03       1.295892538505e+04 
       4.171170631739e-03       1.373266002036e+04 
       4.503926445983e-03       1.453111834595e+04 
       4.863227909323e-03       1.535154984220e+04 
       5.251192705226e-03       1.619063613394e+04 
       5.670107455699e-03       1.704431256574e+04 
       6.122441198393e-03       1.790755938474e+04 
       6.610859938837e-03       1.877460318657e+04 
       7.138242363583e-03       1.963872429177e+04 
       7.707696806873e-03       2.049215712347e+04 
       8.322579570814e-03       2.132607230923e+04 
       8.986514707061e-03       2.213055397231e+04 
       9.703415376577e-03       2.289445471107e+04 
       1.047750691338e-02       2.360548382371e+04 
       1.131335172818e-02       2.425023484237e+04 
       1.221587619877e-02       2.481423923313e+04 
       1.319039970550e-02       2.528218651104e+04 
       1.424266598317e-02       2.563814383588e+04 
       1.537887697392e-02       2.586605859921e+04 
       1.660572938023e-02       2.595025109596e+04 
       1.793045412706e-02       2.587635697541e+04 
       1.936085890181e-02       2.563221423300e+04 
       2.090537352463e-02       2.520936623045e+04 
       2.257309535333e-02       2.460445149431e+04 
       2.437382002918e-02       2.382092753453e+04 
       2.631799944462e-02       2.287044984080e+04 
       2.841644545389e-02       2.177449721052e+04 
       3.067933355377e-02       2.056552096726e+04 
       3.311368470740e-02       1.928735625775e+04 
       3.571840443502e-02       1.799399500955e+04 
       3.847720348444e-02       1.674688716101e+04 
       4.135335538431e-02       1.560464985232e+04 
       4.429361667738e-02       1.461035259085e+04 
       4.724366439141e-02       1.378056134766e+04 
       5.016480835311e-02       1.310506694875e+04 
       5.303989620246e-02       1.255714407335e+04 
       5.586870669566e-02       1.210428673280e+04 
       5.866042680613e-02       1.171467080401e+04 
       6.142798932958e-02       1.136048610677e+04 
       6.418496440164e-02       1.101855417786e+04 
       6.694418833788e-02       1.067070432130e+04 
       6.971731106057e-02       1.030355782126e+04 
       7.251476155766e-02       9.909009504839e+03 
       7.534587671527e-02       9.483768496179e+03 
       7.821907666265e-02       9.029503206959e+03 
       8.114203772912e-02       8.552296662610e+03 
       8.412184535029e-02       8.061909735805e+03 
       8.716512279304e-02       7.570768948535e+03 
       9.027813695930e-02       7.092482538366e+03 
       9.346688431697e-02       6.640527834413e+03 
       9.673716028276e-02       6.226669106853e+03 
       1.000946150830e-01       5.859923895912e+03 
       1.035447986537e-01       5.545242971233e+03 
       1.070931966762e-01       5.283148331789e+03 
       1.107452594425e-01       5.069417789585e+03 
       1.145064249153e-01       4.895238356176e+03 
       1.183821370918e-01       4.747833075462e+03 
       1.223778605862e-01       4.611745070811e+03 
       1.264990921987e-01       4.470623595481e+03 
       1.307513701367e-01       4.310266678220e+03 
       1.351402814784e-01       4.121377311623e+03 
       1.396714684203e-01       3.902058152515e+03 
       1.443506338194e-01       3.658645580411e+03 
       1.491835465229e-01       3.404466033372e+03 
       1.541760469708e-01       3.156670502040e+03 
       1.593340535561e-01       2.931977152040e+03 
       1.646635702297e-01       2.742375948426e+03 
       1.701706958456e-01       2.592261840857e+03 
       1.758616357459e-01       2.477232707060e+03 
       1.817427160982e-01       2.385185890234e+03 
       1.878204015065e-01       2.300357501675e+03 
       1.941013164283e-01       2.205760638949e+03 
       2.005922709503e-01       2.090816475482e+03 
       2.073002914972e-01       1.956460973715e+03 
       2.142326570816e-01       1.814191252371e+03 
       2.213969417533e-01       1.679286055623e+03 
       2.288010639706e-01       1.563846528851e+03 
       2.364533437147e-01       1.472686841506e+03 
       2.443625682930e-01       1.401511332039e+03 
       2.525380679504e-01       1.338411417623e+03 
       2.609898026346e-01       1.270899974568e+03 
       2.697284615565e-01       1.193380412925e+03 
       2.787655775689e-01       1.109338907462e+03 
       2.881136588829e-01       1.028771457328e+03 
       2.977863412677e-01       9.604824782280e+02 
       3.077985646929e-01       9.050229734044e+02 
       3.181667794071e-01       8.561413106028e+02 
       3.289091877812e-01       8.061859893690e+02 
       3.400460299658e-01       7.523898607265e+02 
       3.515999236474e-01       6.989191023275e+02 
       3.635962711085e-01       6.510620794705e+02 
       3.760637506334e-01       6.101213452377e+02 
       3.890349143879e-01       5.721310979909e+02 
       4.025469216825e-01       5.337817820544e+02 
       4.166424456376e-01       4.956305067757e+02 
       4.313708035863e-01       4.604672498319e+02 
       4.467893782977e-01       4.287778731266e+02 
       4.629654199664e-01       3.987723885163e+02 
       4.799783501994e-01       3.692409544151e+02 
       4.979227319373e-01       3.412408700588e+02 
       5.169121270864e-01       3.154831666600e+02 
       5.370841404489e-01       2.908345104921e+02 
       5.586070464571e-01       2.671060432425e+02 
       5.816885094930e-01       2.448096868572e+02 
       6.065870144995e-01       2.235674799169e+02 
       6.336266468475e-01       2.032098910169e+02 
       6.632156059511e-01       1.838786383930e+02 
       6.958678639263e-01       1.653546684164e+02 
       7.322247985589e-01       1.476958109497e+02 
       7.730680195114e-01       1.308343178485e+02 
       8.193049553677e-01       1.148311380677e+02 
       8.718988016039e-01       9.976225049954e+01 
       9.317218031082e-01       8.577770740539e+01 
       9.993660908989e-01       7.305448105092e+01 
       1.075037110174e+00       6.173521748337e+01 
       1.158653485707e+00       5.187868178055e+01 
       1.250099157308e+00       4.343960438161e+01 
       1.349432401273e+00       3.628870474493e+01 
       1.456947457397e+00       3.026723535514e+01 
       1.573135111331e+00       2.521360235427e+01 
       1.698621895592e+00       2.098089676297e+01 
       1.834127512934e+00       1.744126645246e+01 
       1.980444934528e+00       1.448438124594e+01 
       2.138435191726e+00       1.201748436068e+01 
       2.309029199186e+00       9.961601902081e+00 
       2.493232377687e+00       8.250041789069e+00 
       2.692130395285e+00       6.826660496388e+00 
       2.906895534573e+00       5.644125427538e+00 
       3.138793597714e+00       4.662538679513e+00 
       3.389191366484e+00       3.848517462216e+00 
       3.659564657905e+00       3.174113480380e+00 
       3.951507022538e+00       2.615797356676e+00 
       4.266739136701e+00       2.153963654427e+00 
       4.607118943941e+00       1.772250699094e+00 
       4.974652605557e+00       1.456970925611e+00 
       5.371506324689e+00       1.196744076250e+00 
       5.800019113685e+00       9.821137784001e-01 
       6.262716579983e+00       8.051735513568e-01 
       6.762325811764e+00       6.593977833984e-01 
       7.301791451110e+00       5.393503772154e-01 
       7.884293049406e+00       4.405303799675e-01 
       8.513263807261e+00       3.592175383736e-01 
       9.192410809424e+00       2.923248930174e-01 
       9.925736873929e+00       2.373083493886e-01 
       1.071756414427e+01       1.920640880489e-01 
       1.157255956364e+01       1.548582772847e-01 
       1.249576238137e+01       1.242659232096e-01 
       1.349261385375e+01       9.911710294098e-02 
       1.456898931416e+01       7.845019592743e-02 
       1.573123280165e+01       6.148065405142e-02 
       1.698619445202e+01       4.756942326868e-02 
       1.834127087176e+01       3.619957634641e-02 
       1.980444873285e+01       2.695264455775e-02 
       2.138435184532e+01       1.949472932080e-02 
       2.309029198506e+01       1.355808418201e-02 
       2.493232377636e+01       8.928333704274e-03 
       2.692130395282e+01       5.431611288498e-03 
       2.906895534573e+01       2.921587339591e-03 
       3.138793597714e+01       1.267183391863e-03 
       3.389191366484e+01       3.408028838265e-04 
       3.659564657905e+01       8.068036620358e-06 
       3.951507022538e+01       1.208791985939e-04 
       4.266739136701e+01       5.159373838824e-04 
       4.607118943941e+01       1.021198137205e-03 
       4.974652605557e+01       1.471573645062e-03 
       5.371506324689e+01       1.732611741329e-03 
       5.800019113685e+01       1.728420600420e-03 
       6.262716579983e+01       1.462071595686e-03 
       6.762325811764e+01       1.019088810301e-03 
