# Matter power spectrum P(k) at redshift z=99
# for k=1.04775e-05 to 67.6233 h/Mpc,
# number of wavenumbers equal to 246
#    1:k (h/Mpc)              2:P (Mpc/h)^3        
       1.047750691338e-05       7.261927673157e-03 
       1.131335172818e-05       7.820331745778e-03 
       1.221587619877e-05       8.421675986533e-03 
       1.319039970550e-05       9.069258192242e-03 
       1.424266598317e-05       9.766638404473e-03 
       1.537887697396e-05       1.051764069687e-02 
       1.660572938097e-05       1.132639105526e-02 
       1.793045413791e-05       1.219733231423e-02 
       1.936085902737e-05       1.313524224387e-02 
       2.090537469909e-05       1.414527121901e-02 
       2.257310435923e-05       1.523296272200e-02 
       2.437387742372e-05       1.640429444538e-02 
       2.631830745176e-05       1.766569582187e-02 
       2.841785470091e-05       1.902408601803e-02 
       3.068489367268e-05       2.048692970602e-02 
       3.313278604643e-05       2.206225513605e-02 
       3.577595943165e-05       2.375870704921e-02 
       3.862999240274e-05       2.558560727492e-02 
       4.171170631739e-05       2.755297763358e-02 
       4.503926445983e-05       2.967161927330e-02 
       4.863227909323e-05       3.195316450849e-02 
       5.251192705226e-05       3.441013519302e-02 
       5.670107455699e-05       3.705601722546e-02 
       6.122441198393e-05       3.990533413582e-02 
       6.610859938837e-05       4.297372168226e-02 
       7.138242363583e-05       4.627802141713e-02 
       7.707696806873e-05       4.983636194185e-02 
       8.322579570814e-05       5.366826847259e-02 
       8.986514707061e-05       5.779476394599e-02 
       9.703415376577e-05       6.223848243917e-02 
       1.047750691338e-04       6.702379865675e-02 
       1.131335172818e-04       7.217695153419e-02 
       1.221587619877e-04       7.772619073611e-02 
       1.319039970550e-04       8.370193432420e-02 
       1.424266598317e-04       9.013692507593e-02 
       1.537887697396e-04       9.706641242621e-02 
       1.660572938097e-04       1.045283354277e-01 
       1.793045413791e-04       1.125635349074e-01 
       1.936085902737e-04       1.212159614975e-01 
       2.090537469909e-04       1.305329132721e-01 
       2.257310435923e-04       1.405652846222e-01 
       2.437387742372e-04       1.513678302548e-01 
       2.631830745176e-04       1.629994504879e-01 
       2.841785470091e-04       1.755234921233e-01 
       3.068489367268e-04       1.890080670423e-01 
       3.313278604643e-04       2.035264002446e-01 
       3.577595943165e-04       2.191571803692e-01 
       3.862999240274e-04       2.359849437603e-01 
       4.171170631739e-04       2.541004741551e-01 
       4.503926445983e-04       2.736012080291e-01 
       4.863227909323e-04       2.945916790979e-01 
       5.251192705226e-04       3.171839525197e-01 
       5.670107455699e-04       3.414980764018e-01 
       6.122441198393e-04       3.676625413117e-01 
       6.610859938837e-04       3.958147252321e-01 
       7.138242363583e-04       4.261013284945e-01 
       7.707696806873e-04       4.586787792370e-01 
       8.322579570814e-04       4.937136001350e-01 
       8.986514707061e-04       5.313826801420e-01 
       9.703415376577e-04       5.718734972176e-01 
       1.047750691338e-03       6.153841629522e-01 
       1.131335172818e-03       6.621233239482e-01 
       1.221587619877e-03       7.123098220431e-01 
       1.319039970550e-03       7.661720584311e-01 
       1.424266598317e-03       8.239546297732e-01 
       1.537887697396e-03       8.859011173463e-01 
       1.660572938097e-03       9.522588006363e-01 
       1.793045413791e-03       1.023280099817e+00 
       1.936085902737e-03       1.099216304574e+00 
       2.090537469909e-03       1.180312990446e+00 
       2.257310435923e-03       1.266804115837e+00 
       2.437387742372e-03       1.358904853391e+00 
       2.631830745176e-03       1.456802683135e+00 
       2.841785470091e-03       1.560646890493e+00 
       3.068489367268e-03       1.670536062463e+00 
       3.313278604643e-03       1.786503852109e+00 
       3.577595943165e-03       1.908502930723e+00 
       3.862999240274e-03       2.036387730626e+00 
       4.171170631739e-03       2.169896178683e+00 
       4.503926445983e-03       2.308631878857e+00 
       4.863227909323e-03       2.452047290788e+00 
       5.251192705226e-03       2.599430627866e+00 
       5.670107455699e-03       2.749896931544e+00 
       6.122441198393e-03       2.902386513034e+00 
       6.610859938837e-03       3.055668712653e+00 
       7.138242363583e-03       3.208356460988e+00 
       7.707696806873e-03       3.358923891907e+00 
       8.322579570814e-03       3.505725270719e+00 
       8.986514707061e-03       3.647009443672e+00 
       9.703415376577e-03       3.780923303007e+00 
       1.047750691338e-02       3.905491557492e+00 
       1.131335172818e-02       4.018588036560e+00 
       1.221587619877e-02       4.117901583293e+00 
       1.319039970550e-02       4.200915306268e+00 
       1.424266598317e-02       4.264942509060e+00 
       1.537887697392e-02       4.307219422659e+00 
       1.660572938023e-02       4.325062106368e+00 
       1.793045412706e-02       4.316060024536e+00 
       1.936085890181e-02       4.278230500572e+00 
       2.090537352463e-02       4.210203949454e+00 
       2.257309535333e-02       4.111419709641e+00 
       2.437382002918e-02       3.982426269181e+00 
       2.631799944462e-02       3.825174984740e+00 
       2.841644545389e-02       3.643281732043e+00 
       3.067933355377e-02       3.442194420714e+00 
       3.311368470740e-02       3.229236460820e+00 
       3.571840443502e-02       3.013517779967e+00 
       3.847720348444e-02       2.805280155662e+00 
       4.135335538431e-02       2.614408820204e+00 
       4.429361667738e-02       2.448139090631e+00 
       4.724366439141e-02       2.309232382749e+00 
       5.016480835311e-02       2.196112330761e+00 
       5.303989620246e-02       2.104367549853e+00 
       5.586870669566e-02       2.028462673929e+00 
       5.866042680613e-02       1.963155544219e+00 
       6.142798932958e-02       1.903781777703e+00 
       6.418496440164e-02       1.846477547124e+00 
       6.694418833788e-02       1.788199979639e+00 
       6.971731106057e-02       1.726716679511e+00 
       7.251476155766e-02       1.660649633582e+00 
       7.534587671527e-02       1.589467695027e+00 
       7.821907666265e-02       1.513435618707e+00 
       8.114203772912e-02       1.433565294564e+00 
       8.412184535029e-02       1.351491436047e+00 
       8.716512279304e-02       1.269271114955e+00 
       9.027813695930e-02       1.189190934102e+00 
       9.346688431697e-02       1.113498959095e+00 
       9.673716028276e-02       1.044173572100e+00 
       1.000946150830e-01       9.827029758145e-01 
       1.035447986537e-01       9.299264000224e-01 
       1.070931966762e-01       8.859541210581e-01 
       1.107452594425e-01       8.500668135358e-01 
       1.145064249153e-01       8.207993720198e-01 
       1.183821370918e-01       7.960207007358e-01 
       1.223778605862e-01       7.731404121493e-01 
       1.264990921987e-01       7.494448966744e-01 
       1.307513701367e-01       7.225502463588e-01 
       1.351402814784e-01       6.909017013266e-01 
       1.396714684203e-01       6.541728589399e-01 
       1.443506338194e-01       6.134173678424e-01 
       1.491835465229e-01       5.708591852746e-01 
       1.541760469708e-01       5.293546409363e-01 
       1.593340535561e-01       4.917008089735e-01 
       1.646635702297e-01       4.599089354045e-01 
       1.701706958456e-01       4.347175288667e-01 
       1.758616357459e-01       4.153962058666e-01 
       1.817427160982e-01       3.999256806172e-01 
       1.878204015065e-01       3.856687925286e-01 
       1.941013164283e-01       3.697945893672e-01 
       2.005922709503e-01       3.505310986368e-01 
       2.073002914972e-01       3.280267548487e-01 
       2.142326570816e-01       3.041963033956e-01 
       2.213969417533e-01       2.815940338452e-01 
       2.288010639706e-01       2.622381870437e-01 
       2.364533437147e-01       2.469423696432e-01 
       2.443625682930e-01       2.349919735158e-01 
       2.525380679504e-01       2.243950960144e-01 
       2.609898026346e-01       2.130691103060e-01 
       2.697284615565e-01       2.000760090155e-01 
       2.787655775689e-01       1.859929567401e-01 
       2.881136588829e-01       1.724888351913e-01 
       2.977863412677e-01       1.610362017287e-01 
       3.077985646929e-01       1.517294366283e-01 
       3.181667794071e-01       1.435261301559e-01 
       3.289091877812e-01       1.351461732412e-01 
       3.400460299658e-01       1.261271290858e-01 
       3.515999236474e-01       1.171625261537e-01 
       3.635962711085e-01       1.091355527906e-01 
       3.760637506334e-01       1.022656904197e-01 
       3.890349143879e-01       9.589170068558e-02 
       4.025469216825e-01       8.945901522001e-02 
       4.166424456376e-01       8.306063548619e-02 
       4.313708035863e-01       7.716152563569e-02 
       4.467893782977e-01       7.184380347898e-02 
       4.629654199664e-01       6.680897217761e-02 
       4.799783501994e-01       6.185438442183e-02 
       4.979227319373e-01       5.715554305111e-02 
       5.169121270864e-01       5.283230245419e-02 
       5.370841404489e-01       4.869485073286e-02 
       5.586070464571e-01       4.471175937063e-02 
       5.816885094930e-01       4.096789439749e-02 
       6.065870144995e-01       3.740090887675e-02 
       6.336266468475e-01       3.398146298999e-02 
       6.632156059511e-01       3.073354518803e-02 
       6.958678639263e-01       2.762021188219e-02 
       7.322247985589e-01       2.465126680684e-02 
       7.730680195114e-01       2.181482759847e-02 
       8.193049553677e-01       1.912119857729e-02 
       8.718988016039e-01       1.658276167547e-02 
       9.317218031082e-01       1.422434864880e-02 
       9.993660908989e-01       1.207576156343e-02 
       1.075037110174e+00       1.016074159321e-02 
       1.158653485707e+00       8.489252775114e-03 
       1.250099157308e+00       7.053979599876e-03 
       1.349432401273e+00       5.833248582185e-03 
       1.456947457397e+00       4.800672842099e-03 
       1.573135111331e+00       3.929407614267e-03 
       1.698621895592e+00       3.195017389743e-03 
       1.834127512934e+00       2.576440416117e-03 
       1.980444934528e+00       2.055773600363e-03 
       2.138435191726e+00       1.618154854671e-03 
       2.309029199186e+00       1.251264863225e-03 
       2.493232377687e+00       9.451129520686e-04 
       2.692130395285e+00       6.917002257421e-04 
       2.906895534573e+00       4.847463790349e-04 
       3.138793597714e+00       3.194128453115e-04 
       3.389191366484e+00       1.919420690446e-04 
       3.659564657905e+00       9.932052650025e-05 
       3.951507022538e+00       3.874978295337e-05 
       4.266739136701e+00       7.119236564384e-06 
       4.607118943941e+00       4.166257894652e-07 
       4.974652605557e+00       1.320756866070e-05 
       5.371506324689e+00       3.837694034172e-05 
       5.800019113685e+00       6.736293981264e-05 
       6.262716579983e+00       9.111919785953e-05 
       6.762325811764e+00       1.018844047549e-04 
       7.301791451110e+00       9.546966591454e-05 
       7.884293049406e+00       7.328808091933e-05 
       8.513263807261e+00       4.282603539315e-05 
       9.192410809424e+00       1.540069174386e-05 
       9.925736873929e+00       1.075011712201e-06 
       1.071756414427e+01       2.800682496822e-06 
       1.157255956364e+01       1.382507632373e-05 
       1.249576238137e+01       2.188161445369e-05 
       1.349261385375e+01       1.887218901124e-05 
       1.456898931416e+01       8.119678071473e-06 
       1.573123280165e+01       5.053882734554e-07 
       1.698619445202e+01       1.632261302997e-06 
       1.834127087176e+01       5.443153998768e-06 
       1.980444873285e+01       4.286837015817e-06 
       2.138435184532e+01       6.130123312191e-07 
       2.309029198506e+01       4.083559926477e-07 
       2.493232377636e+01       1.551629709626e-06 
       2.692130395282e+01       5.536997556247e-07 
       2.906895534573e+01       4.862173944404e-08 
       3.138793597714e+01       4.288630287979e-07 
       3.389191366484e+01       6.566681882716e-08 
       3.659564657905e+01       7.932623013579e-08 
       3.951507022538e+01       5.945296018519e-08 
       4.266739136701e+01       1.304727025519e-08 
       4.607118943941e+01       1.797431334864e-08 
       4.974652605557e+01       5.456104660937e-09 
       5.371506324689e+01       1.810073301930e-09 
       5.800019113685e+01       2.606866624236e-09 
       6.262716579983e+01       1.238548343180e-10 
       6.762325811764e+01       1.183732705623e-10 
