# Matter power spectrum P(k) at redshift z=99
# for k=1.04775e-05 to 67.6233 h/Mpc,
# number of wavenumbers equal to 246
#    1:k (h/Mpc)              2:P (Mpc/h)^3        
       1.047750691338e-05       7.261927673119e-03 
       1.131335172818e-05       7.820331745737e-03 
       1.221587619877e-05       8.421675986488e-03 
       1.319039970550e-05       9.069258192194e-03 
       1.424266598317e-05       9.766638404421e-03 
       1.537887697396e-05       1.051764069682e-02 
       1.660572938097e-05       1.132639105520e-02 
       1.793045413791e-05       1.219733231416e-02 
       1.936085902737e-05       1.313524224380e-02 
       2.090537469909e-05       1.414527121893e-02 
       2.257310435923e-05       1.523296272192e-02 
       2.437387742372e-05       1.640429444530e-02 
       2.631830745176e-05       1.766569582178e-02 
       2.841785470091e-05       1.902408601793e-02 
       3.068489367268e-05       2.048692970591e-02 
       3.313278604643e-05       2.206225513594e-02 
       3.577595943165e-05       2.375870704909e-02 
       3.862999240274e-05       2.558560727479e-02 
       4.171170631739e-05       2.755297763344e-02 
       4.503926445983e-05       2.967161927316e-02 
       4.863227909323e-05       3.195316450832e-02 
       5.251192705226e-05       3.441013519284e-02 
       5.670107455699e-05       3.705601722527e-02 
       6.122441198393e-05       3.990533413562e-02 
       6.610859938837e-05       4.297372168203e-02 
       7.138242363583e-05       4.627802141688e-02 
       7.707696806873e-05       4.983636194159e-02 
       8.322579570814e-05       5.366826847231e-02 
       8.986514707061e-05       5.779476394568e-02 
       9.703415376577e-05       6.223848243885e-02 
       1.047750691338e-04       6.702379865640e-02 
       1.131335172818e-04       7.217695153381e-02 
       1.221587619877e-04       7.772619073571e-02 
       1.319039970550e-04       8.370193432377e-02 
       1.424266598317e-04       9.013692507547e-02 
       1.537887697396e-04       9.706641242570e-02 
       1.660572938097e-04       1.045283354271e-01 
       1.793045413791e-04       1.125635349068e-01 
       1.936085902737e-04       1.212159614968e-01 
       2.090537469909e-04       1.305329132714e-01 
       2.257310435923e-04       1.405652846215e-01 
       2.437387742372e-04       1.513678302540e-01 
       2.631830745176e-04       1.629994504871e-01 
       2.841785470091e-04       1.755234921224e-01 
       3.068489367268e-04       1.890080670413e-01 
       3.313278604643e-04       2.035264002435e-01 
       3.577595943165e-04       2.191571803681e-01 
       3.862999240274e-04       2.359849437593e-01 
       4.171170631739e-04       2.541004741539e-01 
       4.503926445983e-04       2.736012080277e-01 
       4.863227909323e-04       2.945916790965e-01 
       5.251192705226e-04       3.171839525182e-01 
       5.670107455699e-04       3.414980764002e-01 
       6.122441198393e-04       3.676625413100e-01 
       6.610859938837e-04       3.958147252303e-01 
       7.138242363583e-04       4.261013284906e-01 
       7.707696806873e-04       4.586787792352e-01 
       8.322579570814e-04       4.937136001378e-01 
       8.986514707061e-04       5.313826801402e-01 
       9.703415376577e-04       5.718734972157e-01 
       1.047750691338e-03       6.153841629505e-01 
       1.131335172818e-03       6.621233239466e-01 
       1.221587619877e-03       7.123098220422e-01 
       1.319039970550e-03       7.661720584802e-01 
       1.424266598317e-03       8.239546297726e-01 
       1.537887697396e-03       8.859011173466e-01 
       1.660572938097e-03       9.522588006422e-01 
       1.793045413791e-03       1.023280099819e+00 
       1.936085902737e-03       1.099216304579e+00 
       2.090537469909e-03       1.180312990453e+00 
       2.257310435923e-03       1.266804115851e+00 
       2.437387742372e-03       1.358904853405e+00 
       2.631830745176e-03       1.456802683156e+00 
       2.841785470091e-03       1.560646890522e+00 
       3.068489367268e-03       1.670536062499e+00 
       3.313278604643e-03       1.786503852160e+00 
       3.577595943165e-03       1.908502930790e+00 
       3.862999240274e-03       2.036387730709e+00 
       4.171170631739e-03       2.169896178724e+00 
       4.503926445983e-03       2.308631878994e+00 
       4.863227909323e-03       2.452047290962e+00 
       5.251192705226e-03       2.599430628088e+00 
       5.670107455699e-03       2.749896931804e+00 
       6.122441198393e-03       2.902386513381e+00 
       6.610859938837e-03       3.055668703591e+00 
       7.138242363583e-03       3.208356461543e+00 
       7.707696806873e-03       3.358923891675e+00 
       8.322579570814e-03       3.505725595170e+00 
       8.986514707061e-03       3.647009644556e+00 
       9.703415376577e-03       3.780923304295e+00 
       1.047750691338e-02       3.905491099343e+00 
       1.131335172818e-02       4.018588263583e+00 
       1.221587619877e-02       4.117901587317e+00 
       1.319039970550e-02       4.200915368125e+00 
       1.424266598317e-02       4.264942349646e+00 
       1.537887697392e-02       4.307220219736e+00 
       1.660572938023e-02       4.325062748495e+00 
       1.793045412706e-02       4.316056948736e+00 
       1.936085890181e-02       4.278230119691e+00 
       2.090537352463e-02       4.210202109322e+00 
       2.257309535333e-02       4.111419943596e+00 
       2.437382002918e-02       3.982426777300e+00 
       2.631799944462e-02       3.825167901574e+00 
       2.841644545389e-02       3.643281139863e+00 
       3.067933355377e-02       3.442195272132e+00 
       3.311368470740e-02       3.229237098426e+00 
       3.571840443502e-02       3.013518794771e+00 
       3.847720348444e-02       2.805278786987e+00 
       4.135335538431e-02       2.614411611481e+00 
       4.429361667738e-02       2.448139082039e+00 
       4.724366439141e-02       2.309245033572e+00 
       5.016480835311e-02       2.196114257138e+00 
       5.303989620246e-02       2.104368831013e+00 
       5.586870669566e-02       2.028464465662e+00 
       5.866042680613e-02       1.963150923161e+00 
       6.142798932958e-02       1.903781595246e+00 
       6.418496440164e-02       1.846479861457e+00 
       6.694418833788e-02       1.788198085018e+00 
       6.971731106057e-02       1.726715462142e+00 
       7.251476155766e-02       1.660653691371e+00 
       7.534587671527e-02       1.589468267186e+00 
       7.821907666265e-02       1.513440240630e+00 
       8.114203772912e-02       1.433569431719e+00 
       8.412184535029e-02       1.351496391346e+00 
       8.716512279304e-02       1.269276029137e+00 
       9.027813695930e-02       1.189194111925e+00 
       9.346688431697e-02       1.113504995703e+00 
       9.673716028276e-02       1.044172628114e+00 
       1.000946150830e-01       9.827042497327e-01 
       1.035447986537e-01       9.299359565024e-01 
       1.070931966762e-01       8.859598331220e-01 
       1.107452594425e-01       8.500709301425e-01 
       1.145064249153e-01       8.208039334466e-01 
       1.183821370918e-01       7.960251468323e-01 
       1.223778605862e-01       7.731461576159e-01 
       1.264990921987e-01       7.494518699952e-01 
       1.307513701367e-01       7.225570063987e-01 
       1.351402814784e-01       6.909094825492e-01 
       1.396714684203e-01       6.541809212638e-01 
       1.443506338194e-01       6.134276166502e-01 
       1.491835465229e-01       5.708677994207e-01 
       1.541760469708e-01       5.293628028777e-01 
       1.593340535561e-01       4.917103985093e-01 
       1.646635702297e-01       4.599208479621e-01 
       1.701706958456e-01       4.347283683114e-01 
       1.758616357459e-01       4.154079487052e-01 
       1.817427160982e-01       3.999371448802e-01 
       1.878204015065e-01       3.856832388296e-01 
       1.941013164283e-01       3.698092983572e-01 
       2.005922709503e-01       3.505457560125e-01 
       2.073002914972e-01       3.280426986352e-01 
       2.142326570816e-01       3.042137513068e-01 
       2.213969417533e-01       2.816127052720e-01 
       2.288010639706e-01       2.622571091853e-01 
       2.364533437147e-01       2.469620878044e-01 
       2.443625682930e-01       2.350131585567e-01 
       2.525380679504e-01       2.244184210624e-01 
       2.609898026346e-01       2.130938300582e-01 
       2.697284615565e-01       2.001014861530e-01 
       2.787655775689e-01       1.860203893467e-01 
       2.881136588829e-01       1.725171851551e-01 
       2.977863412677e-01       1.610663709363e-01 
       3.077985646929e-01       1.517608834825e-01 
       3.181667794071e-01       1.435593374156e-01 
       3.289091877812e-01       1.351816271041e-01 
       3.400460299658e-01       1.261647177168e-01 
       3.515999236474e-01       1.172020058917e-01 
       3.635962711085e-01       1.091771964549e-01 
       3.760637506334e-01       1.023094448190e-01 
       3.890349143879e-01       9.593753384472e-02 
       4.025469216825e-01       8.950768832316e-02 
       4.166424456376e-01       8.311175929901e-02 
       4.313708035863e-01       7.721565739598e-02 
       4.467893782977e-01       7.190054134479e-02 
       4.629654199664e-01       6.686915675157e-02 
       4.799783501994e-01       6.191760406148e-02 
       4.979227319373e-01       5.722237317630e-02 
       5.169121270864e-01       5.290291980316e-02 
       5.370841404489e-01       4.876981926391e-02 
       5.586070464571e-01       4.479087443616e-02 
       5.816885094930e-01       4.105187033678e-02 
       6.065870144995e-01       3.749000746068e-02 
       6.336266468475e-01       3.407629067612e-02 
       6.632156059511e-01       3.083460780795e-02 
       6.958678639263e-01       2.772835598769e-02 
       7.322247985589e-01       2.476709433386e-02 
       7.730680195114e-01       2.193953709752e-02 
       8.193049553677e-01       1.925615197379e-02 
       8.718988016039e-01       1.672925958681e-02 
       9.317218031082e-01       1.438423790145e-02 
       9.993660908989e-01       1.225070695292e-02 
       1.075037110174e+00       1.035263277910e-02 
       1.158653485707e+00       8.699710248264e-03 
       1.250099157308e+00       7.284595669516e-03 
       1.349432401273e+00       6.085479208102e-03 
       1.456947457397e+00       5.075728774346e-03 
       1.573135111331e+00       4.228292431227e-03 
       1.698621895592e+00       3.518540436289e-03 
       1.834127512934e+00       2.924984455793e-03 
       1.980444934528e+00       2.429155929105e-03 
       2.138435191726e+00       2.015510633071e-03 
       2.309029199186e+00       1.670777034779e-03 
       2.493232377687e+00       1.383788423346e-03 
       2.692130395285e+00       1.145128039541e-03 
       2.906895534573e+00       9.468530423696e-04 
       3.138793597714e+00       7.822839716068e-04 
       3.389191366484e+00       6.458189330334e-04 
       3.659564657905e+00       5.327651485782e-04 
       3.951507022538e+00       4.391812982840e-04 
       4.266739136701e+00       3.617834592921e-04 
       4.607118943941e+00       2.978225157859e-04 
       4.974652605557e+00       2.450080430071e-04 
       5.371506324689e+00       2.014281909886e-04 
       5.800019113685e+00       1.654986821008e-04 
       6.262716579983e+00       1.358954597513e-04 
       6.762325811764e+00       1.115208941244e-04 
       7.301791451110e+00       9.146652268841e-05 
       7.884293049406e+00       7.497570215665e-05 
       8.513263807261e+00       6.142424412505e-05 
       9.192410809424e+00       5.029512336076e-05 
       9.925736873929e+00       4.116098756540e-05 
       1.071756414427e+01       3.366778477055e-05 
       1.157255956364e+01       2.752486228662e-05 
       1.249576238137e+01       2.249067524916e-05 
       1.349261385375e+01       1.836774510795e-05 
       1.456898931416e+01       1.499253584819e-05 
       1.573123280165e+01       1.223097811086e-05 
       1.698619445202e+01       9.972257938554e-06 
       1.834127087176e+01       8.125661350216e-06 
       1.980444873285e+01       6.616516926117e-06 
       2.138435184532e+01       5.383584720540e-06 
       2.309029198506e+01       4.376710537915e-06 
       2.493232377636e+01       3.554564674781e-06 
       2.692130395282e+01       2.883456082793e-06 
       2.906895534573e+01       2.335663524036e-06 
       3.138793597714e+01       1.888610336315e-06 
       3.389191366484e+01       1.523776312664e-06 
       3.659564657905e+01       1.226033489092e-06 
       3.951507022538e+01       9.830138212372e-07 
       4.266739136701e+01       7.846748103981e-07 
       4.607118943941e+01       6.227737835781e-07 
       4.974652605557e+01       4.906781777650e-07 
       5.371506324689e+01       3.829539977745e-07 
       5.800019113685e+01       2.952303911725e-07 
       6.262716579983e+01       2.239852730751e-07 
       6.762325811764e+01       1.663892772254e-07 
