# Matter power spectrum P(k) at redshift z=99
# for k=1.04775e-05 to 134.926 h/Mpc,
# number of wavenumbers equal to 255
#    1:k (h/Mpc)              2:P (Mpc/h)^3        
       1.047750691338e-05       7.261927095689e-03 
       1.131335172818e-05       7.820332151190e-03 
       1.221587619877e-05       8.421675382799e-03 
       1.319039970550e-05       9.069257738508e-03 
       1.424266598317e-05       9.766636451669e-03 
       1.537887697396e-05       1.051763973700e-02 
       1.660572938097e-05       1.132639250815e-02 
       1.793045413791e-05       1.219733201577e-02 
       1.936085902737e-05       1.313524187276e-02 
       2.090537469909e-05       1.414527085057e-02 
       2.257310435923e-05       1.523296544578e-02 
       2.437387742372e-05       1.640429654733e-02 
       2.631830745176e-05       1.766569603386e-02 
       2.841785470091e-05       1.902408711271e-02 
       3.068489367268e-05       2.048692967561e-02 
       3.313278604643e-05       2.206225467675e-02 
       3.577595943165e-05       2.375870883988e-02 
       3.862999240274e-05       2.558560669969e-02 
       4.171170631739e-05       2.755297672666e-02 
       4.503926445983e-05       2.967161933584e-02 
       4.863227909323e-05       3.195316455840e-02 
       5.251192705226e-05       3.441013466333e-02 
       5.670107455699e-05       3.705601741916e-02 
       6.122441198393e-05       3.990533413066e-02 
       6.610859938837e-05       4.297372242779e-02 
       7.138242363583e-05       4.627802055116e-02 
       7.707696806873e-05       4.983636160174e-02 
       8.322579570814e-05       5.366826787241e-02 
       8.986514707061e-05       5.779476320065e-02 
       9.703415376577e-05       6.223848222193e-02 
       1.047750691338e-04       6.702379825406e-02 
       1.131335172818e-04       7.217695031493e-02 
       1.221587619877e-04       7.772619030808e-02 
       1.319039970550e-04       8.370193380520e-02 
       1.424266598317e-04       9.013692507184e-02 
       1.537887697396e-04       9.706641130956e-02 
       1.660572938097e-04       1.045283343171e-01 
       1.793045413791e-04       1.125635329250e-01 
       1.936085902737e-04       1.212159592379e-01 
       2.090537469909e-04       1.305329107511e-01 
       2.257310435923e-04       1.405652819441e-01 
       2.437387742372e-04       1.513678275163e-01 
       2.631830745176e-04       1.629994475227e-01 
       2.841785470091e-04       1.755234890579e-01 
       3.068489367268e-04       1.890080645407e-01 
       3.313278604643e-04       2.035263977548e-01 
       3.577595943165e-04       2.191571778169e-01 
       3.862999240274e-04       2.359849423393e-01 
       4.171170631739e-04       2.541004713144e-01 
       4.503926445983e-04       2.736012061310e-01 
       4.863227909323e-04       2.945916774804e-01 
       5.251192705226e-04       3.171839508034e-01 
       5.670107455699e-04       3.414980769288e-01 
       6.122441198393e-04       3.676625416489e-01 
       6.610859938837e-04       3.958147273062e-01 
       7.138242363583e-04       4.261013332269e-01 
       7.707696806873e-04       4.586787881060e-01 
       8.322579570814e-04       4.937136113036e-01 
       8.986514707061e-04       5.313826962292e-01 
       9.703415376577e-04       5.718735177017e-01 
       1.047750691338e-03       6.153841926455e-01 
       1.131335172818e-03       6.621233623312e-01 
       1.221587619877e-03       7.123098743818e-01 
       1.319039970550e-03       7.661721263915e-01 
       1.424266598317e-03       8.239547181367e-01 
       1.537887697396e-03       8.859012282787e-01 
       1.660572938097e-03       9.522589495593e-01 
       1.793045413791e-03       1.023280284703e+00 
       1.936085902737e-03       1.099216542071e+00 
       2.090537469909e-03       1.180313284973e+00 
       2.257310435923e-03       1.266804486707e+00 
       2.437387742372e-03       1.358905328313e+00 
       2.631830745176e-03       1.456803285737e+00 
       2.841785470091e-03       1.560647662742e+00 
       3.068489367268e-03       1.670537010176e+00 
       3.313278604643e-03       1.786505039104e+00 
       3.577595943165e-03       1.908504409412e+00 
       3.862999240274e-03       2.036389467835e+00 
       4.171170631739e-03       2.169898251603e+00 
       4.503926445983e-03       2.308634490422e+00 
       4.863227909323e-03       2.452050672790e+00 
       5.251192705226e-03       2.599434678599e+00 
       5.670107455699e-03       2.749901123246e+00 
       6.122441198393e-03       2.902390054259e+00 
       6.610859938837e-03       3.055671264707e+00 
       7.138242363583e-03       3.208360116429e+00 
       7.707696806873e-03       3.358926643355e+00 
       8.322579570814e-03       3.505726879921e+00 
       8.986514707061e-03       3.647012425556e+00 
       9.703415376577e-03       3.780926164210e+00 
       1.047750691338e-02       3.905492862134e+00 
       1.131335172818e-02       4.018589803384e+00 
       1.221587619877e-02       4.117902861222e+00 
       1.319039970550e-02       4.200917666976e+00 
       1.424266598317e-02       4.264943698667e+00 
       1.537887697392e-02       4.307219621301e+00 
       1.660572938023e-02       4.325062400006e+00 
       1.793045412706e-02       4.316060323218e+00 
       1.936085890181e-02       4.278228850237e+00 
       2.090537352463e-02       4.210204375971e+00 
       2.257309535333e-02       4.111418633314e+00 
       2.437382002918e-02       3.982420800822e+00 
       2.631799944462e-02       3.825168525841e+00 
       2.841644545389e-02       3.643282061213e+00 
       3.067933355377e-02       3.442198489433e+00 
       3.311368470740e-02       3.229241347486e+00 
       3.571840443502e-02       3.013516051956e+00 
       3.847720348444e-02       2.805283626029e+00 
       4.135335538431e-02       2.614410313637e+00 
       4.429361667738e-02       2.448131792438e+00 
       4.724366439141e-02       2.309240219568e+00 
       5.016480835311e-02       2.196114728319e+00 
       5.303989620246e-02       2.104369354695e+00 
       5.586870669566e-02       2.028462051160e+00 
       5.866042680613e-02       1.963154732082e+00 
       6.142798932958e-02       1.903779092728e+00 
       6.418496440164e-02       1.846478555756e+00 
       6.694418833788e-02       1.788196785437e+00 
       6.971731106057e-02       1.726714949061e+00 
       7.251476155766e-02       1.660653620323e+00 
       7.534587671527e-02       1.589469045736e+00 
       7.821907666265e-02       1.513435732005e+00 
       8.114203772912e-02       1.433567887855e+00 
       8.412184535029e-02       1.351491354796e+00 
       8.716512279304e-02       1.269272801969e+00 
       9.027813695930e-02       1.189192211356e+00 
       9.346688431697e-02       1.113500123698e+00 
       9.673716028276e-02       1.044173435476e+00 
       1.000946150830e-01       9.827049337982e-01 
       1.035447986537e-01       9.299431447233e-01 
       1.070931966762e-01       8.859573591254e-01 
       1.107452594425e-01       8.500698857275e-01 
       1.145064249153e-01       8.208020639877e-01 
       1.183821370918e-01       7.960229084542e-01 
       1.223778605862e-01       7.731442463008e-01 
       1.264990921987e-01       7.494506084266e-01 
       1.307513701367e-01       7.225560040669e-01 
       1.351402814784e-01       6.909079942308e-01 
       1.396714684203e-01       6.541807551327e-01 
       1.443506338194e-01       6.134261792812e-01 
       1.491835465229e-01       5.708668058405e-01 
       1.541760469708e-01       5.293620882854e-01 
       1.593340535561e-01       4.917085942218e-01 
       1.646635702297e-01       4.599176482591e-01 
       1.701706958456e-01       4.347255290619e-01 
       1.758616357459e-01       4.154053477121e-01 
       1.817427160982e-01       3.999336690309e-01 
       1.878204015065e-01       3.856831487725e-01 
       1.941013164283e-01       3.698113663600e-01 
       2.005922709503e-01       3.505486914910e-01 
       2.073002914972e-01       3.280435835028e-01 
       2.142326570816e-01       3.042104705769e-01 
       2.213969417533e-01       2.816085950967e-01 
       2.288010639706e-01       2.622537630498e-01 
       2.364533437147e-01       2.469586675975e-01 
       2.443625682930e-01       2.350097200148e-01 
       2.525380679504e-01       2.244170531155e-01 
       2.609898026346e-01       2.130922931849e-01 
       2.697284615565e-01       2.000991382010e-01 
       2.787655775689e-01       1.860163182384e-01 
       2.881136588829e-01       1.725135287948e-01 
       2.977863412677e-01       1.610623311564e-01 
       3.077985646929e-01       1.517569950042e-01 
       3.181667794071e-01       1.435555577177e-01 
       3.289091877812e-01       1.351779122174e-01 
       3.400460299658e-01       1.261601710093e-01 
       3.515999236474e-01       1.171979747344e-01 
       3.635962711085e-01       1.091727747226e-01 
       3.760637506334e-01       1.023052809610e-01 
       3.890349143879e-01       9.593340456388e-02 
       4.025469216825e-01       8.950338112880e-02 
       4.166424456376e-01       8.310738794685e-02 
       4.313708035863e-01       7.721107153098e-02 
       4.467893782977e-01       7.189612917012e-02 
       4.629654199664e-01       6.686450096538e-02 
       4.799783501994e-01       6.191294141593e-02 
       4.979227319373e-01       5.721757231209e-02 
       5.169121270864e-01       5.289816226936e-02 
       5.370841404489e-01       4.876502783312e-02 
       5.586070464571e-01       4.478590025356e-02 
       5.816885094930e-01       4.104704976137e-02 
       6.065870144995e-01       3.748501204463e-02 
       6.336266468475e-01       3.407125999670e-02 
       6.632156059511e-01       3.082953254487e-02 
       6.958678639263e-01       2.772331578677e-02 
       7.322247985589e-01       2.476204310745e-02 
       7.730680195114e-01       2.193446547219e-02 
       8.193049553677e-01       1.925095370552e-02 
       8.718988016039e-01       1.672406851935e-02 
       9.317218031082e-01       1.437888779918e-02 
       9.993660908989e-01       1.224532753949e-02 
       1.075037110174e+00       1.034722166271e-02 
       1.158653485707e+00       8.694264471557e-03 
       1.250099157308e+00       7.279146534900e-03 
       1.349432401273e+00       6.079998297479e-03 
       1.456947457397e+00       5.070262236846e-03 
       1.573135111331e+00       4.222828601798e-03 
       1.698621895592e+00       3.513070177249e-03 
       1.834127512934e+00       2.919516495220e-03 
       1.980444934528e+00       2.423715570008e-03 
       2.138435191726e+00       2.010084061020e-03 
       2.309029199186e+00       1.665390779988e-03 
       2.493232377687e+00       1.378437120120e-03 
       2.692130395285e+00       1.139819828354e-03 
       2.906895534573e+00       9.415941386205e-04 
       3.138793597714e+00       7.770775986763e-04 
       3.389191366484e+00       6.406767439460e-04 
       3.659564657905e+00       5.276786217119e-04 
       3.951507022538e+00       4.341693000822e-04 
       4.266739136701e+00       3.568479901620e-04 
       4.607118943941e+00       2.929636046706e-04 
       4.974652605557e+00       2.402315135023e-04 
       5.371506324689e+00       1.967384951702e-04 
       5.800019113685e+00       1.609001458009e-04 
       6.262716579983e+00       1.313930672661e-04 
       6.762325811764e+00       1.071169012493e-04 
       7.301791451110e+00       8.716413946624e-05 
       7.884293049406e+00       7.077986494804e-05 
       8.513263807261e+00       5.733912947963e-05 
       9.192410809424e+00       4.632390307478e-05 
       9.925736873929e+00       3.730706506880e-05 
       1.071756414427e+01       2.993613045432e-05 
       1.157255956364e+01       2.391932041639e-05 
       1.249576238137e+01       1.901629768448e-05 
       1.349261385375e+01       1.502906578169e-05 
       1.456898931416e+01       1.179511026767e-05 
       1.573123280165e+01       9.179856836261e-06 
       1.698619445202e+01       7.073489371566e-06 
       1.834127087176e+01       5.386587925621e-06 
       1.980444873285e+01       4.040689001964e-06 
       2.138435184532e+01       2.978263013758e-06 
       2.309029198506e+01       2.147604058196e-06 
       2.493232377636e+01       1.507910742386e-06 
       2.692130395282e+01       1.022826672533e-06 
       2.906895534573e+01       6.631771011151e-07 
       3.138793597714e+01       4.077058719109e-07 
       3.389191366484e+01       2.315243010299e-07 
       3.659564657905e+01       1.174702992789e-07 
       3.951507022538e+01       5.050405174685e-08 
       4.266739136701e+01       1.598416679285e-08 
       4.607118943941e+01       2.365332812403e-09 
       4.974652605557e+01       8.857272612889e-11 
       5.371506324689e+01       2.216198621348e-09 
       5.800019113685e+01       4.538706485609e-09 
       6.262716579983e+01       4.723788349194e-09 
       6.762325811764e+01       3.415405282253e-09 
       7.301791451110e+01       1.681621223250e-09 
       7.884293049406e+01       3.961380269047e-10 
       8.513263807261e+01       5.151413706043e-12 
       9.192410809424e+01       8.761614760300e-11 
       9.925736873929e+01       1.714980473832e-10 
       1.071756414427e+02       2.813382111911e-11 
       1.157255956364e+02       1.225907253267e-11 
       1.249576238137e+02       1.148188484190e-11 
       1.349261385375e+02       1.576386790437e-11 
