# Matter power spectrum P(k) at redshift z=99
# for k=1.04775e-05 to 134.926 h/Mpc,
# number of wavenumbers equal to 255
#    1:k (h/Mpc)              2:P (Mpc/h)^3        
       1.047750691338e-05       7.261927095218e-03 
       1.131335172818e-05       7.820332150683e-03 
       1.221587619877e-05       8.421675382252e-03 
       1.319039970550e-05       9.069257737920e-03 
       1.424266598317e-05       9.766636451036e-03 
       1.537887697396e-05       1.051763973631e-02 
       1.660572938097e-05       1.132639250742e-02 
       1.793045413791e-05       1.219733201498e-02 
       1.936085902737e-05       1.313524187191e-02 
       2.090537469909e-05       1.414527084965e-02 
       2.257310435923e-05       1.523296544479e-02 
       2.437387742372e-05       1.640429654627e-02 
       2.631830745176e-05       1.766569603272e-02 
       2.841785470091e-05       1.902408711147e-02 
       3.068489367268e-05       2.048692967428e-02 
       3.313278604643e-05       2.206225467532e-02 
       3.577595943165e-05       2.375870883834e-02 
       3.862999240274e-05       2.558560669803e-02 
       4.171170631739e-05       2.755297672487e-02 
       4.503926445983e-05       2.967161933391e-02 
       4.863227909323e-05       3.195316455633e-02 
       5.251192705226e-05       3.441013466110e-02 
       5.670107455699e-05       3.705601741675e-02 
       6.122441198393e-05       3.990533412807e-02 
       6.610859938837e-05       4.297372242500e-02 
       7.138242363583e-05       4.627802054817e-02 
       7.707696806873e-05       4.983636159851e-02 
       8.322579570814e-05       5.366826786894e-02 
       8.986514707061e-05       5.779476319691e-02 
       9.703415376577e-05       6.223848221791e-02 
       1.047750691338e-04       6.702379824973e-02 
       1.131335172818e-04       7.217695031028e-02 
       1.221587619877e-04       7.772619030307e-02 
       1.319039970550e-04       8.370193379981e-02 
       1.424266598317e-04       9.013692506605e-02 
       1.537887697396e-04       9.706641130333e-02 
       1.660572938097e-04       1.045283343104e-01 
       1.793045413791e-04       1.125635329178e-01 
       1.936085902737e-04       1.212159592302e-01 
       2.090537469909e-04       1.305329107428e-01 
       2.257310435923e-04       1.405652819352e-01 
       2.437387742372e-04       1.513678275067e-01 
       2.631830745176e-04       1.629994475124e-01 
       2.841785470091e-04       1.755234890469e-01 
       3.068489367268e-04       1.890080645290e-01 
       3.313278604643e-04       2.035263977422e-01 
       3.577595943165e-04       2.191571778034e-01 
       3.862999240274e-04       2.359849423250e-01 
       4.171170631739e-04       2.541004712991e-01 
       4.503926445983e-04       2.736012061148e-01 
       4.863227909323e-04       2.945916774632e-01 
       5.251192705226e-04       3.171839507852e-01 
       5.670107455699e-04       3.414980769096e-01 
       6.122441198393e-04       3.676625416288e-01 
       6.610859938837e-04       3.958147272852e-01 
       7.138242363583e-04       4.261013332052e-01 
       7.707696806873e-04       4.586787880837e-01 
       8.322579570814e-04       4.937136112809e-01 
       8.986514707061e-04       5.313826962065e-01 
       9.703415376577e-04       5.718735176793e-01 
       1.047750691338e-03       6.153841926240e-01 
       1.131335172818e-03       6.621233623114e-01 
       1.221587619877e-03       7.123098743646e-01 
       1.319039970550e-03       7.661721263782e-01 
       1.424266598317e-03       8.239547181300e-01 
       1.537887697396e-03       8.859012282819e-01 
       1.660572938097e-03       9.522589495759e-01 
       1.793045413791e-03       1.023280284738e+00 
       1.936085902737e-03       1.099216542130e+00 
       2.090537469909e-03       1.180313285064e+00 
       2.257310435923e-03       1.266804486840e+00 
       2.437387742372e-03       1.358905328500e+00 
       2.631830745176e-03       1.456803285992e+00 
       2.841785470091e-03       1.560647663086e+00 
       3.068489367268e-03       1.670537010634e+00 
       3.313278604643e-03       1.786505039707e+00 
       3.577595943165e-03       1.908504410198e+00 
       3.862999240274e-03       2.036389468853e+00 
       4.171170631739e-03       2.169898252913e+00 
       4.503926445983e-03       2.308634492099e+00 
       4.863227909323e-03       2.452050674928e+00 
       5.251192705226e-03       2.599434681313e+00 
       5.670107455699e-03       2.749901126678e+00 
       6.122441198393e-03       2.902390058583e+00 
       6.610859938837e-03       3.055671270138e+00 
       7.138242363583e-03       3.208360123228e+00 
       7.707696806873e-03       3.358926651840e+00 
       8.322579570814e-03       3.505726890478e+00 
       8.986514707061e-03       3.647012438651e+00 
       9.703415376577e-03       3.780926180403e+00 
       1.047750691338e-02       3.905492882095e+00 
       1.131335172818e-02       4.018589827910e+00 
       1.221587619877e-02       4.117902891253e+00 
       1.319039970550e-02       4.200917703619e+00 
       1.424266598317e-02       4.264943743204e+00 
       1.537887697392e-02       4.307219675224e+00 
       1.660572938023e-02       4.325062465006e+00 
       1.793045412706e-02       4.316060401205e+00 
       1.936085890181e-02       4.278228943291e+00 
       2.090537352463e-02       4.210204486532e+00 
       2.257309535333e-02       4.111418763864e+00 
       2.437382002918e-02       3.982420954021e+00 
       2.631799944462e-02       3.825168704527e+00 
       2.841644545389e-02       3.643282266651e+00 
       3.067933355377e-02       3.442198727705e+00 
       3.311368470740e-02       3.229241623941e+00 
       3.571840443502e-02       3.013516361406e+00 
       3.847720348444e-02       2.805283974853e+00 
       4.135335538431e-02       2.614410703471e+00 
       4.429361667738e-02       2.448132226109e+00 
       4.724366439141e-02       2.309240697282e+00 
       5.016480835311e-02       2.196115250635e+00 
       5.303989620246e-02       2.104369921449e+00 
       5.586870669566e-02       2.028462661553e+00 
       5.866042680613e-02       1.963155384580e+00 
       6.142798932958e-02       1.903779784845e+00 
       6.418496440164e-02       1.846479283822e+00 
       6.694418833788e-02       1.788197544392e+00 
       6.971731106057e-02       1.726715732282e+00 
       7.251476155766e-02       1.660654419535e+00 
       7.534587671527e-02       1.589469852898e+00 
       7.821907666265e-02       1.513436532424e+00 
       8.114203772912e-02       1.433568670451e+00 
       8.412184535029e-02       1.351492108394e+00 
       8.716512279304e-02       1.269273515848e+00 
       9.027813695930e-02       1.189192863751e+00 
       9.346688431697e-02       1.113500620830e+00 
       9.673716028276e-02       1.044173950919e+00 
       1.000946150830e-01       9.827053608481e-01 
       1.035447986537e-01       9.299388491903e-01 
       1.070931966762e-01       8.859575924970e-01 
       1.107452594425e-01       8.500700253619e-01 
       1.145064249153e-01       8.208020568518e-01 
       1.183821370918e-01       7.960226198868e-01 
       1.223778605862e-01       7.731438217034e-01 
       1.264990921987e-01       7.494502719765e-01 
       1.307513701367e-01       7.225547893548e-01 
       1.351402814784e-01       6.909059444731e-01 
       1.396714684203e-01       6.541780263283e-01 
       1.443506338194e-01       6.134233973146e-01 
       1.491835465229e-01       5.708643887631e-01 
       1.541760469708e-01       5.293607414683e-01 
       1.593340535561e-01       4.917069186133e-01 
       1.646635702297e-01       4.599157301174e-01 
       1.701706958456e-01       4.347233740762e-01 
       1.758616357459e-01       4.154034627595e-01 
       1.817427160982e-01       3.999318494112e-01 
       1.878204015065e-01       3.856770767868e-01 
       1.941013164283e-01       3.698033087211e-01 
       2.005922709503e-01       3.505399993586e-01 
       2.073002914972e-01       3.280365770008e-01 
       2.142326570816e-01       3.042065390024e-01 
       2.213969417533e-01       2.816043092068e-01 
       2.288010639706e-01       2.622488804777e-01 
       2.364533437147e-01       2.469533512473e-01 
       2.443625682930e-01       2.350037264219e-01 
       2.525380679504e-01       2.244080389752e-01 
       2.609898026346e-01       2.130832305969e-01 
       2.697284615565e-01       2.000906636718e-01 
       2.787655775689e-01       1.860082539603e-01 
       2.881136588829e-01       1.725050204924e-01 
       2.977863412677e-01       1.610531129464e-01 
       3.077985646929e-01       1.517472403448e-01 
       3.181667794071e-01       1.435448262100e-01 
       3.289091877812e-01       1.351661359973e-01 
       3.400460299658e-01       1.261481268694e-01 
       3.515999236474e-01       1.171847921533e-01 
       3.635962711085e-01       1.091588726615e-01 
       3.760637506334e-01       1.022905164504e-01 
       3.890349143879e-01       9.591754578759e-02 
       4.025469216825e-01       8.948645538024e-02 
       4.166424456376e-01       8.308932730282e-02 
       4.313708035863e-01       7.719195981918e-02 
       4.467893782977e-01       7.187576159813e-02 
       4.629654199664e-01       6.684273482868e-02 
       4.799783501994e-01       6.188978443551e-02 
       4.979227319373e-01       5.719300602412e-02 
       5.169121270864e-01       5.287199314411e-02 
       5.370841404489e-01       4.873701256755e-02 
       5.586070464571e-01       4.475617289150e-02 
       5.816885094930e-01       4.101513832925e-02 
       6.065870144995e-01       3.745091411703e-02 
       6.336266468475e-01       3.403475208412e-02 
       6.632156059511e-01       3.079022753387e-02 
       6.958678639263e-01       2.768092936285e-02 
       7.322247985589e-01       2.471620349964e-02 
       7.730680195114e-01       2.188472525242e-02 
       8.193049553677e-01       1.919674165898e-02 
       8.718988016039e-01       1.666466075788e-02 
       9.317218031082e-01       1.431359261383e-02 
       9.993660908989e-01       1.217325938277e-02 
       1.075037110174e+00       1.026752225696e-02 
       1.158653485707e+00       8.606133927169e-03 
       1.250099157308e+00       7.181683952462e-03 
       1.349432401273e+00       5.972465839732e-03 
       1.456947457397e+00       4.951884664974e-03 
       1.573135111331e+00       4.092842735428e-03 
       1.698621895592e+00       3.370860575164e-03 
       1.834127512934e+00       2.764454363998e-03 
       1.980444934528e+00       2.255288445894e-03 
       2.138435191726e+00       1.827982767806e-03 
       2.309029199186e+00       1.469491022709e-03 
       2.493232377687e+00       1.168945261028e-03 
       2.692130395285e+00       9.172984544722e-04 
       2.906895534573e+00       7.072563348443e-04 
       3.138793597714e+00       5.328032532189e-04 
       3.389191366484e+00       3.889153857898e-04 
       3.659564657905e+00       2.720483118056e-04 
       3.951507022538e+00       1.790646058284e-04 
       4.266739136701e+00       1.077310139827e-04 
       4.607118943941e+00       5.600467810208e-05 
       4.974652605557e+00       2.224875264166e-05 
       5.371506324689e+00       4.388418448335e-06 
       5.800019113685e+00       1.099234764344e-07 
       6.262716579983e+00       6.301796870943e-06 
       6.762325811764e+00       1.908821850220e-05 
       7.301791451110e+00       3.385146184768e-05 
       7.884293049406e+00       4.607332354452e-05 
       8.513263807261e+00       5.173298075273e-05 
       9.192410809424e+00       4.870488584157e-05 
       9.925736873929e+00       3.793919782164e-05 
       1.071756414427e+01       2.278790488109e-05 
       1.157255956364e+01       8.899662417606e-06 
       1.249576238137e+01       1.003559175018e-06 
       1.349261385375e+01       7.409529953732e-07 
       1.456898931416e+01       5.340905118873e-06 
       1.573123280165e+01       9.287923620118e-06 
       1.698619445202e+01       8.741837288166e-06 
       1.834127087176e+01       4.342457853850e-06 
       1.980444873285e+01       5.825511905651e-07 
       2.138435184532e+01       2.906288466075e-07 
       2.309029198506e+01       1.794788632820e-06 
       2.493232377636e+01       1.846984965618e-06 
       2.692130395282e+01       4.866557580813e-07 
       2.906895534573e+01       2.352340398133e-08 
       3.138793597714e+01       4.683429168031e-07 
       3.389191366484e+01       2.786450919396e-07 
       3.659564657905e+01       1.641564249916e-09 
       3.951507022538e+01       8.969312942571e-08 
       4.266739136701e+01       5.116400730879e-08 
       4.607118943941e+01       6.946597587758e-10 
       4.974652605557e+01       2.490797963945e-08 
       5.371506324689e+01       5.500369964418e-10 
       5.800019113685e+01       2.864802500279e-09 
       6.262716579983e+01       2.182153443503e-09 
       6.762325811764e+01       2.286438192658e-09 
       7.301791451110e+01       8.490063234898e-13 
       7.884293049406e+01       3.883457185817e-11 
       8.513263807261e+01       3.536414154187e-10 
       9.192410809424e+01       7.922161947296e-09 
       9.925736873929e+01       6.624039650451e-11 
       1.071756414427e+02       9.724544666568e-10 
       1.157255956364e+02       4.334166278661e-08 
       1.249576238137e+02       5.081726742965e-11 
       1.349261385375e+02       1.090130707710e-08 
