# Matter power spectrum P(k) at redshift z=0
# for k=1.04775e-05 to 67.6233 h/Mpc,
# number of wavenumbers equal to 246
#    1:k (h/Mpc)              2:P (Mpc/h)^3        
       1.047750691338e-05       5.020964806750e+01 
       1.131335172818e-05       5.407048206553e+01 
       1.221587619877e-05       5.822819063756e+01 
       1.319039970550e-05       6.270562589676e+01 
       1.424266598317e-05       6.752731788102e+01 
       1.537887697396e-05       7.271977200257e+01 
       1.660572938097e-05       7.831147241542e+01 
       1.793045413791e-05       8.433311815128e+01 
       1.936085902737e-05       9.081778242446e+01 
       2.090537469909e-05       9.780108061340e+01 
       2.257310435923e-05       1.053213197032e+02 
       2.437387742372e-05       1.134197377001e+02 
       2.631830745176e-05       1.221408202815e+02 
       2.841785470091e-05       1.315324720916e+02 
       3.068489367268e-05       1.416462093730e+02 
       3.313278604643e-05       1.525374500691e+02 
       3.577595943165e-05       1.642660687078e+02 
       3.862999240274e-05       1.768963504868e+02 
       4.171170631739e-05       1.904975992460e+02 
       4.503926445983e-05       2.051444490305e+02 
       4.863227909323e-05       2.209171463752e+02 
       5.251192705226e-05       2.379022222314e+02 
       5.670107455699e-05       2.561927925633e+02 
       6.122441198393e-05       2.758890441791e+02 
       6.610859938837e-05       2.970989225466e+02 
       7.138242363583e-05       3.199385558200e+02 
       7.707696806873e-05       3.445329780878e+02 
       8.322579570814e-05       3.710167315928e+02 
       8.986514707061e-05       3.995346440954e+02 
       9.703415376577e-05       4.302425403884e+02 
       1.047750691338e-04       4.633080762974e+02 
       1.131335172818e-04       4.989116267507e+02 
       1.221587619877e-04       5.372471946560e+02 
       1.319039970550e-04       5.785234124634e+02 
       1.424266598317e-04       6.229645930980e+02 
       1.537887697396e-04       6.708118484951e+02 
       1.660572938097e-04       7.223242660219e+02 
       1.793045413791e-04       7.777801552652e+02 
       1.936085902737e-04       8.374783607332e+02 
       2.090537469909e-04       9.017396264495e+02 
       2.257310435923e-04       9.709080260151e+02 
       2.437387742372e-04       1.045352448644e+03 
       2.631830745176e-04       1.125468122835e+03 
       2.841785470091e-04       1.211678179510e+03 
       3.068489367268e-04       1.304435249091e+03 
       3.313278604643e-04       1.404223052541e+03 
       3.577595943165e-04       1.511558013389e+03 
       3.862999240274e-04       1.626990836530e+03 
       4.171170631739e-04       1.751108027370e+03 
       4.503926445983e-04       1.884533381344e+03 
       4.863227909323e-04       2.027929376469e+03 
       5.251192705226e-04       2.181998446366e+03 
       5.670107455699e-04       2.347484100855e+03 
       6.122441198393e-04       2.525171869334e+03 
       6.610859938837e-04       2.715889981398e+03 
       7.138242363583e-04       2.920509686093e+03 
       7.707696806873e-04       3.139945097706e+03 
       8.322579570814e-04       3.375152334392e+03 
       8.986514707061e-04       3.627127828225e+03 
       9.703415376577e-04       3.896905450008e+03 
       1.047750691338e-03       4.185552170948e+03 
       1.131335172818e-03       4.494162426778e+03 
       1.221587619877e-03       4.823850702658e+03 
       1.319039970550e-03       5.175742739272e+03 
       1.424266598317e-03       5.551019592505e+03 
       1.537887697396e-03       5.950788335841e+03 
       1.660572938097e-03       6.376123046722e+03 
       1.793045413791e-03       6.828073896064e+03 
       1.936085902737e-03       7.307625375313e+03 
       2.090537469909e-03       7.815671859968e+03 
       2.257310435923e-03       8.352990369271e+03 
       2.437387742372e-03       8.920211057391e+03 
       2.631830745176e-03       9.517783061697e+03 
       2.841785470091e-03       1.014593703647e+04 
       3.068489367268e-03       1.080464505713e+04 
       3.313278604643e-03       1.149357459417e+04 
       3.577595943165e-03       1.221203620777e+04 
       3.862999240274e-03       1.295892538443e+04 
       4.171170631739e-03       1.373266002149e+04 
       4.503926445983e-03       1.453111834497e+04 
       4.863227909323e-03       1.535154980698e+04 
       5.251192705226e-03       1.619063592523e+04 
       5.670107455699e-03       1.704431255437e+04 
       6.122441198393e-03       1.790755950517e+04 
       6.610859938837e-03       1.877460430393e+04 
       7.138242363583e-03       1.963872467881e+04 
       7.707696806873e-03       2.049215711074e+04 
       8.322579570814e-03       2.132611310415e+04 
       8.986514707061e-03       2.213054775554e+04 
       9.703415376577e-03       2.289445603912e+04 
       1.047750691338e-02       2.360549183251e+04 
       1.131335172818e-02       2.425022640400e+04 
       1.221587619877e-02       2.481423916159e+04 
       1.319039970550e-02       2.528219423475e+04 
       1.424266598317e-02       2.563814529022e+04 
       1.537887697392e-02       2.586608429446e+04 
       1.660572938023e-02       2.595029586027e+04 
       1.793045412706e-02       2.587637936384e+04 
       1.936085890181e-02       2.563221298280e+04 
       2.090537352463e-02       2.520937022519e+04 
       2.257309535333e-02       2.460461339178e+04 
       2.437382002918e-02       2.382090156740e+04 
       2.631799944462e-02       2.287043671200e+04 
       2.841644545389e-02       2.177445830124e+04 
       3.067933355377e-02       2.056551317916e+04 
       3.311368470740e-02       1.928721283759e+04 
       3.571840443502e-02       1.799396283216e+04 
       3.847720348444e-02       1.674684416565e+04 
       4.135335538431e-02       1.560456158182e+04 
       4.429361667738e-02       1.461033766689e+04 
       4.724366439141e-02       1.378046711691e+04 
       5.016480835311e-02       1.310502852669e+04 
       5.303989620246e-02       1.255714383398e+04 
       5.586870669566e-02       1.210423530181e+04 
       5.866042680613e-02       1.171465716528e+04 
       6.142798932958e-02       1.136051087884e+04 
       6.418496440164e-02       1.101859634743e+04 
       6.694418833788e-02       1.067063408699e+04 
       6.971731106057e-02       1.030349496046e+04 
       7.251476155766e-02       9.909041007247e+03 
       7.534587671527e-02       9.483684192815e+03 
       7.821907666265e-02       9.029395471335e+03 
       8.114203772912e-02       8.552201531606e+03 
       8.412184535029e-02       8.061958098600e+03 
       8.716512279304e-02       7.570786230566e+03 
       9.027813695930e-02       7.092479413415e+03 
       9.346688431697e-02       6.640518672453e+03 
       9.673716028276e-02       6.226733646276e+03 
       1.000946150830e-01       5.859928402323e+03 
       1.035447986537e-01       5.545226262218e+03 
       1.070931966762e-01       5.283127493218e+03 
       1.107452594425e-01       5.069408630103e+03 
       1.145064249153e-01       4.895228485360e+03 
       1.183821370918e-01       4.747842369666e+03 
       1.223778605862e-01       4.611697331861e+03 
       1.264990921987e-01       4.470574124704e+03 
       1.307513701367e-01       4.310251043970e+03 
       1.351402814784e-01       4.121324194290e+03 
       1.396714684203e-01       3.902018184568e+03 
       1.443506338194e-01       3.658603532711e+03 
       1.491835465229e-01       3.404430230458e+03 
       1.541760469708e-01       3.156592371181e+03 
       1.593340535561e-01       2.931883854793e+03 
       1.646635702297e-01       2.742308844327e+03 
       1.701706958456e-01       2.592183996249e+03 
       1.758616357459e-01       2.477162463467e+03 
       1.817427160982e-01       2.385119296713e+03 
       1.878204015065e-01       2.300258549249e+03 
       1.941013164283e-01       2.205664850321e+03 
       2.005922709503e-01       2.090731943431e+03 
       2.073002914972e-01       1.956363265987e+03 
       2.142326570816e-01       1.814083047131e+03 
       2.213969417533e-01       1.679176594765e+03 
       2.288010639706e-01       1.563728615104e+03 
       2.364533437147e-01       1.472565407554e+03 
       2.443625682930e-01       1.401391691087e+03 
       2.525380679504e-01       1.338276554573e+03 
       2.609898026346e-01       1.270752551046e+03 
       2.697284615565e-01       1.193228165059e+03 
       2.787655775689e-01       1.109178363867e+03 
       2.881136588829e-01       1.028598640228e+03 
       2.977863412677e-01       9.603011754648e+02 
       3.077985646929e-01       9.048338384752e+02 
       3.181667794071e-01       8.559454676727e+02 
       3.289091877812e-01       8.059759704996e+02 
       3.400460299658e-01       7.521698965204e+02 
       3.515999236474e-01       6.986872629837e+02 
       3.635962711085e-01       6.508155701319e+02 
       3.760637506334e-01       6.098604961288e+02 
       3.890349143879e-01       5.718574707659e+02 
       4.025469216825e-01       5.334916196561e+02 
       4.166424456376e-01       4.953265252821e+02 
       4.313708035863e-01       4.601465400621e+02 
       4.467893782977e-01       4.284386224549e+02 
       4.629654199664e-01       3.984146904754e+02 
       4.799783501994e-01       3.688651647887e+02 
       4.979227319373e-01       3.408421855828e+02 
       5.169121270864e-01       3.150625692965e+02 
       5.370841404489e-01       2.903887668605e+02 
       5.586070464571e-01       2.666348418478e+02 
       5.816885094930e-01       2.443088194306e+02 
       6.065870144995e-01       2.230370596216e+02 
       6.336266468475e-01       2.026452842275e+02 
       6.632156059511e-01       1.832760418430e+02 
       6.958678639263e-01       1.647101876037e+02 
       7.322247985589e-01       1.470049428337e+02 
       7.730680195114e-01       1.300900481097e+02 
       8.193049553677e-01       1.140268135787e+02 
       8.718988016039e-01       9.888905292219e+01 
       9.317218031082e-01       8.482478987043e+01 
       9.993660908989e-01       7.201191217977e+01 
       1.075037110174e+00       6.059190457308e+01 
       1.158653485707e+00       5.062428725493e+01 
       1.250099157308e+00       4.206520473833e+01 
       1.349432401273e+00       3.478551521755e+01 
       1.456947457397e+00       2.862782838494e+01 
       1.573135111331e+00       2.343218605180e+01 
       1.698621895592e+00       1.905279462650e+01 
       1.834127512934e+00       1.536401508628e+01 
       1.980444934528e+00       1.225910316194e+01 
       2.138435191726e+00       9.649452863847e+00 
       2.309029199186e+00       7.461576207183e+00 
       2.493232377687e+00       5.635906915859e+00 
       2.692130395285e+00       4.124741839736e+00 
       2.906895534573e+00       2.890624106523e+00 
       3.138793597714e+00       1.904703417583e+00 
       3.389191366484e+00       1.144570253775e+00 
       3.659564657905e+00       5.922556731629e-01 
       3.951507022538e+00       2.310653270698e-01 
       4.266739136701e+00       4.245111563926e-02 
       4.607118943941e+00       2.484612199483e-03 
       4.974652605557e+00       7.875747406940e-02 
       5.371506324689e+00       2.288392864469e-01 
       5.800019113685e+00       4.016735703599e-01 
       6.262716579983e+00       5.433198042636e-01 
       6.762325811764e+00       6.074997468080e-01 
       7.301791451110e+00       5.692389097393e-01 
       7.884293049406e+00       4.369702233317e-01 
       8.513263807261e+00       2.553371236704e-01 
       9.192410809424e+00       9.181874015708e-02 
       9.925736873929e+00       6.408871678691e-03 
       1.071756414427e+01       1.669665581945e-02 
       1.157255956364e+01       8.241539998285e-02 
       1.249576238137e+01       1.304351911836e-01 
       1.349261385375e+01       1.124885449235e-01 
       1.456898931416e+01       4.839337575426e-02 
       1.573123280165e+01       3.011827936767e-03 
       1.698619445202e+01       9.726580637000e-03 
       1.834127087176e+01       3.243130109858e-02 
       1.980444873285e+01       2.553814546825e-02 
       2.138435184532e+01       3.651287177034e-03 
       2.309029198506e+01       2.431853894488e-03 
       2.493232377636e+01       9.238081525215e-03 
       2.692130395282e+01       3.295750469601e-03 
       2.906895534573e+01       2.893249034915e-04 
       3.138793597714e+01       2.551021691118e-03 
       3.389191366484e+01       3.904401134916e-04 
       3.659564657905e+01       4.714309995169e-04 
       3.951507022538e+01       3.531238854282e-04 
       4.266739136701e+01       7.744466859519e-05 
       4.607118943941e+01       1.066073860851e-04 
       4.974652605557e+01       3.233139133710e-05 
       5.371506324689e+01       1.071478012773e-05 
       5.800019113685e+01       1.541293428936e-05 
       6.262716579983e+01       7.312559350671e-07 
       6.762325811764e+01       6.977269328670e-07 
