# Matter power spectrum P(k) at redshift z=0
# for k=1.04775e-05 to 67.6233 h/Mpc,
# number of wavenumbers equal to 246
#    1:k (h/Mpc)              2:P (Mpc/h)^3        
       1.047750691338e-05       5.020964806749e+01 
       1.131335172818e-05       5.407048206553e+01 
       1.221587619877e-05       5.822819063868e+01 
       1.319039970550e-05       6.270562589674e+01 
       1.424266598317e-05       6.752731788102e+01 
       1.537887697396e-05       7.271977200258e+01 
       1.660572938097e-05       7.831147241542e+01 
       1.793045413791e-05       8.433311815128e+01 
       1.936085902737e-05       9.081778242446e+01 
       2.090537469909e-05       9.780108061339e+01 
       2.257310435923e-05       1.053213197032e+02 
       2.437387742372e-05       1.134197377001e+02 
       2.631830745176e-05       1.221408202816e+02 
       2.841785470091e-05       1.315324720917e+02 
       3.068489367268e-05       1.416462093730e+02 
       3.313278604643e-05       1.525374500691e+02 
       3.577595943165e-05       1.642660687078e+02 
       3.862999240274e-05       1.768963504868e+02 
       4.171170631739e-05       1.904975992461e+02 
       4.503926445983e-05       2.051444490305e+02 
       4.863227909323e-05       2.209171463752e+02 
       5.251192705226e-05       2.379022222314e+02 
       5.670107455699e-05       2.561927925903e+02 
       6.122441198393e-05       2.758890441791e+02 
       6.610859938837e-05       2.970989225466e+02 
       7.138242363583e-05       3.199385558200e+02 
       7.707696806873e-05       3.445329780878e+02 
       8.322579570814e-05       3.710167315928e+02 
       8.986514707061e-05       3.995346440954e+02 
       9.703415376577e-05       4.302425403884e+02 
       1.047750691338e-04       4.633080762974e+02 
       1.131335172818e-04       4.989116267507e+02 
       1.221587619877e-04       5.372471946561e+02 
       1.319039970550e-04       5.785234124630e+02 
       1.424266598317e-04       6.229645930980e+02 
       1.537887697396e-04       6.708118484951e+02 
       1.660572938097e-04       7.223242660220e+02 
       1.793045413791e-04       7.777801553239e+02 
       1.936085902737e-04       8.374783607334e+02 
       2.090537469909e-04       9.017396264495e+02 
       2.257310435923e-04       9.709080260152e+02 
       2.437387742372e-04       1.045352448644e+03 
       2.631830745176e-04       1.125468122836e+03 
       2.841785470091e-04       1.211678179511e+03 
       3.068489367268e-04       1.304435249091e+03 
       3.313278604643e-04       1.404223052541e+03 
       3.577595943165e-04       1.511558013390e+03 
       3.862999240274e-04       1.626990836466e+03 
       4.171170631739e-04       1.751108027371e+03 
       4.503926445983e-04       1.884533381345e+03 
       4.863227909323e-04       2.027929376471e+03 
       5.251192705226e-04       2.181998446368e+03 
       5.670107455699e-04       2.347484100857e+03 
       6.122441198393e-04       2.525171869334e+03 
       6.610859938837e-04       2.715889981401e+03 
       7.138242363583e-04       2.920509686081e+03 
       7.707696806873e-04       3.139945097710e+03 
       8.322579570814e-04       3.375152334394e+03 
       8.986514707061e-04       3.627127828230e+03 
       9.703415376577e-04       3.896905450016e+03 
       1.047750691338e-03       4.185552170959e+03 
       1.131335172818e-03       4.494162426791e+03 
       1.221587619877e-03       4.823850702667e+03 
       1.319039970550e-03       5.175742740341e+03 
       1.424266598317e-03       5.551019592516e+03 
       1.537887697396e-03       5.950788335877e+03 
       1.660572938097e-03       6.376123046784e+03 
       1.793045413791e-03       6.828073896119e+03 
       1.936085902737e-03       7.307625375386e+03 
       2.090537469909e-03       7.815671860150e+03 
       2.257310435923e-03       8.352990369398e+03 
       2.437387742372e-03       8.920211057539e+03 
       2.631830745176e-03       9.517783061889e+03 
       2.841785470091e-03       1.014593703671e+04 
       3.068489367268e-03       1.080464505731e+04 
       3.313278604643e-03       1.149357459439e+04 
       3.577595943165e-03       1.221203620826e+04 
       3.862999240274e-03       1.295892538505e+04 
       4.171170631739e-03       1.373266001082e+04 
       4.503926445983e-03       1.453111834594e+04 
       4.863227909323e-03       1.535154984199e+04 
       5.251192705226e-03       1.619063613271e+04 
       5.670107455699e-03       1.704431256587e+04 
       6.122441198393e-03       1.790755938552e+04 
       6.610859938837e-03       1.877460396002e+04 
       7.138242363583e-03       1.963872429412e+04 
       7.707696806873e-03       2.049215713397e+04 
       8.322579570814e-03       2.132606610209e+04 
       8.986514707061e-03       2.213055076914e+04 
       9.703415376577e-03       2.289445472068e+04 
       1.047750691338e-02       2.360548682850e+04 
       1.131335172818e-02       2.425022854304e+04 
       1.221587619877e-02       2.481423922568e+04 
       1.319039970550e-02       2.528218623582e+04 
       1.424266598317e-02       2.563814405362e+04 
       1.537887697392e-02       2.586606556353e+04 
       1.660572938023e-02       2.595028157199e+04 
       1.793045412706e-02       2.587633674398e+04 
       1.936085890181e-02       2.563221026923e+04 
       2.090537352463e-02       2.520937723753e+04 
       2.257309535333e-02       2.460443976213e+04 
       2.437382002918e-02       2.382086335520e+04 
       2.631799944462e-02       2.287046095762e+04 
       2.841644545389e-02       2.177447712239e+04 
       3.067933355377e-02       2.056553635023e+04 
       3.311368470740e-02       1.928733878305e+04 
       3.571840443502e-02       1.799398713925e+04 
       3.847720348444e-02       1.674683704727e+04 
       4.135335538431e-02       1.560457054266e+04 
       4.429361667738e-02       1.461036915055e+04 
       4.724366439141e-02       1.378054251893e+04 
       5.016480835311e-02       1.310502601215e+04 
       5.303989620246e-02       1.255716980670e+04 
       5.586870669566e-02       1.210423964607e+04 
       5.866042680613e-02       1.171467671709e+04 
       6.142798932958e-02       1.136049606931e+04 
       6.418496440164e-02       1.101854565550e+04 
       6.694418833788e-02       1.067067811694e+04 
       6.971731106057e-02       1.030356619698e+04 
       7.251476155766e-02       9.908970377290e+03 
       7.534587671527e-02       9.483709461449e+03 
       7.821907666265e-02       9.029497203078e+03 
       8.114203772912e-02       8.552304310841e+03 
       8.412184535029e-02       8.061938975727e+03 
       8.716512279304e-02       7.570784294742e+03 
       9.027813695930e-02       7.092535180881e+03 
       9.346688431697e-02       6.640453906135e+03 
       9.673716028276e-02       6.226655900232e+03 
       1.000946150830e-01       5.859928017083e+03 
       1.035447986537e-01       5.545279843628e+03 
       1.070931966762e-01       5.283142881456e+03 
       1.107452594425e-01       5.069438835834e+03 
       1.145064249153e-01       4.895236293226e+03 
       1.183821370918e-01       4.747843155370e+03 
       1.223778605862e-01       4.611727132278e+03 
       1.264990921987e-01       4.470611897734e+03 
       1.307513701367e-01       4.310256419243e+03 
       1.351402814784e-01       4.121380133182e+03 
       1.396714684203e-01       3.902046040926e+03 
       1.443506338194e-01       3.658647569718e+03 
       1.491835465229e-01       3.404474071308e+03 
       1.541760469708e-01       3.156681422279e+03 
       1.593340535561e-01       2.931966823212e+03 
       1.646635702297e-01       2.742371156218e+03 
       1.701706958456e-01       2.592250195353e+03 
       1.758616357459e-01       2.477242501298e+03 
       1.817427160982e-01       2.385177808394e+03 
       1.878204015065e-01       2.300353562641e+03 
       1.941013164283e-01       2.205756284549e+03 
       2.005922709503e-01       2.090811789369e+03 
       2.073002914972e-01       1.956457260249e+03 
       2.142326570816e-01       1.814185263630e+03 
       2.213969417533e-01       1.679292490110e+03 
       2.288010639706e-01       1.563841318959e+03 
       2.364533437147e-01       1.472676154689e+03 
       2.443625682930e-01       1.401506200506e+03 
       2.525380679504e-01       1.338406017495e+03 
       2.609898026346e-01       1.270891443954e+03 
       2.697284615565e-01       1.193374009338e+03 
       2.787655775689e-01       1.109326999007e+03 
       2.881136588829e-01       1.028759223899e+03 
       2.977863412677e-01       9.604680188874e+02 
       3.077985646929e-01       9.050112733563e+02 
       3.181667794071e-01       8.561282211545e+02 
       3.289091877812e-01       8.061731498893e+02 
       3.400460299658e-01       7.523736902202e+02 
       3.515999236474e-01       6.989041179592e+02 
       3.635962711085e-01       6.510434522015e+02 
       3.760637506334e-01       6.101026961709e+02 
       3.890349143879e-01       5.721093634198e+02 
       4.025469216825e-01       5.337588614556e+02 
       4.166424456376e-01       4.956086789110e+02 
       4.313708035863e-01       4.604419467173e+02 
       4.467893782977e-01       4.287496229635e+02 
       4.629654199664e-01       3.987472036691e+02 
       4.799783501994e-01       3.692123821966e+02 
       4.979227319373e-01       3.412089414627e+02 
       5.169121270864e-01       3.154505564325e+02 
       5.370841404489e-01       2.908007084742e+02 
       5.586070464571e-01       2.670696500187e+02 
       5.816885094930e-01       2.447691052767e+02 
       6.065870144995e-01       2.235255711325e+02 
       6.336266468475e-01       2.031654765565e+02 
       6.632156059511e-01       1.838307943980e+02 
       6.958678639263e-01       1.653031429936e+02 
       7.322247985589e-01       1.476400218710e+02 
       7.730680195114e-01       1.307744486254e+02 
       8.193049553677e-01       1.147668126880e+02 
       8.718988016039e-01       9.969274300485e+01 
       9.317218031082e-01       8.570175506151e+01 
       9.993660908989e-01       7.297099432180e+01 
       1.075037110174e+00       6.164386702507e+01 
       1.158653485707e+00       5.177764248148e+01 
       1.250099157308e+00       4.332852635834e+01 
       1.349432401273e+00       3.616683024616e+01 
       1.456947457397e+00       3.013316270959e+01 
       1.573135111331e+00       2.506672318340e+01 
       1.698621895592e+00       2.082026787015e+01 
       1.834127512934e+00       1.726560315101e+01 
       1.980444934528e+00       1.429289634027e+01 
       2.138435191726e+00       1.180919020486e+01 
       2.309029199186e+00       9.735513389296e+00 
       2.493232377687e+00       8.005409248547e+00 
       2.692130395285e+00       6.562637812451e+00 
       2.906895534573e+00       5.360050432873e+00 
       3.138793597714e+00       4.358092888924e+00 
       3.389191366484e+00       3.523588216914e+00 
       3.659564657905e+00       2.828946910363e+00 
       3.951507022538e+00       2.251192896980e+00 
       4.266739136701e+00       1.771303784250e+00 
       4.607118943941e+00       1.373689743691e+00 
       4.974652605557e+00       1.045501681050e+00 
       5.371506324689e+00       7.764304698287e-01 
       5.800019113685e+00       5.580444580554e-01 
       6.262716579983e+00       3.836574827315e-01 
       6.762325811764e+00       2.477975639880e-01 
       7.301791451110e+00       1.459547401604e-01 
       7.884293049406e+00       7.415831323089e-02 
       8.513263807261e+00       2.863226493407e-02 
       9.192410809424e+00       5.434240276271e-03 
       9.925736873929e+00       1.622481621449e-04 
       1.071756414427e+01       7.802833982235e-03 
       1.157255956364e+01       2.279130896153e-02 
       1.249576238137e+01       3.936845880627e-02 
       1.349261385375e+01       5.226287509828e-02 
       1.456898931416e+01       5.759433700632e-02 
       1.573123280165e+01       5.379477097069e-02 
       1.698619445202e+01       4.212405734215e-02 
       1.834127087176e+01       2.640999141558e-02 
       1.980444873285e+01       1.174798381419e-02 
       2.138435184532e+01       2.444593409086e-03 
       2.309029198506e+01       4.097294364873e-05 
       2.493232377636e+01       2.601582525130e-03 
       2.692130395282e+01       6.028607154833e-03 
       2.906895534573e+01       6.855307564747e-03 
       3.138793597714e+01       4.574727710746e-03 
       3.389191366484e+01       1.478000519094e-03 
       3.659564657905e+01       2.901283738250e-05 
       3.951507022538e+01       4.200090873830e-04 
       4.266739136701e+01       9.819310721776e-04 
       4.607118943941e+01       6.700628502799e-04 
       4.974652605557e+01       1.048920383258e-04 
       5.371506324689e+01       2.789274651497e-05 
       5.800019113685e+01       1.465345678762e-04 
       6.262716579983e+01       7.387597203632e-05 
       6.762325811764e+01       2.245790915532e-07 
