# Matter power spectrum P(k) at redshift z=99
# for k=1.04775e-05 to 134.926 h/Mpc,
# number of wavenumbers equal to 255
#    1:k (h/Mpc)              2:P (Mpc/h)^3        
       1.047750691338e-05       7.261927095217e-03 
       1.131335172818e-05       7.820332150682e-03 
       1.221587619877e-05       8.421675382251e-03 
       1.319039970550e-05       9.069257737918e-03 
       1.424266598317e-05       9.766636451034e-03 
       1.537887697396e-05       1.051763973631e-02 
       1.660572938097e-05       1.132639250741e-02 
       1.793045413791e-05       1.219733201497e-02 
       1.936085902737e-05       1.313524187191e-02 
       2.090537469909e-05       1.414527084965e-02 
       2.257310435923e-05       1.523296544479e-02 
       2.437387742372e-05       1.640429654627e-02 
       2.631830745176e-05       1.766569603272e-02 
       2.841785470091e-05       1.902408711147e-02 
       3.068489367268e-05       2.048692967428e-02 
       3.313278604643e-05       2.206225467531e-02 
       3.577595943165e-05       2.375870883834e-02 
       3.862999240274e-05       2.558560669803e-02 
       4.171170631739e-05       2.755297672487e-02 
       4.503926445983e-05       2.967161933391e-02 
       4.863227909323e-05       3.195316455632e-02 
       5.251192705226e-05       3.441013466109e-02 
       5.670107455699e-05       3.705601741675e-02 
       6.122441198393e-05       3.990533412806e-02 
       6.610859938837e-05       4.297372242499e-02 
       7.138242363583e-05       4.627802054816e-02 
       7.707696806873e-05       4.983636159850e-02 
       8.322579570814e-05       5.366826786893e-02 
       8.986514707061e-05       5.779476319690e-02 
       9.703415376577e-05       6.223848221790e-02 
       1.047750691338e-04       6.702379824972e-02 
       1.131335172818e-04       7.217695031026e-02 
       1.221587619877e-04       7.772619030305e-02 
       1.319039970550e-04       8.370193379980e-02 
       1.424266598317e-04       9.013692506603e-02 
       1.537887697396e-04       9.706641130331e-02 
       1.660572938097e-04       1.045283343104e-01 
       1.793045413791e-04       1.125635329178e-01 
       1.936085902737e-04       1.212159592301e-01 
       2.090537469909e-04       1.305329107427e-01 
       2.257310435923e-04       1.405652819352e-01 
       2.437387742372e-04       1.513678275067e-01 
       2.631830745176e-04       1.629994475124e-01 
       2.841785470091e-04       1.755234890469e-01 
       3.068489367268e-04       1.890080645289e-01 
       3.313278604643e-04       2.035263977421e-01 
       3.577595943165e-04       2.191571778034e-01 
       3.862999240274e-04       2.359849423249e-01 
       4.171170631739e-04       2.541004712991e-01 
       4.503926445983e-04       2.736012061148e-01 
       4.863227909323e-04       2.945916774631e-01 
       5.251192705226e-04       3.171839507851e-01 
       5.670107455699e-04       3.414980769095e-01 
       6.122441198393e-04       3.676625416288e-01 
       6.610859938837e-04       3.958147272852e-01 
       7.138242363583e-04       4.261013332051e-01 
       7.707696806873e-04       4.586787880836e-01 
       8.322579570814e-04       4.937136112808e-01 
       8.986514707061e-04       5.313826962064e-01 
       9.703415376577e-04       5.718735176792e-01 
       1.047750691338e-03       6.153841926239e-01 
       1.131335172818e-03       6.621233623113e-01 
       1.221587619877e-03       7.123098743646e-01 
       1.319039970550e-03       7.661721263782e-01 
       1.424266598317e-03       8.239547181300e-01 
       1.537887697396e-03       8.859012282819e-01 
       1.660572938097e-03       9.522589495760e-01 
       1.793045413791e-03       1.023280284738e+00 
       1.936085902737e-03       1.099216542130e+00 
       2.090537469909e-03       1.180313285064e+00 
       2.257310435923e-03       1.266804486840e+00 
       2.437387742372e-03       1.358905328500e+00 
       2.631830745176e-03       1.456803285993e+00 
       2.841785470091e-03       1.560647663087e+00 
       3.068489367268e-03       1.670537010636e+00 
       3.313278604643e-03       1.786505039709e+00 
       3.577595943165e-03       1.908504410201e+00 
       3.862999240274e-03       2.036389468856e+00 
       4.171170631739e-03       2.169898252917e+00 
       4.503926445983e-03       2.308634492104e+00 
       4.863227909323e-03       2.452050674935e+00 
       5.251192705226e-03       2.599434681321e+00 
       5.670107455699e-03       2.749901126688e+00 
       6.122441198393e-03       2.902390058596e+00 
       6.610859938837e-03       3.055671270154e+00 
       7.138242363583e-03       3.208360123249e+00 
       7.707696806873e-03       3.358926651866e+00 
       8.322579570814e-03       3.505726890510e+00 
       8.986514707061e-03       3.647012438691e+00 
       9.703415376577e-03       3.780926180451e+00 
       1.047750691338e-02       3.905492882153e+00 
       1.131335172818e-02       4.018589827985e+00 
       1.221587619877e-02       4.117902891345e+00 
       1.319039970550e-02       4.200917703734e+00 
       1.424266598317e-02       4.264943743343e+00 
       1.537887697392e-02       4.307219675399e+00 
       1.660572938023e-02       4.325062465220e+00 
       1.793045412706e-02       4.316060401475e+00 
       1.936085890181e-02       4.278228943649e+00 
       2.090537352463e-02       4.210204486964e+00 
       2.257309535333e-02       4.111418764415e+00 
       2.437382002918e-02       3.982420954747e+00 
       2.631799944462e-02       3.825168705486e+00 
       2.841644545389e-02       3.643282268163e+00 
       3.067933355377e-02       3.442198729508e+00 
       3.311368470740e-02       3.229241625716e+00 
       3.571840443502e-02       3.013516365071e+00 
       3.847720348444e-02       2.805283980113e+00 
       4.135335538431e-02       2.614410711013e+00 
       4.429361667738e-02       2.448132237842e+00 
       4.724366439141e-02       2.309240712636e+00 
       5.016480835311e-02       2.196115271981e+00 
       5.303989620246e-02       2.104369950628e+00 
       5.586870669566e-02       2.028462700815e+00 
       5.866042680613e-02       1.963155436689e+00 
       6.142798932958e-02       1.903779853173e+00 
       6.418496440164e-02       1.846479372454e+00 
       6.694418833788e-02       1.788197658240e+00 
       6.971731106057e-02       1.726715877136e+00 
       7.251476155766e-02       1.660654602144e+00 
       7.534587671527e-02       1.589470079095e+00 
       7.821907666265e-02       1.513436814103e+00 
       8.114203772912e-02       1.433569015512e+00 
       8.412184535029e-02       1.351492524714e+00 
       8.716512279304e-02       1.269274011093e+00 
       9.027813695930e-02       1.189193457123e+00 
       9.346688431697e-02       1.113501404396e+00 
       9.673716028276e-02       1.044174751284e+00 
       1.000946150830e-01       9.827062856517e-01 
       1.035447986537e-01       9.299385580759e-01 
       1.070931966762e-01       8.859587918479e-01 
       1.107452594425e-01       8.500713630931e-01 
       1.145064249153e-01       8.208035925691e-01 
       1.183821370918e-01       7.960244881976e-01 
       1.223778605862e-01       7.731456876135e-01 
       1.264990921987e-01       7.494516045974e-01 
       1.307513701367e-01       7.225566251508e-01 
       1.351402814784e-01       6.909079332635e-01 
       1.396714684203e-01       6.541801930487e-01 
       1.443506338194e-01       6.134257593400e-01 
       1.491835465229e-01       5.708669383490e-01 
       1.541760469708e-01       5.293638429648e-01 
       1.593340535561e-01       4.917103176602e-01 
       1.646635702297e-01       4.599193544679e-01 
       1.701706958456e-01       4.347272183374e-01 
       1.758616357459e-01       4.154071813865e-01 
       1.817427160982e-01       3.999367285252e-01 
       1.878204015065e-01       3.856813881713e-01 
       1.941013164283e-01       3.698082671786e-01 
       2.005922709503e-01       3.505453035003e-01 
       2.073002914972e-01       3.280418547991e-01 
       2.142326570816e-01       3.042125026295e-01 
       2.213969417533e-01       2.816103931741e-01 
       2.288010639706e-01       2.622553613406e-01 
       2.364533437147e-01       2.469601641603e-01 
       2.443625682930e-01       2.350115066919e-01 
       2.525380679504e-01       2.244158845758e-01 
       2.609898026346e-01       2.130915199974e-01 
       2.697284615565e-01       2.000995897057e-01 
       2.787655775689e-01       1.860176375204e-01 
       2.881136588829e-01       1.725147958323e-01 
       2.977863412677e-01       1.610634692219e-01 
       3.077985646929e-01       1.517581933147e-01 
       3.181667794071e-01       1.435564976932e-01 
       3.289091877812e-01       1.351784634447e-01 
       3.400460299658e-01       1.261609717371e-01 
       3.515999236474e-01       1.171986173606e-01 
       3.635962711085e-01       1.091732876760e-01 
       3.760637506334e-01       1.023057707456e-01 
       3.890349143879e-01       9.593353250571e-02 
       4.025469216825e-01       8.950339380355e-02 
       4.166424456376e-01       8.310713494828e-02 
       4.313708035863e-01       7.721075629051e-02 
       4.467893782977e-01       7.189554897407e-02 
       4.629654199664e-01       6.686357131498e-02 
       4.799783501994e-01       6.191192823104e-02 
       4.979227319373e-01       5.721634812546e-02 
       5.169121270864e-01       5.289662773592e-02 
       5.370841404489e-01       4.876312942461e-02 
       5.586070464571e-01       4.478381012766e-02 
       5.816885094930e-01       4.104437596879e-02 
       6.065870144995e-01       3.748190721747e-02 
       6.336266468475e-01       3.406784834904e-02 
       6.632156059511e-01       3.082558225484e-02 
       6.958678639263e-01       2.771868661654e-02 
       7.322247985589e-01       2.475675638675e-02 
       7.730680195114e-01       2.192846987171e-02 
       8.193049553677e-01       1.924402786050e-02 
       8.718988016039e-01       1.671607174446e-02 
       9.317218031082e-01       1.436975475812e-02 
       9.993660908989e-01       1.223478338059e-02 
       1.075037110174e+00       1.033509145133e-02 
       1.158653485707e+00       8.680379857449e-03 
       1.250099157308e+00       7.263235616836e-03 
       1.349432401273e+00       6.061898093947e-03 
       1.456947457397e+00       5.049751586155e-03 
       1.573135111331e+00       4.199702842998e-03 
       1.698621895592e+00       3.487114895855e-03 
       1.834127512934e+00       2.890502296241e-03 
       1.980444934528e+00       2.391390561082e-03 
       2.138435191726e+00       1.974188345073e-03 
       2.309029199186e+00       1.625662552657e-03 
       2.493232377687e+00       1.334694874030e-03 
       2.692130395285e+00       1.091820914160e-03 
       2.906895534573e+00       8.891609632800e-04 
       3.138793597714e+00       7.201121177080e-04 
       3.389191366484e+00       5.790384186124e-04 
       3.659564657905e+00       4.614444341942e-04 
       3.951507022538e+00       3.634984023036e-04 
       4.266739136701e+00       2.820215799511e-04 
       4.607118943941e+00       2.144787839182e-04 
       4.974652605557e+00       1.588717355638e-04 
       5.371506324689e+00       1.134585946052e-04 
       5.800019113685e+00       7.710959836437e-05 
       6.262716579983e+00       4.868886860258e-05 
       6.762325811764e+00       2.749952907263e-05 
       7.301791451110e+00       1.280637868278e-05 
       7.884293049406e+00       3.996340930301e-06 
       8.513263807261e+00       2.670119366372e-07 
       9.192410809424e+00       7.004148087713e-07 
       9.925736873929e+00       4.108998156145e-06 
       1.071756414427e+01       9.014616965063e-06 
       1.157255956364e+01       1.383937034699e-05 
       1.249576238137e+01       1.713777541294e-05 
       1.349261385375e+01       1.775123172212e-05 
       1.456898931416e+01       1.538684726716e-05 
       1.573123280165e+01       1.080560459119e-05 
       1.698619445202e+01       5.547842030142e-06 
       1.834127087176e+01       1.532433665511e-06 
       1.980444873285e+01       8.255283537160e-09 
       2.138435184532e+01       8.581975283998e-07 
       2.309029198506e+01       2.572861064826e-06 
       2.493232377636e+01       3.320893447930e-06 
       2.692130395282e+01       2.420955571727e-06 
       2.906895534573e+01       8.164548255815e-07 
       3.138793597714e+01       9.943774737451e-09 
       3.389191366484e+01       3.395456032205e-07 
       3.659564657905e+01       7.095839790594e-07 
       3.951507022538e+01       4.456853082029e-07 
       4.266739136701e+01       3.765726084170e-08 
       4.607118943941e+01       6.458975891367e-08 
       4.974652605557e+01       1.692150835075e-07 
       5.371506324689e+01       4.042242717292e-08 
       5.800019113685e+01       6.189603477755e-09 
       6.262716579983e+01       3.816877959458e-08 
       6.762325811764e+01       5.097902746497e-09 
       7.301791451110e+01       5.812344886809e-09 
       7.884293049406e+01       2.137432498592e-09 
       8.513263807261e+01       1.030599985512e-08 
       9.192410809424e+01       1.905285954846e-09 
       9.925736873929e+01       1.821622559110e-09 
       1.071756414427e+02       9.619878533297e-10 
       1.157255956364e+02       1.194384724780e-09 
       1.249576238137e+02       1.215578583937e-09 
       1.349261385375e+02       4.003177889507e-12 
