# Matter power spectrum P(k) at redshift z=0
# for k=1.04775e-05 to 67.6233 h/Mpc,
# number of wavenumbers equal to 246
#    1:k (h/Mpc)              2:P (Mpc/h)^3        
       1.047750691338e-05       5.020964806750e+01 
       1.131335172818e-05       5.407048206553e+01 
       1.221587619877e-05       5.822819063849e+01 
       1.319039970550e-05       6.270562589681e+01 
       1.424266598317e-05       6.752731788102e+01 
       1.537887697396e-05       7.271977200258e+01 
       1.660572938097e-05       7.831147241542e+01 
       1.793045413791e-05       8.433311815128e+01 
       1.936085902737e-05       9.081778242446e+01 
       2.090537469909e-05       9.780108061341e+01 
       2.257310435923e-05       1.053213197032e+02 
       2.437387742372e-05       1.134197377001e+02 
       2.631830745176e-05       1.221408202816e+02 
       2.841785470091e-05       1.315324720916e+02 
       3.068489367268e-05       1.416462093730e+02 
       3.313278604643e-05       1.525374500691e+02 
       3.577595943165e-05       1.642660687078e+02 
       3.862999240274e-05       1.768963504868e+02 
       4.171170631739e-05       1.904975992460e+02 
       4.503926445983e-05       2.051444490305e+02 
       4.863227909323e-05       2.209171463752e+02 
       5.251192705226e-05       2.379022222314e+02 
       5.670107455699e-05       2.561927925645e+02 
       6.122441198393e-05       2.758890441791e+02 
       6.610859938837e-05       2.970989225465e+02 
       7.138242363583e-05       3.199385558200e+02 
       7.707696806873e-05       3.445329780878e+02 
       8.322579570814e-05       3.710167315928e+02 
       8.986514707061e-05       3.995346440954e+02 
       9.703415376577e-05       4.302425403884e+02 
       1.047750691338e-04       4.633080762974e+02 
       1.131335172818e-04       4.989116267507e+02 
       1.221587619877e-04       5.372471946561e+02 
       1.319039970550e-04       5.785234124640e+02 
       1.424266598317e-04       6.229645930980e+02 
       1.537887697396e-04       6.708118484951e+02 
       1.660572938097e-04       7.223242660220e+02 
       1.793045413791e-04       7.777801553718e+02 
       1.936085902737e-04       8.374783607333e+02 
       2.090537469909e-04       9.017396264495e+02 
       2.257310435923e-04       9.709080260152e+02 
       2.437387742372e-04       1.045352448644e+03 
       2.631830745176e-04       1.125468122836e+03 
       2.841785470091e-04       1.211678179511e+03 
       3.068489367268e-04       1.304435249091e+03 
       3.313278604643e-04       1.404223052541e+03 
       3.577595943165e-04       1.511558013390e+03 
       3.862999240274e-04       1.626990836434e+03 
       4.171170631739e-04       1.751108027370e+03 
       4.503926445983e-04       1.884533381345e+03 
       4.863227909323e-04       2.027929376471e+03 
       5.251192705226e-04       2.181998446367e+03 
       5.670107455699e-04       2.347484100857e+03 
       6.122441198393e-04       2.525171869337e+03 
       6.610859938837e-04       2.715889981400e+03 
       7.138242363583e-04       2.920509686094e+03 
       7.707696806873e-04       3.139945097711e+03 
       8.322579570814e-04       3.375152334396e+03 
       8.986514707061e-04       3.627127828231e+03 
       9.703415376577e-04       3.896905450015e+03 
       1.047750691338e-03       4.185552170945e+03 
       1.131335172818e-03       4.494162426790e+03 
       1.221587619877e-03       4.823850702654e+03 
       1.319039970550e-03       5.175742739969e+03 
       1.424266598317e-03       5.551019592524e+03 
       1.537887697396e-03       5.950788335882e+03 
       1.660572938097e-03       6.376123046800e+03 
       1.793045413791e-03       6.828073896114e+03 
       1.936085902737e-03       7.307625375384e+03 
       2.090537469909e-03       7.815671852792e+03 
       2.257310435923e-03       8.352990369386e+03 
       2.437387742372e-03       8.920211057507e+03 
       2.631830745176e-03       9.517783061883e+03 
       2.841785470091e-03       1.014593703670e+04 
       3.068489367268e-03       1.080464505726e+04 
       3.313278604643e-03       1.149357459549e+04 
       3.577595943165e-03       1.221203620824e+04 
       3.862999240274e-03       1.295892538503e+04 
       4.171170631739e-03       1.373266002149e+04 
       4.503926445983e-03       1.453111834592e+04 
       4.863227909323e-03       1.535154984097e+04 
       5.251192705226e-03       1.619063612668e+04 
       5.670107455699e-03       1.704431256551e+04 
       6.122441198393e-03       1.790755938894e+04 
       6.610859938837e-03       1.877460414103e+04 
       7.138242363583e-03       1.963872430568e+04 
       7.707696806873e-03       2.049215713188e+04 
       8.322579570814e-03       2.132606808695e+04 
       8.986514707061e-03       2.213054624302e+04 
       9.703415376577e-03       2.289445476703e+04 
       1.047750691338e-02       2.360548395320e+04 
       1.131335172818e-02       2.425023095770e+04 
       1.221587619877e-02       2.481423925058e+04 
       1.319039970550e-02       2.528218827197e+04 
       1.424266598317e-02       2.563814336740e+04 
       1.537887697392e-02       2.586605986564e+04 
       1.660572938023e-02       2.595027207103e+04 
       1.793045412706e-02       2.587637909414e+04 
       1.936085890181e-02       2.563219723829e+04 
       2.090537352463e-02       2.520934914476e+04 
       2.257309535333e-02       2.460448173988e+04 
       2.437382002918e-02       2.382086746185e+04 
       2.631799944462e-02       2.287044477667e+04 
       2.841644545389e-02       2.177446778989e+04 
       3.067933355377e-02       2.056550815737e+04 
       3.311368470740e-02       1.928727922130e+04 
       3.571840443502e-02       1.799398504377e+04 
       3.847720348444e-02       1.674683794463e+04 
       4.135335538431e-02       1.560460258493e+04 
       4.429361667738e-02       1.461032865296e+04 
       4.724366439141e-02       1.378051852430e+04 
       5.016480835311e-02       1.310503532065e+04 
       5.303989620246e-02       1.255713064657e+04 
       5.586870669566e-02       1.210425172694e+04 
       5.866042680613e-02       1.171468613708e+04 
       6.142798932958e-02       1.136049535385e+04 
       6.418496440164e-02       1.101859526146e+04 
       6.694418833788e-02       1.067075144183e+04 
       6.971731106057e-02       1.030358874475e+04 
       7.251476155766e-02       9.909059327715e+03 
       7.534587671527e-02       9.483776896239e+03 
       7.821907666265e-02       9.029537313859e+03 
       8.114203772912e-02       8.552358840454e+03 
       8.412184535029e-02       8.061985443381e+03 
       8.716512279304e-02       7.570822985092e+03 
       9.027813695930e-02       7.092523312307e+03 
       9.346688431697e-02       6.640546193825e+03 
       9.673716028276e-02       6.226735797540e+03 
       1.000946150830e-01       5.859951969440e+03 
       1.035447986537e-01       5.545285021594e+03 
       1.070931966762e-01       5.283168694493e+03 
       1.107452594425e-01       5.069435212421e+03 
       1.145064249153e-01       4.895258450604e+03 
       1.183821370918e-01       4.747863742448e+03 
       1.223778605862e-01       4.611744082955e+03 
       1.264990921987e-01       4.470619747323e+03 
       1.307513701367e-01       4.310265395976e+03 
       1.351402814784e-01       4.121367283632e+03 
       1.396714684203e-01       3.902065396002e+03 
       1.443506338194e-01       3.658660662349e+03 
       1.491835465229e-01       3.404475073561e+03 
       1.541760469708e-01       3.156655605163e+03 
       1.593340535561e-01       2.931951659213e+03 
       1.646635702297e-01       2.742354828167e+03 
       1.701706958456e-01       2.592254676702e+03 
       1.758616357459e-01       2.477225402025e+03 
       1.817427160982e-01       2.385185276082e+03 
       1.878204015065e-01       2.300338469821e+03 
       1.941013164283e-01       2.205739093675e+03 
       2.005922709503e-01       2.090800129226e+03 
       2.073002914972e-01       1.956474581536e+03 
       2.142326570816e-01       1.814186998454e+03 
       2.213969417533e-01       1.679280464685e+03 
       2.288010639706e-01       1.563839871179e+03 
       2.364533437147e-01       1.472673822913e+03 
       2.443625682930e-01       1.401506919485e+03 
       2.525380679504e-01       1.338423276999e+03 
       2.609898026346e-01       1.270914394964e+03 
       2.697284615565e-01       1.193382988205e+03 
       2.787655775689e-01       1.109326259395e+03 
       2.881136588829e-01       1.028764398464e+03 
       2.977863412677e-01       9.604756878828e+02 
       3.077985646929e-01       9.050094405445e+02 
       3.181667794071e-01       8.561347416527e+02 
       3.289091877812e-01       8.061784614308e+02 
       3.400460299658e-01       7.523851520505e+02 
       3.515999236474e-01       6.989169875567e+02 
       3.635962711085e-01       6.510530662160e+02 
       3.760637506334e-01       6.101195182332e+02 
       3.890349143879e-01       5.721284926374e+02 
       4.025469216825e-01       5.337737837345e+02 
       4.166424456376e-01       4.956231617795e+02 
       4.313708035863e-01       4.604657706906e+02 
       4.467893782977e-01       4.287711120463e+02 
       4.629654199664e-01       3.987699258729e+02 
       4.799783501994e-01       3.692363988629e+02 
       4.979227319373e-01       3.412373126130e+02 
       5.169121270864e-01       3.154791619346e+02 
       5.370841404489e-01       2.908310947649e+02 
       5.586070464571e-01       2.671022400079e+02 
       5.816885094930e-01       2.448061926390e+02 
       6.065870144995e-01       2.235653504399e+02 
       6.336266468475e-01       2.032094173346e+02 
       6.632156059511e-01       1.838778104848e+02 
       6.958678639263e-01       1.653536891421e+02 
       7.322247985589e-01       1.476947882095e+02 
       7.730680195114e-01       1.308338570481e+02 
       8.193049553677e-01       1.148311361554e+02 
       8.718988016039e-01       9.976269431220e+01 
       9.317218031082e-01       8.577754549398e+01 
       9.993660908989e-01       7.305417205430e+01 
       1.075037110174e+00       6.173592964506e+01 
       1.158653485707e+00       5.187888181014e+01 
       1.250099157308e+00       4.343980717167e+01 
       1.349432401273e+00       3.628866187165e+01 
       1.456947457397e+00       3.026773650032e+01 
       1.573135111331e+00       2.521435495818e+01 
       1.698621895592e+00       2.098185019492e+01 
       1.834127512934e+00       1.744221251034e+01 
       1.980444934528e+00       1.448547320451e+01 
       2.138435191726e+00       1.201876821008e+01 
       2.309029199186e+00       9.963064352503e+00 
       2.493232377687e+00       8.251693508106e+00 
       2.692130395285e+00       6.828427573590e+00 
       2.906895534573e+00       5.646136332704e+00 
       3.138793597714e+00       4.664743864510e+00 
       3.389191366484e+00       3.851009208382e+00 
       3.659564657905e+00       3.176830538003e+00 
       3.951507022538e+00       2.618758009565e+00 
       4.266739136701e+00       2.157231312357e+00 
       4.607118943941e+00       1.775812428363e+00 
       4.974652605557e+00       1.460880521795e+00 
       5.371506324689e+00       1.201009204597e+00 
       5.800019113685e+00       9.867631530246e-01 
       6.262716579983e+00       8.102249019394e-01 
       6.762325811764e+00       6.648805790806e-01 
       7.301791451110e+00       5.453018462264e-01 
       7.884293049406e+00       4.469656945052e-01 
       8.513263807261e+00       3.661585337889e-01 
       9.192410809424e+00       2.997976043168e-01 
       9.925736873929e+00       2.453357654333e-01 
       1.071756414427e+01       2.006575682917e-01 
       1.157255956364e+01       1.640295189364e-01 
       1.249576238137e+01       1.340148665071e-01 
       1.349261385375e+01       1.094329744766e-01 
       1.456898931416e+01       8.931251939614e-02 
       1.573123280165e+01       7.284819647783e-02 
       1.698619445202e+01       5.938345652165e-02 
       1.834127087176e+01       4.837552003511e-02 
       1.980444873285e+01       3.938067631026e-02 
       2.138435184532e+01       3.203207206549e-02 
       2.309029198506e+01       2.603095108238e-02 
       2.493232377636e+01       2.113159693776e-02 
       2.692130395282e+01       1.713239527096e-02 
       2.906895534573e+01       1.386806450616e-02 
       3.138793597714e+01       1.120432829237e-02 
       3.389191366484e+01       9.030274716063e-03 
       3.659564657905e+01       7.255805717005e-03 
       3.951507022538e+01       5.807168633312e-03 
       4.266739136701e+01       4.624565334213e-03 
       4.607118943941e+01       3.658801331976e-03 
       4.974652605557e+01       2.870187126571e-03 
       5.371506324689e+01       2.226643734159e-03 
       5.800019113685e+01       1.702215821047e-03 
       6.262716579983e+01       1.276161312718e-03 
       6.762325811764e+01       9.319487095847e-04 
