# Matter power spectrum P(k) at redshift z=0
# for k=1.04775e-05 to 67.6233 h/Mpc,
# number of wavenumbers equal to 246
#    1:k (h/Mpc)              2:P (Mpc/h)^3        
       1.047750691338e-05       5.020964806750e+01 
       1.131335172818e-05       5.407048206553e+01 
       1.221587619877e-05       5.822819063967e+01 
       1.319039970550e-05       6.270562589672e+01 
       1.424266598317e-05       6.752731788102e+01 
       1.537887697396e-05       7.271977200258e+01 
       1.660572938097e-05       7.831147241541e+01 
       1.793045413791e-05       8.433311815128e+01 
       1.936085902737e-05       9.081778242446e+01 
       2.090537469909e-05       9.780108061340e+01 
       2.257310435923e-05       1.053213197032e+02 
       2.437387742372e-05       1.134197377001e+02 
       2.631830745176e-05       1.221408202816e+02 
       2.841785470091e-05       1.315324720916e+02 
       3.068489367268e-05       1.416462093731e+02 
       3.313278604643e-05       1.525374500691e+02 
       3.577595943165e-05       1.642660687078e+02 
       3.862999240274e-05       1.768963504868e+02 
       4.171170631739e-05       1.904975992460e+02 
       4.503926445983e-05       2.051444490305e+02 
       4.863227909323e-05       2.209171463752e+02 
       5.251192705226e-05       2.379022222314e+02 
       5.670107455699e-05       2.561927925829e+02 
       6.122441198393e-05       2.758890441791e+02 
       6.610859938837e-05       2.970989225465e+02 
       7.138242363583e-05       3.199385558200e+02 
       7.707696806873e-05       3.445329780878e+02 
       8.322579570814e-05       3.710167315928e+02 
       8.986514707061e-05       3.995346440954e+02 
       9.703415376577e-05       4.302425403884e+02 
       1.047750691338e-04       4.633080762974e+02 
       1.131335172818e-04       4.989116267507e+02 
       1.221587619877e-04       5.372471946561e+02 
       1.319039970550e-04       5.785234124643e+02 
       1.424266598317e-04       6.229645929806e+02 
       1.537887697396e-04       6.708118484951e+02 
       1.660572938097e-04       7.223242660219e+02 
       1.793045413791e-04       7.777801557859e+02 
       1.936085902737e-04       8.374783607333e+02 
       2.090537469909e-04       9.017396264495e+02 
       2.257310435923e-04       9.709080260152e+02 
       2.437387742372e-04       1.045352448644e+03 
       2.631830745176e-04       1.125468122836e+03 
       2.841785470091e-04       1.211678179510e+03 
       3.068489367268e-04       1.304435249091e+03 
       3.313278604643e-04       1.404223052541e+03 
       3.577595943165e-04       1.511558013390e+03 
       3.862999240274e-04       1.626990836453e+03 
       4.171170631739e-04       1.751108027370e+03 
       4.503926445983e-04       1.884533381345e+03 
       4.863227909323e-04       2.027929376470e+03 
       5.251192705226e-04       2.181998446367e+03 
       5.670107455699e-04       2.347484100857e+03 
       6.122441198393e-04       2.525171869336e+03 
       6.610859938837e-04       2.715889981399e+03 
       7.138242363583e-04       2.920509686084e+03 
       7.707696806873e-04       3.139945097709e+03 
       8.322579570814e-04       3.375152334395e+03 
       8.986514707061e-04       3.627127828230e+03 
       9.703415376577e-04       3.896905450014e+03 
       1.047750691338e-03       4.185552170965e+03 
       1.131335172818e-03       4.494162426788e+03 
       1.221587619877e-03       4.823850702678e+03 
       1.319039970550e-03       5.175742738098e+03 
       1.424266598317e-03       5.551019592539e+03 
       1.537887697396e-03       5.950788335869e+03 
       1.660572938097e-03       6.376123046754e+03 
       1.793045413791e-03       6.828073896104e+03 
       1.936085902737e-03       7.307625375371e+03 
       2.090537469909e-03       7.815671860043e+03 
       2.257310435923e-03       8.352990369375e+03 
       2.437387742372e-03       8.920211057512e+03 
       2.631830745176e-03       9.517783061849e+03 
       2.841785470091e-03       1.014593703666e+04 
       3.068489367268e-03       1.080464505735e+04 
       3.313278604643e-03       1.149357459420e+04 
       3.577595943165e-03       1.221203620816e+04 
       3.862999240274e-03       1.295892538492e+04 
       4.171170631739e-03       1.373266001138e+04 
       4.503926445983e-03       1.453111834574e+04 
       4.863227909323e-03       1.535154983479e+04 
       5.251192705226e-03       1.619063609009e+04 
       5.670107455699e-03       1.704431256350e+04 
       6.122441198393e-03       1.790755941028e+04 
       6.610859938837e-03       1.877460409754e+04 
       7.138242363583e-03       1.963872437525e+04 
       7.707696806873e-03       2.049215713180e+04 
       8.322579570814e-03       2.132607426991e+04 
       8.986514707061e-03       2.213055057300e+04 
       9.703415376577e-03       2.289445503745e+04 
       1.047750691338e-02       2.360549006305e+04 
       1.131335172818e-02       2.425023464847e+04 
       1.221587619877e-02       2.481423933832e+04 
       1.319039970550e-02       2.528218880299e+04 
       1.424266598317e-02       2.563814415516e+04 
       1.537887697392e-02       2.586607100904e+04 
       1.660572938023e-02       2.595027664210e+04 
       1.793045412706e-02       2.587632907530e+04 
       1.936085890181e-02       2.563219137199e+04 
       2.090537352463e-02       2.520936179052e+04 
       2.257309535333e-02       2.460444465798e+04 
       2.437382002918e-02       2.382088418737e+04 
       2.631799944462e-02       2.287041923739e+04 
       2.841644545389e-02       2.177445324682e+04 
       3.067933355377e-02       2.056555066567e+04 
       3.311368470740e-02       1.928726412315e+04 
       3.571840443502e-02       1.799404092193e+04 
       3.847720348444e-02       1.674683334383e+04 
       4.135335538431e-02       1.560456704443e+04 
       4.429361667738e-02       1.461033838891e+04 
       4.724366439141e-02       1.378054465046e+04 
       5.016480835311e-02       1.310501330672e+04 
       5.303989620246e-02       1.255715889690e+04 
       5.586870669566e-02       1.210423207434e+04 
       5.866042680613e-02       1.171469138065e+04 
       6.142798932958e-02       1.136053169748e+04 
       6.418496440164e-02       1.101860628468e+04 
       6.694418833788e-02       1.067073260491e+04 
       6.971731106057e-02       1.030362875644e+04 
       7.251476155766e-02       9.909063542162e+03 
       7.534587671527e-02       9.483745526395e+03 
       7.821907666265e-02       9.029465826419e+03 
       8.114203772912e-02       8.552341096014e+03 
       8.412184535029e-02       8.061986393513e+03 
       8.716512279304e-02       7.570799295695e+03 
       9.027813695930e-02       7.092502052243e+03 
       9.346688431697e-02       6.640532861512e+03 
       9.673716028276e-02       6.226750809156e+03 
       1.000946150830e-01       5.859991964337e+03 
       1.035447986537e-01       5.545306102159e+03 
       1.070931966762e-01       5.283156785637e+03 
       1.107452594425e-01       5.069440165033e+03 
       1.145064249153e-01       4.895254851585e+03 
       1.183821370918e-01       4.747854828045e+03 
       1.223778605862e-01       4.611740095241e+03 
       1.264990921987e-01       4.470612115951e+03 
       1.307513701367e-01       4.310284570044e+03 
       1.351402814784e-01       4.121385295299e+03 
       1.396714684203e-01       3.902080823608e+03 
       1.443506338194e-01       3.658661921026e+03 
       1.491835465229e-01       3.404474321857e+03 
       1.541760469708e-01       3.156666505921e+03 
       1.593340535561e-01       2.931929794141e+03 
       1.646635702297e-01       2.742355872485e+03 
       1.701706958456e-01       2.592238840558e+03 
       1.758616357459e-01       2.477218510034e+03 
       1.817427160982e-01       2.385167785094e+03 
       1.878204015065e-01       2.300344125119e+03 
       1.941013164283e-01       2.205780246756e+03 
       2.005922709503e-01       2.090836031154e+03 
       2.073002914972e-01       1.956465830019e+03 
       2.142326570816e-01       1.814176222136e+03 
       2.213969417533e-01       1.679274087662e+03 
       2.288010639706e-01       1.563835698849e+03 
       2.364533437147e-01       1.472667689354e+03 
       2.443625682930e-01       1.401512010554e+03 
       2.525380679504e-01       1.338423522766e+03 
       2.609898026346e-01       1.270901258077e+03 
       2.697284615565e-01       1.193359771022e+03 
       2.787655775689e-01       1.109328286911e+03 
       2.881136588829e-01       1.028764299502e+03 
       2.977863412677e-01       9.604756421619e+02 
       3.077985646929e-01       9.050163279493e+02 
       3.181667794071e-01       8.561361621132e+02 
       3.289091877812e-01       8.061824108930e+02 
       3.400460299658e-01       7.523821400553e+02 
       3.515999236474e-01       6.989151294455e+02 
       3.635962711085e-01       6.510567799529e+02 
       3.760637506334e-01       6.101188185049e+02 
       3.890349143879e-01       5.721284222266e+02 
       4.025469216825e-01       5.337769994386e+02 
       4.166424456376e-01       4.956227988757e+02 
       4.313708035863e-01       4.604644367122e+02 
       4.467893782977e-01       4.287691324516e+02 
       4.629654199664e-01       3.987688066738e+02 
       4.799783501994e-01       3.692360892878e+02 
       4.979227319373e-01       3.412370161753e+02 
       5.169121270864e-01       3.154777614048e+02 
       5.370841404489e-01       2.908303400634e+02 
       5.586070464571e-01       2.671009589746e+02 
       5.816885094930e-01       2.448050829723e+02 
       6.065870144995e-01       2.235637145609e+02 
       6.336266468475e-01       2.032069807978e+02 
       6.632156059511e-01       1.838755315174e+02 
       6.958678639263e-01       1.653512515449e+02 
       7.322247985589e-01       1.476921303886e+02 
       7.730680195114e-01       1.308307299953e+02 
       8.193049553677e-01       1.148276806233e+02 
       8.718988016039e-01       9.975916021146e+01 
       9.317218031082e-01       8.577446282306e+01 
       9.993660908989e-01       7.305073632715e+01 
       1.075037110174e+00       6.173176563567e+01 
       1.158653485707e+00       5.187446523663e+01 
       1.250099157308e+00       4.343511266496e+01 
       1.349432401273e+00       3.628389007141e+01 
       1.456947457397e+00       3.026205732566e+01 
       1.573135111331e+00       2.520808409560e+01 
       1.698621895592e+00       2.097474993531e+01 
       1.834127512934e+00       1.743457092278e+01 
       1.980444934528e+00       1.447702556402e+01 
       2.138435191726e+00       1.200951986744e+01 
       2.309029199186e+00       9.952785740170e+00 
       2.493232377687e+00       8.240499056517e+00 
       2.692130395285e+00       6.816242168644e+00 
       2.906895534573e+00       5.632707249982e+00 
       3.138793597714e+00       4.650108598263e+00 
       3.389191366484e+00       3.834961092345e+00 
       3.659564657905e+00       3.159275171573e+00 
       3.951507022538e+00       2.599622021563e+00 
       4.266739136701e+00       2.136344871185e+00 
       4.607118943941e+00       1.753049148758e+00 
       4.974652605557e+00       1.436105017967e+00 
       5.371506324689e+00       1.174103026224e+00 
       5.800019113685e+00       9.575746587245e-01 
       6.262716579983e+00       7.786547543981e-01 
       6.762325811764e+00       6.308031288078e-01 
       7.301791451110e+00       5.086227003591e-01 
       7.884293049406e+00       4.076436712260e-01 
       8.513263807261e+00       3.241837554446e-01 
       9.192410809424e+00       2.552191478060e-01 
       9.925736873929e+00       1.982901468443e-01 
       1.071756414427e+01       1.513900660719e-01 
       1.157255956364e+01       1.129155982756e-01 
       1.249576238137e+01       8.159489473754e-02 
       1.349261385375e+01       5.642517853944e-02 
       1.456898931416e+01       3.663655056260e-02 
       1.573123280165e+01       2.162671285797e-02 
       1.698619445202e+01       1.091285333529e-02 
       1.834127087176e+01       4.065074530632e-03 
       1.980444873285e+01       6.395538584890e-04 
       2.138435184532e+01       1.072443663727e-04 
       2.309029198506e+01       1.793143799635e-03 
       2.493232377636e+01       4.846565448549e-03 
       2.692130395282e+01       8.268156103216e-03 
       2.906895534573e+01       1.101869713702e-02 
       3.138793597714e+01       1.222018222157e-02 
       3.389191366484e+01       1.141020009940e-02 
       3.659564657905e+01       8.768819065939e-03 
       3.951507022538e+01       5.167022994277e-03 
       4.266739136701e+01       1.909498622553e-03 
       4.607118943941e+01       1.596991353209e-04 
       4.974652605557e+01       2.756022520042e-04 
       5.371506324689e+01       1.509762508284e-03 
       5.800019113685e+01       2.467934846619e-03 
       6.262716579983e+01       2.192262074329e-03 
       6.762325811764e+01       9.973721706792e-04 
