# Matter power spectrum P(k) at redshift z=99
# for k=1.04775e-05 to 134.926 h/Mpc,
# number of wavenumbers equal to 255
#    1:k (h/Mpc)              2:P (Mpc/h)^3        
       1.047750691338e-05       7.261927095407e-03 
       1.131335172818e-05       7.820332150886e-03 
       1.221587619877e-05       8.421675382471e-03 
       1.319039970550e-05       9.069257738155e-03 
       1.424266598317e-05       9.766636451289e-03 
       1.537887697396e-05       1.051763973659e-02 
       1.660572938097e-05       1.132639250771e-02 
       1.793045413791e-05       1.219733201529e-02 
       1.936085902737e-05       1.313524187225e-02 
       2.090537469909e-05       1.414527085002e-02 
       2.257310435923e-05       1.523296544519e-02 
       2.437387742372e-05       1.640429654669e-02 
       2.631830745176e-05       1.766569603318e-02 
       2.841785470091e-05       1.902408711197e-02 
       3.068489367268e-05       2.048692967481e-02 
       3.313278604643e-05       2.206225467589e-02 
       3.577595943165e-05       2.375870883896e-02 
       3.862999240274e-05       2.558560669870e-02 
       4.171170631739e-05       2.755297672559e-02 
       4.503926445983e-05       2.967161933468e-02 
       4.863227909323e-05       3.195316455716e-02 
       5.251192705226e-05       3.441013466199e-02 
       5.670107455699e-05       3.705601741772e-02 
       6.122441198393e-05       3.990533412910e-02 
       6.610859938837e-05       4.297372242611e-02 
       7.138242363583e-05       4.627802054937e-02 
       7.707696806873e-05       4.983636159980e-02 
       8.322579570814e-05       5.366826787033e-02 
       8.986514707061e-05       5.779476319841e-02 
       9.703415376577e-05       6.223848221952e-02 
       1.047750691338e-04       6.702379825146e-02 
       1.131335172818e-04       7.217695031214e-02 
       1.221587619877e-04       7.772619030507e-02 
       1.319039970550e-04       8.370193380197e-02 
       1.424266598317e-04       9.013692506837e-02 
       1.537887697396e-04       9.706641130582e-02 
       1.660572938097e-04       1.045283343131e-01 
       1.793045413791e-04       1.125635329207e-01 
       1.936085902737e-04       1.212159592333e-01 
       2.090537469909e-04       1.305329107461e-01 
       2.257310435923e-04       1.405652819388e-01 
       2.437387742372e-04       1.513678275106e-01 
       2.631830745176e-04       1.629994475165e-01 
       2.841785470091e-04       1.755234890513e-01 
       3.068489367268e-04       1.890080645337e-01 
       3.313278604643e-04       2.035263977472e-01 
       3.577595943165e-04       2.191571778088e-01 
       3.862999240274e-04       2.359849423307e-01 
       4.171170631739e-04       2.541004713053e-01 
       4.503926445983e-04       2.736012061213e-01 
       4.863227909323e-04       2.945916774701e-01 
       5.251192705226e-04       3.171839507925e-01 
       5.670107455699e-04       3.414980769173e-01 
       6.122441198393e-04       3.676625416369e-01 
       6.610859938837e-04       3.958147272936e-01 
       7.138242363583e-04       4.261013332139e-01 
       7.707696806873e-04       4.586787880926e-01 
       8.322579570814e-04       4.937136112899e-01 
       8.986514707061e-04       5.313826962156e-01 
       9.703415376577e-04       5.718735176883e-01 
       1.047750691338e-03       6.153841926326e-01 
       1.131335172818e-03       6.621233623193e-01 
       1.221587619877e-03       7.123098743715e-01 
       1.319039970550e-03       7.661721263835e-01 
       1.424266598317e-03       8.239547181327e-01 
       1.537887697396e-03       8.859012282806e-01 
       1.660572938097e-03       9.522589495693e-01 
       1.793045413791e-03       1.023280284724e+00 
       1.936085902737e-03       1.099216542106e+00 
       2.090537469909e-03       1.180313285027e+00 
       2.257310435923e-03       1.266804486787e+00 
       2.437387742372e-03       1.358905328425e+00 
       2.631830745176e-03       1.456803285890e+00 
       2.841785470091e-03       1.560647662949e+00 
       3.068489367268e-03       1.670537010451e+00 
       3.313278604643e-03       1.786505039466e+00 
       3.577595943165e-03       1.908504409884e+00 
       3.862999240274e-03       2.036389468445e+00 
       4.171170631739e-03       2.169898252389e+00 
       4.503926445983e-03       2.308634491428e+00 
       4.863227909323e-03       2.452050674072e+00 
       5.251192705226e-03       2.599434680226e+00 
       5.670107455699e-03       2.749901125304e+00 
       6.122441198393e-03       2.902390056853e+00 
       6.610859938837e-03       3.055671267964e+00 
       7.138242363583e-03       3.208360120507e+00 
       7.707696806873e-03       3.358926648444e+00 
       8.322579570814e-03       3.505726886253e+00 
       8.986514707061e-03       3.647012433411e+00 
       9.703415376577e-03       3.780926173922e+00 
       1.047750691338e-02       3.905492874105e+00 
       1.131335172818e-02       4.018589818096e+00 
       1.221587619877e-02       4.117902879238e+00 
       1.319039970550e-02       4.200917688958e+00 
       1.424266598317e-02       4.264943725381e+00 
       1.537887697392e-02       4.307219653653e+00 
       1.660572938023e-02       4.325062439005e+00 
       1.793045412706e-02       4.316060370017e+00 
       1.936085890181e-02       4.278228906089e+00 
       2.090537352463e-02       4.210204442346e+00 
       2.257309535333e-02       4.111418711713e+00 
       2.437382002918e-02       3.982420892851e+00 
       2.631799944462e-02       3.825168633260e+00 
       2.841644545389e-02       3.643282184554e+00 
       3.067933355377e-02       3.442198632953e+00 
       3.311368470740e-02       3.229241514142e+00 
       3.571840443502e-02       3.013516239055e+00 
       3.847720348444e-02       2.805283837467e+00 
       4.135335538431e-02       2.614410550733e+00 
       4.429361667738e-02       2.448132058255e+00 
       4.724366439141e-02       2.309240513012e+00 
       5.016480835311e-02       2.196115051254e+00 
       5.303989620246e-02       2.104369707816e+00 
       5.586870669566e-02       2.028462434942e+00 
       5.866042680613e-02       1.963155146756e+00 
       6.142798932958e-02       1.903779538178e+00 
       6.418496440164e-02       1.846479031418e+00 
       6.694418833788e-02       1.788197290192e+00 
       6.971731106057e-02       1.726715481134e+00 
       7.251476155766e-02       1.660654177230e+00 
       7.534587671527e-02       1.589469624288e+00 
       7.821907666265e-02       1.513436328172e+00 
       8.114203772912e-02       1.433568497071e+00 
       8.412184535029e-02       1.351491972048e+00 
       8.716512279304e-02       1.269273421788e+00 
       9.027813695930e-02       1.189192824929e+00 
       9.346688431697e-02       1.113500639573e+00 
       9.673716028276e-02       1.044174036161e+00 
       1.000946150830e-01       9.827055084396e-01 
       1.035447986537e-01       9.299371164601e-01 
       1.070931966762e-01       8.859578739788e-01 
       1.107452594425e-01       8.500703646105e-01 
       1.145064249153e-01       8.208024933237e-01 
       1.183821370918e-01       7.960232829914e-01 
       1.223778605862e-01       7.731445584496e-01 
       1.264990921987e-01       7.494511539808e-01 
       1.307513701367e-01       7.225561627716e-01 
       1.351402814784e-01       6.909080608248e-01 
       1.396714684203e-01       6.541807134207e-01 
       1.443506338194e-01       6.134260332454e-01 
       1.491835465229e-01       5.708665565808e-01 
       1.541760469708e-01       5.293617213111e-01 
       1.593340535561e-01       4.917081143191e-01 
       1.646635702297e-01       4.599170511956e-01 
       1.701706958456e-01       4.347248227611e-01 
       1.758616357459e-01       4.154045142270e-01 
       1.817427160982e-01       3.999326935339e-01 
       1.878204015065e-01       3.856820067587e-01 
       1.941013164283e-01       3.698103136290e-01 
       2.005922709503e-01       3.505472505405e-01 
       2.073002914972e-01       3.280416548309e-01 
       2.142326570816e-01       3.042089279391e-01 
       2.213969417533e-01       2.816065774631e-01 
       2.288010639706e-01       2.622515096256e-01 
       2.364533437147e-01       2.469561774197e-01 
       2.443625682930e-01       2.350069998478e-01 
       2.525380679504e-01       2.244141821961e-01 
       2.609898026346e-01       2.130894667903e-01 
       2.697284615565e-01       2.000954400428e-01 
       2.787655775689e-01       1.860124704046e-01 
       2.881136588829e-01       1.725094119455e-01 
       2.977863412677e-01       1.610579396714e-01 
       3.077985646929e-01       1.517523419234e-01 
       3.181667794071e-01       1.435504810467e-01 
       3.289091877812e-01       1.351724406870e-01 
       3.400460299658e-01       1.261546543937e-01 
       3.515999236474e-01       1.171915486490e-01 
       3.635962711085e-01       1.091661258116e-01 
       3.760637506334e-01       1.022981497602e-01 
       3.890349143879e-01       9.592579709137e-02 
       4.025469216825e-01       8.949526811728e-02 
       4.166424456376e-01       8.309856795335e-02 
       4.313708035863e-01       7.720169874843e-02 
       4.467893782977e-01       7.188621004019e-02 
       4.629654199664e-01       6.685395106471e-02 
       4.799783501994e-01       6.190167003178e-02 
       4.979227319373e-01       5.720555479862e-02 
       5.169121270864e-01       5.288529640997e-02 
       5.370841404489e-01       4.875127097445e-02 
       5.586070464571e-01       4.477136989083e-02 
       5.816885094930e-01       4.103130914879e-02 
       6.065870144995e-01       3.746813025069e-02 
       6.336266468475e-01       3.405311280108e-02 
       6.632156059511e-01       3.081009495156e-02 
       6.958678639263e-01       2.770221112292e-02 
       7.322247985589e-01       2.473919950429e-02 
       7.730680195114e-01       2.190959880268e-02 
       8.193049553677e-01       1.922385146912e-02 
       8.718988016039e-01       1.669429603000e-02 
       9.317218031082e-01       1.434603052279e-02 
       9.993660908989e-01       1.220890726672e-02 
       1.075037110174e+00       1.030681012816e-02 
       1.158653485707e+00       8.650040968885e-03 
       1.250099157308e+00       7.229306917775e-03 
       1.349432401273e+00       6.024821234859e-03 
       1.456947457397e+00       5.009173666548e-03 
       1.573135111331e+00       4.155432524405e-03 
       1.698621895592e+00       3.438875378541e-03 
       1.834127512934e+00       2.838098511215e-03 
       1.980444934528e+00       2.334566501421e-03 
       2.138435191726e+00       1.912739042663e-03 
       2.309029199186e+00       1.559519541720e-03 
       2.493232377687e+00       1.263729947019e-03 
       2.692130395285e+00       1.016354274838e-03 
       2.906895534573e+00       8.091927438599e-04 
       3.138793597714e+00       6.361239807055e-04 
       3.389191366484e+00       4.917626808053e-04 
       3.659564657905e+00       3.717916583082e-04 
       3.951507022538e+00       2.729261238090e-04 
       4.266739136701e+00       1.922665936274e-04 
       4.607118943941e+00       1.278582988865e-04 
       4.974652605557e+00       7.806001729279e-05 
       5.371506324689e+00       4.168775672694e-05 
       5.800019113685e+00       1.715089767813e-05 
       6.262716579983e+00       3.867597892844e-06 
       6.762325811764e+00       6.103584351741e-09 
       7.301791451110e+00       3.737723653582e-06 
       7.884293049406e+00       1.254104097602e-05 
       8.513263807261e+00       2.323172576802e-05 
       9.192410809424e+00       3.261838670750e-05 
       9.925736873929e+00       3.762775568115e-05 
       1.071756414427e+01       3.637697023103e-05 
       1.157255956364e+01       2.904384997812e-05 
       1.249576238137e+01       1.806048501515e-05 
       1.349261385375e+01       7.338768628431e-06 
       1.456898931416e+01       9.357122482996e-07 
       1.573123280165e+01       5.147663322316e-07 
       1.698619445202e+01       4.127244302105e-06 
       1.834127087176e+01       7.643033751894e-06 
       1.980444873285e+01       7.241952699205e-06 
       2.138435184532e+01       3.634851470203e-06 
       2.309029198506e+01       4.532018799170e-07 
       2.493232377636e+01       3.133519478063e-07 
       2.692130395282e+01       1.663617471950e-06 
       2.906895534573e+01       1.652077545594e-06 
       3.138793597714e+01       3.697180460627e-07 
       3.389191366484e+01       5.997623408249e-08 
       3.659564657905e+01       4.230879729553e-07 
       3.951507022538e+01       2.200737589447e-07 
       4.266739136701e+01       2.155997435673e-09 
       4.607118943941e+01       1.136152949121e-07 
       4.974652605557e+01       4.384159036662e-08 
       5.371506324689e+01       1.270479790400e-08 
       5.800019113685e+01       1.713308843440e-08 
       6.262716579983e+01       4.260681012630e-09 
       6.762325811764e+01       1.023679642828e-08 
       7.301791451110e+01       8.759103640065e-10 
       7.884293049406e+01       2.260896857718e-09 
       8.513263807261e+01       2.853803783054e-10 
       9.192410809424e+01       1.425295054973e-10 
       9.925736873929e+01       6.606796051564e-10 
       1.071756414427e+02       1.909223409009e-10 
       1.157255956364e+02       1.161911412491e-10 
       1.249576238137e+02       9.311943238059e-11 
       1.349261385375e+02       7.014667698164e-11 
