# Matter power spectrum P(k) at redshift z=99
# for k=1.04775e-05 to 134.926 h/Mpc,
# number of wavenumbers equal to 255
#    1:k (h/Mpc)              2:P (Mpc/h)^3        
       1.047750691338e-05       7.261927095270e-03 
       1.131335172818e-05       7.820332150739e-03 
       1.221587619877e-05       8.421675382313e-03 
       1.319039970550e-05       9.069257737985e-03 
       1.424266598317e-05       9.766636451106e-03 
       1.537887697396e-05       1.051763973639e-02 
       1.660572938097e-05       1.132639250750e-02 
       1.793045413791e-05       1.219733201506e-02 
       1.936085902737e-05       1.313524187201e-02 
       2.090537469909e-05       1.414527084975e-02 
       2.257310435923e-05       1.523296544490e-02 
       2.437387742372e-05       1.640429654639e-02 
       2.631830745176e-05       1.766569603285e-02 
       2.841785470091e-05       1.902408711161e-02 
       3.068489367268e-05       2.048692967443e-02 
       3.313278604643e-05       2.206225467548e-02 
       3.577595943165e-05       2.375870883851e-02 
       3.862999240274e-05       2.558560669822e-02 
       4.171170631739e-05       2.755297672507e-02 
       4.503926445983e-05       2.967161933413e-02 
       4.863227909323e-05       3.195316455656e-02 
       5.251192705226e-05       3.441013466134e-02 
       5.670107455699e-05       3.705601741702e-02 
       6.122441198393e-05       3.990533412835e-02 
       6.610859938837e-05       4.297372242531e-02 
       7.138242363583e-05       4.627802054850e-02 
       7.707696806873e-05       4.983636159886e-02 
       8.322579570814e-05       5.366826786933e-02 
       8.986514707061e-05       5.779476319733e-02 
       9.703415376577e-05       6.223848221835e-02 
       1.047750691338e-04       6.702379825021e-02 
       1.131335172818e-04       7.217695031079e-02 
       1.221587619877e-04       7.772619030362e-02 
       1.319039970550e-04       8.370193380041e-02 
       1.424266598317e-04       9.013692506669e-02 
       1.537887697396e-04       9.706641130402e-02 
       1.660572938097e-04       1.045283343111e-01 
       1.793045413791e-04       1.125635329186e-01 
       1.936085902737e-04       1.212159592310e-01 
       2.090537469909e-04       1.305329107437e-01 
       2.257310435923e-04       1.405652819362e-01 
       2.437387742372e-04       1.513678275078e-01 
       2.631830745176e-04       1.629994475136e-01 
       2.841785470091e-04       1.755234890481e-01 
       3.068489367268e-04       1.890080645303e-01 
       3.313278604643e-04       2.035263977436e-01 
       3.577595943165e-04       2.191571778049e-01 
       3.862999240274e-04       2.359849423266e-01 
       4.171170631739e-04       2.541004713008e-01 
       4.503926445983e-04       2.736012061166e-01 
       4.863227909323e-04       2.945916774651e-01 
       5.251192705226e-04       3.171839507872e-01 
       5.670107455699e-04       3.414980769117e-01 
       6.122441198393e-04       3.676625416311e-01 
       6.610859938837e-04       3.958147272875e-01 
       7.138242363583e-04       4.261013332076e-01 
       7.707696806873e-04       4.586787880862e-01 
       8.322579570814e-04       4.937136112834e-01 
       8.986514707061e-04       5.313826962090e-01 
       9.703415376577e-04       5.718735176818e-01 
       1.047750691338e-03       6.153841926264e-01 
       1.131335172818e-03       6.621233623136e-01 
       1.221587619877e-03       7.123098743665e-01 
       1.319039970550e-03       7.661721263797e-01 
       1.424266598317e-03       8.239547181308e-01 
       1.537887697396e-03       8.859012282816e-01 
       1.660572938097e-03       9.522589495741e-01 
       1.793045413791e-03       1.023280284734e+00 
       1.936085902737e-03       1.099216542123e+00 
       2.090537469909e-03       1.180313285054e+00 
       2.257310435923e-03       1.266804486825e+00 
       2.437387742372e-03       1.358905328479e+00 
       2.631830745176e-03       1.456803285964e+00 
       2.841785470091e-03       1.560647663048e+00 
       3.068489367268e-03       1.670537010584e+00 
       3.313278604643e-03       1.786505039640e+00 
       3.577595943165e-03       1.908504410111e+00 
       3.862999240274e-03       2.036389468740e+00 
       4.171170631739e-03       2.169898252768e+00 
       4.503926445983e-03       2.308634491914e+00 
       4.863227909323e-03       2.452050674691e+00 
       5.251192705226e-03       2.599434681012e+00 
       5.670107455699e-03       2.749901126297e+00 
       6.122441198393e-03       2.902390058104e+00 
       6.610859938837e-03       3.055671269536e+00 
       7.138242363583e-03       3.208360122475e+00 
       7.707696806873e-03       3.358926650901e+00 
       8.322579570814e-03       3.505726889309e+00 
       8.986514707061e-03       3.647012437201e+00 
       9.703415376577e-03       3.780926178610e+00 
       1.047750691338e-02       3.905492879885e+00 
       1.131335172818e-02       4.018589825194e+00 
       1.221587619877e-02       4.117902887928e+00 
       1.319039970550e-02       4.200917699564e+00 
       1.424266598317e-02       4.264943738276e+00 
       1.537887697392e-02       4.307219669263e+00 
       1.660572938023e-02       4.325062457825e+00 
       1.793045412706e-02       4.316060392600e+00 
       1.936085890181e-02       4.278228933064e+00 
       2.090537352463e-02       4.210204474380e+00 
       2.257309535333e-02       4.111418749554e+00 
       2.437382002918e-02       3.982420937315e+00 
       2.631799944462e-02       3.825168685135e+00 
       2.841644545389e-02       3.643282244578e+00 
       3.067933355377e-02       3.442198702339e+00 
       3.311368470740e-02       3.229241594189e+00 
       3.571840443502e-02       3.013516329694e+00 
       3.847720348444e-02       2.805283940171e+00 
       4.135335538431e-02       2.614410666298e+00 
       4.429361667738e-02       2.448132187754e+00 
       4.724366439141e-02       2.309240657394e+00 
       5.016480835311e-02       2.196115211271e+00 
       5.303989620246e-02       2.104369884338e+00 
       5.586870669566e-02       2.028462628875e+00 
       5.866042680613e-02       1.963155359079e+00 
       6.142798932958e-02       1.903779769931e+00 
       6.418496440164e-02       1.846479283724e+00 
       6.694418833788e-02       1.788197564226e+00 
       6.971731106057e-02       1.726715778198e+00 
       7.251476155766e-02       1.660654498759e+00 
       7.534587671527e-02       1.589469971871e+00 
       7.821907666265e-02       1.513436703768e+00 
       8.114203772912e-02       1.433568902909e+00 
       8.412184535029e-02       1.351492410721e+00 
       8.716512279304e-02       1.269273896747e+00 
       9.027813695930e-02       1.189193343470e+00 
       9.346688431697e-02       1.113501292428e+00 
       9.673716028276e-02       1.044174642051e+00 
       1.000946150830e-01       9.827061802400e-01 
       1.035447986537e-01       9.299345750236e-01 
       1.070931966762e-01       8.859586979552e-01 
       1.107452594425e-01       8.500712771264e-01 
       1.145064249153e-01       8.208035180657e-01 
       1.183821370918e-01       7.960244285920e-01 
       1.223778605862e-01       7.731458359848e-01 
       1.264990921987e-01       7.494522441187e-01 
       1.307513701367e-01       7.225577325015e-01 
       1.351402814784e-01       6.909097856608e-01 
       1.396714684203e-01       6.541826019769e-01 
       1.443506338194e-01       6.134280732500e-01 
       1.491835465229e-01       5.708687554563e-01 
       1.541760469708e-01       5.293640587943e-01 
       1.593340535561e-01       4.917106033994e-01 
       1.646635702297e-01       4.599197021474e-01 
       1.701706958456e-01       4.347276394811e-01 
       1.758616357459e-01       4.154075274876e-01 
       1.817427160982e-01       3.999359282678e-01 
       1.878204015065e-01       3.856854921478e-01 
       1.941013164283e-01       3.698137887697e-01 
       2.005922709503e-01       3.505511875041e-01 
       2.073002914972e-01       3.280461244046e-01 
       2.142326570816e-01       3.042130592275e-01 
       2.213969417533e-01       2.816112165717e-01 
       2.288010639706e-01       2.622564238597e-01 
       2.364533437147e-01       2.469614010443e-01 
       2.443625682930e-01       2.350125183933e-01 
       2.525380679504e-01       2.244199332456e-01 
       2.609898026346e-01       2.130955747984e-01 
       2.697284615565e-01       2.001021443554e-01 
       2.787655775689e-01       1.860193759390e-01 
       2.881136588829e-01       1.725166092485e-01 
       2.977863412677e-01       1.610654754279e-01 
       3.077985646929e-01       1.517602082330e-01 
       3.181667794071e-01       1.435588494396e-01 
       3.289091877812e-01       1.351812434444e-01 
       3.400460299658e-01       1.261635652341e-01 
       3.515999236474e-01       1.172013211129e-01 
       3.635962711085e-01       1.091764089512e-01 
       3.760637506334e-01       1.023086523457e-01 
       3.890349143879e-01       9.593704004623e-02 
       4.025469216825e-01       8.950706768120e-02 
       4.166424456376e-01       8.311110308574e-02 
       4.313708035863e-01       7.721481375327e-02 
       4.467893782977e-01       7.189992698154e-02 
       4.629654199664e-01       6.686839043292e-02 
       4.799783501994e-01       6.191688100415e-02 
       4.979227319373e-01       5.722154941032e-02 
       5.169121270864e-01       5.290221957939e-02 
       5.370841404489e-01       4.876912237858e-02 
       5.586070464571e-01       4.479006431436e-02 
       5.816885094930e-01       4.105124007897e-02 
       6.065870144995e-01       3.748926321960e-02 
       6.336266468475e-01       3.407554939090e-02 
       6.632156059511e-01       3.083387451200e-02 
       6.958678639263e-01       2.772770675826e-02 
       7.322247985589e-01       2.476648496245e-02 
       7.730680195114e-01       2.193895056858e-02 
       8.193049553677e-01       1.925549420511e-02 
       8.718988016039e-01       1.672866007878e-02 
       9.317218031082e-01       1.438352451651e-02 
       9.993660908989e-01       1.225000814377e-02 
       1.075037110174e+00       1.035193980604e-02 
       1.158653485707e+00       8.699016068466e-03 
       1.250099157308e+00       7.283923649052e-03 
       1.349432401273e+00       6.084795658106e-03 
       1.456947457397e+00       5.075071159543e-03 
       1.573135111331e+00       4.227644622035e-03 
       1.698621895592e+00       3.517884329769e-03 
       1.834127512934e+00       2.924322665725e-03 
       1.980444934528e+00       2.428508366387e-03 
       2.138435191726e+00       2.014859091929e-03 
       2.309029199186e+00       1.670129258134e-03 
       2.493232377687e+00       1.383152127401e-03 
       2.692130395285e+00       1.144496918252e-03 
       2.906895534573e+00       9.462282969555e-04 
       3.138793597714e+00       7.816676068392e-04 
       3.389191366484e+00       6.452073636030e-04 
       3.659564657905e+00       5.321623866222e-04 
       3.951507022538e+00       4.385854668254e-04 
       4.266739136701e+00       3.612019693825e-04 
       4.607118943941e+00       2.972480371995e-04 
       4.974652605557e+00       2.444428542848e-04 
       5.371506324689e+00       2.008765654496e-04 
       5.800019113685e+00       1.649554614440e-04 
       6.262716579983e+00       1.353629571071e-04 
       6.762325811764e+00       1.109998948501e-04 
       7.301791451110e+00       9.095633510359e-05 
       7.884293049406e+00       7.447791431228e-05 
       8.513263807261e+00       6.093876163745e-05 
       9.192410809424e+00       4.982213369895e-05 
       9.925736873929e+00       4.070067103742e-05 
       1.071756414427e+01       3.322044155574e-05 
       1.157255956364e+01       2.709042723117e-05 
       1.249576238137e+01       2.206952970095e-05 
       1.349261385375e+01       1.796020453483e-05 
       1.456898931416e+01       1.459873115515e-05 
       1.573123280165e+01       1.185100897717e-05 
       1.698619445202e+01       9.606336633592e-06 
       1.834127087176e+01       7.773984278064e-06 
       1.980444873285e+01       6.279391011255e-06 
       2.138435184532e+01       5.061175782871e-06 
       2.309029198506e+01       4.069203788832e-06 
       2.493232377636e+01       3.262164060394e-06 
       2.692130395282e+01       2.606457329532e-06 
       2.906895534573e+01       2.074352849710e-06 
       3.138793597714e+01       1.643229155155e-06 
       3.389191366484e+01       1.294579111423e-06 
       3.659564657905e+01       1.013272396824e-06 
       3.951507022538e+01       7.869624888767e-07 
       4.266739136701e+01       6.055486357338e-07 
       4.607118943941e+01       4.607744170689e-07 
       4.974652605557e+01       3.459088445656e-07 
       5.371506324689e+01       2.554466242246e-07 
       5.800019113685e+01       1.848806047113e-07 
       6.262716579983e+01       1.305156091831e-07 
       6.762325811764e+01       8.930681984641e-08 
       7.301791451110e+01       5.873113336671e-08 
       7.884293049406e+01       3.668150639161e-08 
       8.513263807261e+01       2.137871150923e-08 
       9.192410809424e+01       1.130756869547e-08 
       9.925736873929e+01       5.167046810485e-09 
       1.071756414427e+02       1.839122190625e-09 
       1.157255956364e+02       3.762450166687e-10 
       1.249576238137e+02       2.064413389401e-12 
       1.349261385375e+02       1.225787389702e-10 
