# Matter power spectrum P(k) at redshift z=99
# for k=1.04775e-05 to 134.926 h/Mpc,
# number of wavenumbers equal to 255
#    1:k (h/Mpc)              2:P (Mpc/h)^3        
       1.047750691338e-05       7.261927095217e-03 
       1.131335172818e-05       7.820332150682e-03 
       1.221587619877e-05       8.421675382251e-03 
       1.319039970550e-05       9.069257737918e-03 
       1.424266598317e-05       9.766636451034e-03 
       1.537887697396e-05       1.051763973631e-02 
       1.660572938097e-05       1.132639250741e-02 
       1.793045413791e-05       1.219733201497e-02 
       1.936085902737e-05       1.313524187191e-02 
       2.090537469909e-05       1.414527084965e-02 
       2.257310435923e-05       1.523296544479e-02 
       2.437387742372e-05       1.640429654627e-02 
       2.631830745176e-05       1.766569603271e-02 
       2.841785470091e-05       1.902408711147e-02 
       3.068489367268e-05       2.048692967428e-02 
       3.313278604643e-05       2.206225467531e-02 
       3.577595943165e-05       2.375870883834e-02 
       3.862999240274e-05       2.558560669803e-02 
       4.171170631739e-05       2.755297672487e-02 
       4.503926445983e-05       2.967161933391e-02 
       4.863227909323e-05       3.195316455632e-02 
       5.251192705226e-05       3.441013466109e-02 
       5.670107455699e-05       3.705601741675e-02 
       6.122441198393e-05       3.990533412806e-02 
       6.610859938837e-05       4.297372242499e-02 
       7.138242363583e-05       4.627802054816e-02 
       7.707696806873e-05       4.983636159850e-02 
       8.322579570814e-05       5.366826786893e-02 
       8.986514707061e-05       5.779476319690e-02 
       9.703415376577e-05       6.223848221789e-02 
       1.047750691338e-04       6.702379824972e-02 
       1.131335172818e-04       7.217695031026e-02 
       1.221587619877e-04       7.772619030305e-02 
       1.319039970550e-04       8.370193379980e-02 
       1.424266598317e-04       9.013692506603e-02 
       1.537887697396e-04       9.706641130330e-02 
       1.660572938097e-04       1.045283343104e-01 
       1.793045413791e-04       1.125635329178e-01 
       1.936085902737e-04       1.212159592301e-01 
       2.090537469909e-04       1.305329107427e-01 
       2.257310435923e-04       1.405652819352e-01 
       2.437387742372e-04       1.513678275067e-01 
       2.631830745176e-04       1.629994475124e-01 
       2.841785470091e-04       1.755234890469e-01 
       3.068489367268e-04       1.890080645289e-01 
       3.313278604643e-04       2.035263977421e-01 
       3.577595943165e-04       2.191571778034e-01 
       3.862999240274e-04       2.359849423249e-01 
       4.171170631739e-04       2.541004712991e-01 
       4.503926445983e-04       2.736012061148e-01 
       4.863227909323e-04       2.945916774631e-01 
       5.251192705226e-04       3.171839507851e-01 
       5.670107455699e-04       3.414980769095e-01 
       6.122441198393e-04       3.676625416288e-01 
       6.610859938837e-04       3.958147272852e-01 
       7.138242363583e-04       4.261013332051e-01 
       7.707696806873e-04       4.586787880836e-01 
       8.322579570814e-04       4.937136112808e-01 
       8.986514707061e-04       5.313826962064e-01 
       9.703415376577e-04       5.718735176792e-01 
       1.047750691338e-03       6.153841926239e-01 
       1.131335172818e-03       6.621233623113e-01 
       1.221587619877e-03       7.123098743646e-01 
       1.319039970550e-03       7.661721263782e-01 
       1.424266598317e-03       8.239547181300e-01 
       1.537887697396e-03       8.859012282819e-01 
       1.660572938097e-03       9.522589495760e-01 
       1.793045413791e-03       1.023280284738e+00 
       1.936085902737e-03       1.099216542130e+00 
       2.090537469909e-03       1.180313285064e+00 
       2.257310435923e-03       1.266804486840e+00 
       2.437387742372e-03       1.358905328500e+00 
       2.631830745176e-03       1.456803285993e+00 
       2.841785470091e-03       1.560647663088e+00 
       3.068489367268e-03       1.670537010636e+00 
       3.313278604643e-03       1.786505039709e+00 
       3.577595943165e-03       1.908504410201e+00 
       3.862999240274e-03       2.036389468856e+00 
       4.171170631739e-03       2.169898252917e+00 
       4.503926445983e-03       2.308634492105e+00 
       4.863227909323e-03       2.452050674935e+00 
       5.251192705226e-03       2.599434681321e+00 
       5.670107455699e-03       2.749901126689e+00 
       6.122441198393e-03       2.902390058598e+00 
       6.610859938837e-03       3.055671270155e+00 
       7.138242363583e-03       3.208360123250e+00 
       7.707696806873e-03       3.358926651868e+00 
       8.322579570814e-03       3.505726890513e+00 
       8.986514707061e-03       3.647012438694e+00 
       9.703415376577e-03       3.780926180457e+00 
       1.047750691338e-02       3.905492882163e+00 
       1.131335172818e-02       4.018589827992e+00 
       1.221587619877e-02       4.117902891354e+00 
       1.319039970550e-02       4.200917703744e+00 
       1.424266598317e-02       4.264943743355e+00 
       1.537887697392e-02       4.307219675415e+00 
       1.660572938023e-02       4.325062465240e+00 
       1.793045412706e-02       4.316060401498e+00 
       1.936085890181e-02       4.278228943674e+00 
       2.090537352463e-02       4.210204486997e+00 
       2.257309535333e-02       4.111418764455e+00 
       2.437382002918e-02       3.982420954786e+00 
       2.631799944462e-02       3.825168705546e+00 
       2.841644545389e-02       3.643282268056e+00 
       3.067933355377e-02       3.442198729598e+00 
       3.311368470740e-02       3.229241626652e+00 
       3.571840443502e-02       3.013516365182e+00 
       3.847720348444e-02       2.805283980290e+00 
       4.135335538431e-02       2.614410711250e+00 
       4.429361667738e-02       2.448132237989e+00 
       4.724366439141e-02       2.309240713010e+00 
       5.016480835311e-02       2.196115272465e+00 
       5.303989620246e-02       2.104369951249e+00 
       5.586870669566e-02       2.028462701607e+00 
       5.866042680613e-02       1.963155437693e+00 
       6.142798932958e-02       1.903779854443e+00 
       6.418496440164e-02       1.846479374048e+00 
       6.694418833788e-02       1.788197660242e+00 
       6.971731106057e-02       1.726715879636e+00 
       7.251476155766e-02       1.660654605247e+00 
       7.534587671527e-02       1.589470082957e+00 
       7.821907666265e-02       1.513436818823e+00 
       8.114203772912e-02       1.433569021287e+00 
       8.412184535029e-02       1.351492531705e+00 
       8.716512279304e-02       1.269274019604e+00 
       9.027813695930e-02       1.189193467383e+00 
       9.346688431697e-02       1.113501416700e+00 
       9.673716028276e-02       1.044174766010e+00 
       1.000946150830e-01       9.827063032263e-01 
       1.035447986537e-01       9.299370746023e-01 
       1.070931966762e-01       8.859588168153e-01 
       1.107452594425e-01       8.500713926650e-01 
       1.145064249153e-01       8.208036285917e-01 
       1.183821370918e-01       7.960245320515e-01 
       1.223778605862e-01       7.731457602453e-01 
       1.264990921987e-01       7.494516439850e-01 
       1.307513701367e-01       7.225566652593e-01 
       1.351402814784e-01       6.909079626721e-01 
       1.396714684203e-01       6.541802250436e-01 
       1.443506338194e-01       6.134258088026e-01 
       1.491835465229e-01       5.708669969966e-01 
       1.541760469708e-01       5.293639648237e-01 
       1.593340535561e-01       4.917104638812e-01 
       1.646635702297e-01       4.599195113435e-01 
       1.701706958456e-01       4.347274044926e-01 
       1.758616357459e-01       4.154072673581e-01 
       1.817427160982e-01       3.999368949243e-01 
       1.878204015065e-01       3.856816261553e-01 
       1.941013164283e-01       3.698085178470e-01 
       2.005922709503e-01       3.505452760583e-01 
       2.073002914972e-01       3.280420714251e-01 
       2.142326570816e-01       3.042128120751e-01 
       2.213969417533e-01       2.816106185471e-01 
       2.288010639706e-01       2.622556818561e-01 
       2.364533437147e-01       2.469605136913e-01 
       2.443625682930e-01       2.350117949838e-01 
       2.525380679504e-01       2.244162934013e-01 
       2.609898026346e-01       2.130921529370e-01 
       2.697284615565e-01       2.001000176647e-01 
       2.787655775689e-01       1.860181463795e-01 
       2.881136588829e-01       1.725152603053e-01 
       2.977863412677e-01       1.610639764523e-01 
       3.077985646929e-01       1.517586012698e-01 
       3.181667794071e-01       1.435570746112e-01 
       3.289091877812e-01       1.351790663355e-01 
       3.400460299658e-01       1.261616117259e-01 
       3.515999236474e-01       1.171992561461e-01 
       3.635962711085e-01       1.091739602372e-01 
       3.760637506334e-01       1.023063546639e-01 
       3.890349143879e-01       9.593437717273e-02 
       4.025469216825e-01       8.950433241043e-02 
       4.166424456376e-01       8.310806093181e-02 
       4.313708035863e-01       7.721165068254e-02 
       4.467893782977e-01       7.189652059085e-02 
       4.629654199664e-01       6.686473351170e-02 
       4.799783501994e-01       6.191297716839e-02 
       4.979227319373e-01       5.721732179810e-02 
       5.169121270864e-01       5.289774073028e-02 
       5.370841404489e-01       4.876431618433e-02 
       5.586070464571e-01       4.478505333278e-02 
       5.816885094930e-01       4.104575791059e-02 
       6.065870144995e-01       3.748339588277e-02 
       6.336266468475e-01       3.406936874504e-02 
       6.632156059511e-01       3.082722126680e-02 
       6.958678639263e-01       2.772036278412e-02 
       7.322247985589e-01       2.475857274879e-02 
       7.730680195114e-01       2.193044770996e-02 
       8.193049553677e-01       1.924622950601e-02 
       8.718988016039e-01       1.671847627748e-02 
       9.317218031082e-01       1.437237805149e-02 
       9.993660908989e-01       1.223765361307e-02 
       1.075037110174e+00       1.033826636052e-02 
       1.158653485707e+00       8.683865401875e-03 
       1.250099157308e+00       7.267087584044e-03 
       1.349432401273e+00       6.066149198675e-03 
       1.456947457397e+00       5.054410720208e-03 
       1.573135111331e+00       4.204837769650e-03 
       1.698621895592e+00       3.492725192755e-03 
       1.834127512934e+00       2.896628217357e-03 
       1.980444934528e+00       2.398096567980e-03 
       2.138435191726e+00       1.981504318922e-03 
       2.309029199186e+00       1.633611280006e-03 
       2.493232377687e+00       1.343322309688e-03 
       2.692130395285e+00       1.101081612319e-03 
       2.906895534573e+00       8.991065518214e-04 
       3.138793597714e+00       7.307072992389e-04 
       3.389191366484e+00       5.902669574475e-04 
       3.659564657905e+00       4.732579401691e-04 
       3.951507022538e+00       3.757473409377e-04 
       4.266739136701e+00       2.945609481092e-04 
       4.607118943941e+00       2.271917275057e-04 
       4.974652605557e+00       1.714598556094e-04 
       5.371506324689e+00       1.256811517244e-04 
       5.800019113685e+00       8.847715316469e-05 
       6.262716579983e+00       5.897484195388e-05 
       6.762325811764e+00       3.616296674881e-05 
       7.301791451110e+00       1.947744970752e-05 
       7.884293049406e+00       8.286698130246e-06 
       8.513263807261e+00       2.041424342172e-06 
       9.192410809424e+00       5.756191358864e-09 
       9.925736873929e+00       1.309866425526e-06 
       1.071756414427e+01       4.833762338494e-06 
       1.157255956364e+01       9.272712267486e-06 
       1.249576238137e+01       1.320159358727e-05 
       1.349261385375e+01       1.542409884201e-05 
       1.456898931416e+01       1.513350924181e-05 
       1.573123280165e+01       1.236541281751e-05 
       1.698619445202e+01       8.024900872469e-06 
       1.834127087176e+01       3.607462142699e-06 
       1.980444873285e+01       6.761340229281e-07 
       2.138435184532e+01       5.008156971974e-08 
       2.309029198506e+01       1.195350342785e-06 
       2.493232377636e+01       2.572005687293e-06 
       2.692130395282e+01       2.819121080674e-06 
       2.906895534573e+01       1.692285623367e-06 
       3.138793597714e+01       3.917908258630e-07 
       3.389191366484e+01       1.724376913359e-08 
       3.659564657905e+01       4.362819704908e-07 
       3.951507022538e+01       6.053482111276e-07 
       4.266739136701e+01       2.539906645649e-07 
       4.607118943941e+01       1.960105624935e-09 
       4.974652605557e+01       9.680837285668e-08 
       5.371506324689e+01       1.106810174381e-07 
       5.800019113685e+01       1.294224597488e-08 
       6.262716579983e+01       2.083308623898e-08 
       6.762325811764e+01       2.612744568945e-08 
       7.301791451110e+01       7.255861490538e-10 
       7.884293049406e+01       9.055687194585e-09 
       8.513263807261e+01       5.046148377331e-10 
       9.192410809424e+01       1.247557135609e-09 
       9.925736873929e+01       2.695543410521e-10 
       1.071756414427e+02       5.065165779171e-12 
       1.157255956364e+02       1.679314773131e-10 
       1.249576238137e+02       3.354374652919e-09 
       1.349261385375e+02       9.336754564887e-12 
