# Matter power spectrum P(k) at redshift z=0
# for k=1.04775e-05 to 67.6233 h/Mpc,
# number of wavenumbers equal to 246
#    1:k (h/Mpc)              2:P (Mpc/h)^3        
       1.047750691338e-05       5.020964806751e+01 
       1.131335172818e-05       5.407048206554e+01 
       1.221587619877e-05       5.822819063749e+01 
       1.319039970550e-05       6.270562589676e+01 
       1.424266598317e-05       6.752731788102e+01 
       1.537887697396e-05       7.271977200258e+01 
       1.660572938097e-05       7.831147241541e+01 
       1.793045413791e-05       8.433311815128e+01 
       1.936085902737e-05       9.081778242446e+01 
       2.090537469909e-05       9.780108061339e+01 
       2.257310435923e-05       1.053213197032e+02 
       2.437387742372e-05       1.134197377001e+02 
       2.631830745176e-05       1.221408202816e+02 
       2.841785470091e-05       1.315324720916e+02 
       3.068489367268e-05       1.416462093731e+02 
       3.313278604643e-05       1.525374500691e+02 
       3.577595943165e-05       1.642660687078e+02 
       3.862999240274e-05       1.768963504868e+02 
       4.171170631739e-05       1.904975992460e+02 
       4.503926445983e-05       2.051444490305e+02 
       4.863227909323e-05       2.209171463752e+02 
       5.251192705226e-05       2.379022222314e+02 
       5.670107455699e-05       2.561927925421e+02 
       6.122441198393e-05       2.758890441791e+02 
       6.610859938837e-05       2.970989225466e+02 
       7.138242363583e-05       3.199385558200e+02 
       7.707696806873e-05       3.445329780878e+02 
       8.322579570814e-05       3.710167315928e+02 
       8.986514707061e-05       3.995346440954e+02 
       9.703415376577e-05       4.302425403884e+02 
       1.047750691338e-04       4.633080762974e+02 
       1.131335172818e-04       4.989116267507e+02 
       1.221587619877e-04       5.372471946561e+02 
       1.319039970550e-04       5.785234124638e+02 
       1.424266598317e-04       6.229645930980e+02 
       1.537887697396e-04       6.708118484951e+02 
       1.660572938097e-04       7.223242660220e+02 
       1.793045413791e-04       7.777801554477e+02 
       1.936085902737e-04       8.374783607333e+02 
       2.090537469909e-04       9.017396264495e+02 
       2.257310435923e-04       9.709080260152e+02 
       2.437387742372e-04       1.045352448644e+03 
       2.631830745176e-04       1.125468122836e+03 
       2.841785470091e-04       1.211678179511e+03 
       3.068489367268e-04       1.304435249091e+03 
       3.313278604643e-04       1.404223052541e+03 
       3.577595943165e-04       1.511558013390e+03 
       3.862999240274e-04       1.626990836384e+03 
       4.171170631739e-04       1.751108027370e+03 
       4.503926445983e-04       1.884533381345e+03 
       4.863227909323e-04       2.027929376470e+03 
       5.251192705226e-04       2.181998446367e+03 
       5.670107455699e-04       2.347484100857e+03 
       6.122441198393e-04       2.525171869335e+03 
       6.610859938837e-04       2.715889981400e+03 
       7.138242363583e-04       2.920509686089e+03 
       7.707696806873e-04       3.139945097710e+03 
       8.322579570814e-04       3.375152334396e+03 
       8.986514707061e-04       3.627127828231e+03 
       9.703415376577e-04       3.896905450016e+03 
       1.047750691338e-03       4.185552170960e+03 
       1.131335172818e-03       4.494162426791e+03 
       1.221587619877e-03       4.823850702663e+03 
       1.319039970550e-03       5.175742735084e+03 
       1.424266598317e-03       5.551019592518e+03 
       1.537887697396e-03       5.950788335876e+03 
       1.660572938097e-03       6.376123046808e+03 
       1.793045413791e-03       6.828073896108e+03 
       1.936085902737e-03       7.307625375386e+03 
       2.090537469909e-03       7.815671859959e+03 
       2.257310435923e-03       8.352990369399e+03 
       2.437387742372e-03       8.920211057532e+03 
       2.631830745176e-03       9.517783061890e+03 
       2.841785470091e-03       1.014593703671e+04 
       3.068489367268e-03       1.080464505743e+04 
       3.313278604643e-03       1.149357459456e+04 
       3.577595943165e-03       1.221203620826e+04 
       3.862999240274e-03       1.295892538505e+04 
       4.171170631739e-03       1.373266002399e+04 
       4.503926445983e-03       1.453111834595e+04 
       4.863227909323e-03       1.535154984226e+04 
       5.251192705226e-03       1.619063613432e+04 
       5.670107455699e-03       1.704431256617e+04 
       6.122441198393e-03       1.790755938457e+04 
       6.610859938837e-03       1.877460418775e+04 
       7.138242363583e-03       1.963872429103e+04 
       7.707696806873e-03       2.049215712358e+04 
       8.322579570814e-03       2.132607230481e+04 
       8.986514707061e-03       2.213055074723e+04 
       9.703415376577e-03       2.289445470804e+04 
       1.047750691338e-02       2.360548498181e+04 
       1.131335172818e-02       2.425022856709e+04 
       1.221587619877e-02       2.481423924563e+04 
       1.319039970550e-02       2.528218677039e+04 
       1.424266598317e-02       2.563814381707e+04 
       1.537887697392e-02       2.586605678180e+04 
       1.660572938023e-02       2.595025269919e+04 
       1.793045412706e-02       2.587633550573e+04 
       1.936085890181e-02       2.563220656938e+04 
       2.090537352463e-02       2.520934046171e+04 
       2.257309535333e-02       2.460447794446e+04 
       2.437382002918e-02       2.382088248475e+04 
       2.631799944462e-02       2.287044876289e+04 
       2.841644545389e-02       2.177450517556e+04 
       3.067933355377e-02       2.056558687219e+04 
       3.311368470740e-02       1.928729318388e+04 
       3.571840443502e-02       1.799403786199e+04 
       3.847720348444e-02       1.674683969175e+04 
       4.135335538431e-02       1.560459607076e+04 
       4.429361667738e-02       1.461037763506e+04 
       4.724366439141e-02       1.378053211654e+04 
       5.016480835311e-02       1.310508515983e+04 
       5.303989620246e-02       1.255715473500e+04 
       5.586870669566e-02       1.210425678183e+04 
       5.866042680613e-02       1.171466453393e+04 
       6.142798932958e-02       1.136047485918e+04 
       6.418496440164e-02       1.101857543847e+04 
       6.694418833788e-02       1.067072539597e+04 
       6.971731106057e-02       1.030359069043e+04 
       7.251476155766e-02       9.909003113374e+03 
       7.534587671527e-02       9.483780529483e+03 
       7.821907666265e-02       9.029511737878e+03 
       8.114203772912e-02       8.552314295643e+03 
       8.412184535029e-02       8.061957342128e+03 
       8.716512279304e-02       7.570763263542e+03 
       9.027813695930e-02       7.092518685240e+03 
       9.346688431697e-02       6.640517656449e+03 
       9.673716028276e-02       6.226692127530e+03 
       1.000946150830e-01       5.859940514696e+03 
       1.035447986537e-01       5.545253403147e+03 
       1.070931966762e-01       5.283137362722e+03 
       1.107452594425e-01       5.069420613688e+03 
       1.145064249153e-01       4.895254898050e+03 
       1.183821370918e-01       4.747873661782e+03 
       1.223778605862e-01       4.611739807611e+03 
       1.264990921987e-01       4.470622588363e+03 
       1.307513701367e-01       4.310274855340e+03 
       1.351402814784e-01       4.121386544516e+03 
       1.396714684203e-01       3.902064536715e+03 
       1.443506338194e-01       3.658632331455e+03 
       1.491835465229e-01       3.404489559717e+03 
       1.541760469708e-01       3.156671485361e+03 
       1.593340535561e-01       2.931984350032e+03 
       1.646635702297e-01       2.742376149050e+03 
       1.701706958456e-01       2.592258400025e+03 
       1.758616357459e-01       2.477239692227e+03 
       1.817427160982e-01       2.385178633335e+03 
       1.878204015065e-01       2.300366008176e+03 
       1.941013164283e-01       2.205758802064e+03 
       2.005922709503e-01       2.090814565686e+03 
       2.073002914972e-01       1.956464743237e+03 
       2.142326570816e-01       1.814194255510e+03 
       2.213969417533e-01       1.679294552306e+03 
       2.288010639706e-01       1.563847300522e+03 
       2.364533437147e-01       1.472687344891e+03 
       2.443625682930e-01       1.401514676775e+03 
       2.525380679504e-01       1.338415227165e+03 
       2.609898026346e-01       1.270903735625e+03 
       2.697284615565e-01       1.193384265767e+03 
       2.787655775689e-01       1.109341222473e+03 
       2.881136588829e-01       1.028767863236e+03 
       2.977863412677e-01       9.604827557584e+02 
       3.077985646929e-01       9.050266879693e+02 
       3.181667794071e-01       8.561449309988e+02 
       3.289091877812e-01       8.061855395034e+02 
       3.400460299658e-01       7.523935034759e+02 
       3.515999236474e-01       6.989276813105e+02 
       3.635962711085e-01       6.510644882381e+02 
       3.760637506334e-01       6.101226999686e+02 
       3.890349143879e-01       5.721313108368e+02 
       4.025469216825e-01       5.337817200634e+02 
       4.166424456376e-01       4.956320423963e+02 
       4.313708035863e-01       4.604700031192e+02 
       4.467893782977e-01       4.287767907832e+02 
       4.629654199664e-01       3.987732570456e+02 
       4.799783501994e-01       3.692426444758e+02 
       4.979227319373e-01       3.412403916694e+02 
       5.169121270864e-01       3.154844447613e+02 
       5.370841404489e-01       2.908354742380e+02 
       5.586070464571e-01       2.671063433951e+02 
       5.816885094930e-01       2.448090218989e+02 
       6.065870144995e-01       2.235689270662e+02 
       6.336266468475e-01       2.032102543364e+02 
       6.632156059511e-01       1.838788022131e+02 
       6.958678639263e-01       1.653546601559e+02 
       7.322247985589e-01       1.476955978021e+02 
       7.730680195114e-01       1.308338406606e+02 
       8.193049553677e-01       1.148315025260e+02 
       8.718988016039e-01       9.976280073167e+01 
       9.317218031082e-01       8.577763656834e+01 
       9.993660908989e-01       7.305473685640e+01 
       1.075037110174e+00       6.173603552266e+01 
       1.158653485707e+00       5.187934655121e+01 
       1.250099157308e+00       4.344031278529e+01 
       1.349432401273e+00       3.628944155293e+01 
       1.456947457397e+00       3.026814258171e+01 
       1.573135111331e+00       2.521450043867e+01 
       1.698621895592e+00       2.098201154423e+01 
       1.834127512934e+00       1.744233733957e+01 
       1.980444934528e+00       1.448566532875e+01 
       2.138435191726e+00       1.201893289999e+01 
       2.309029199186e+00       9.963185019717e+00 
       2.493232377687e+00       8.251800187049e+00 
       2.692130395285e+00       6.828625134008e+00 
       2.906895534573e+00       5.646211502966e+00 
       3.138793597714e+00       4.664867788428e+00 
       3.389191366484e+00       3.851106893303e+00 
       3.659564657905e+00       3.176942234131e+00 
       3.951507022538e+00       2.618883545871e+00 
       4.266739136701e+00       2.157291379960e+00 
       4.607118943941e+00       1.775931133283e+00 
       4.974652605557e+00       1.460988208261e+00 
       5.371506324689e+00       1.201129103637e+00 
       5.800019113685e+00       9.868785840612e-01 
       6.262716579983e+00       8.103546416427e-01 
       6.762325811764e+00       6.650103407948e-01 
       7.301791451110e+00       5.454289914412e-01 
       7.884293049406e+00       4.470986696330e-01 
       8.513263807261e+00       3.662956966594e-01 
       9.192410809424e+00       2.999381178376e-01 
       9.925736873929e+00       2.454806419449e-01 
       1.071756414427e+01       2.008047324857e-01 
       1.157255956364e+01       1.641831912880e-01 
       1.249576238137e+01       1.341749860007e-01 
       1.349261385375e+01       1.096013842206e-01 
       1.456898931416e+01       8.948746650546e-02 
       1.573123280165e+01       7.303138162579e-02 
       1.698619445202e+01       5.957555231694e-02 
       1.834127087176e+01       4.857836448159e-02 
       1.980444873285e+01       3.959441356683e-02 
       2.138435184532e+01       3.225792498599e-02 
       2.309029198506e+01       2.626991680683e-02 
       2.493232377636e+01       2.138457096630e-02 
       2.692130395282e+01       1.740063637666e-02 
       2.906895534573e+01       1.415290967219e-02 
       3.138793597714e+01       1.150641185897e-02 
       3.389191366484e+01       9.350734957679e-03 
       3.659564657905e+01       7.595524783155e-03 
       3.951507022538e+01       6.166918752480e-03 
       4.266739136701e+01       5.004406727448e-03 
       4.607118943941e+01       4.058964151225e-03 
       4.974652605557e+01       3.290222871322e-03 
       5.371506324689e+01       2.665300371205e-03 
       5.800019113685e+01       2.157542459704e-03 
       6.262716579983e+01       1.745051153045e-03 
       6.762325811764e+01       1.410039307490e-03 
