# Matter power spectrum P(k) at redshift z=0
# for k=1.04775e-05 to 67.6233 h/Mpc,
# number of wavenumbers equal to 246
#    1:k (h/Mpc)              2:P (Mpc/h)^3        
       1.047750691338e-05       5.020964806750e+01 
       1.131335172818e-05       5.407048206553e+01 
       1.221587619877e-05       5.822819063748e+01 
       1.319039970550e-05       6.270562589678e+01 
       1.424266598317e-05       6.752731788102e+01 
       1.537887697396e-05       7.271977200258e+01 
       1.660572938097e-05       7.831147241541e+01 
       1.793045413791e-05       8.433311815128e+01 
       1.936085902737e-05       9.081778242446e+01 
       2.090537469909e-05       9.780108061340e+01 
       2.257310435923e-05       1.053213197032e+02 
       2.437387742372e-05       1.134197377001e+02 
       2.631830745176e-05       1.221408202816e+02 
       2.841785470091e-05       1.315324720916e+02 
       3.068489367268e-05       1.416462093730e+02 
       3.313278604643e-05       1.525374500691e+02 
       3.577595943165e-05       1.642660687078e+02 
       3.862999240274e-05       1.768963504868e+02 
       4.171170631739e-05       1.904975992460e+02 
       4.503926445983e-05       2.051444490305e+02 
       4.863227909323e-05       2.209171463752e+02 
       5.251192705226e-05       2.379022222314e+02 
       5.670107455699e-05       2.561927926094e+02 
       6.122441198393e-05       2.758890441791e+02 
       6.610859938837e-05       2.970989225467e+02 
       7.138242363583e-05       3.199385558200e+02 
       7.707696806873e-05       3.445329780878e+02 
       8.322579570814e-05       3.710167315928e+02 
       8.986514707061e-05       3.995346440954e+02 
       9.703415376577e-05       4.302425403884e+02 
       1.047750691338e-04       4.633080762974e+02 
       1.131335172818e-04       4.989116267507e+02 
       1.221587619877e-04       5.372471946561e+02 
       1.319039970550e-04       5.785234124635e+02 
       1.424266598317e-04       6.229645930980e+02 
       1.537887697396e-04       6.708118484951e+02 
       1.660572938097e-04       7.223242660220e+02 
       1.793045413791e-04       7.777801557645e+02 
       1.936085902737e-04       8.374783607333e+02 
       2.090537469909e-04       9.017396264495e+02 
       2.257310435923e-04       9.709080260152e+02 
       2.437387742372e-04       1.045352448644e+03 
       2.631830745176e-04       1.125468122836e+03 
       2.841785470091e-04       1.211678179510e+03 
       3.068489367268e-04       1.304435249091e+03 
       3.313278604643e-04       1.404223052541e+03 
       3.577595943165e-04       1.511558013390e+03 
       3.862999240274e-04       1.626990836446e+03 
       4.171170631739e-04       1.751108027370e+03 
       4.503926445983e-04       1.884533381345e+03 
       4.863227909323e-04       2.027929376471e+03 
       5.251192705226e-04       2.181998446367e+03 
       5.670107455699e-04       2.347484100857e+03 
       6.122441198393e-04       2.525171869337e+03 
       6.610859938837e-04       2.715889981400e+03 
       7.138242363583e-04       2.920509686085e+03 
       7.707696806873e-04       3.139945097710e+03 
       8.322579570814e-04       3.375152334395e+03 
       8.986514707061e-04       3.627127828230e+03 
       9.703415376577e-04       3.896905450014e+03 
       1.047750691338e-03       4.185552170965e+03 
       1.131335172818e-03       4.494162426789e+03 
       1.221587619877e-03       4.823850702666e+03 
       1.319039970550e-03       5.175742734699e+03 
       1.424266598317e-03       5.551019592514e+03 
       1.537887697396e-03       5.950788335874e+03 
       1.660572938097e-03       6.376123046777e+03 
       1.793045413791e-03       6.828073896120e+03 
       1.936085902737e-03       7.307625375375e+03 
       2.090537469909e-03       7.815671859378e+03 
       2.257310435923e-03       8.352990369372e+03 
       2.437387742372e-03       8.920211057532e+03 
       2.631830745176e-03       9.517783061859e+03 
       2.841785470091e-03       1.014593703667e+04 
       3.068489367268e-03       1.080464505736e+04 
       3.313278604643e-03       1.149357459415e+04 
       3.577595943165e-03       1.221203620818e+04 
       3.862999240274e-03       1.295892538496e+04 
       4.171170631739e-03       1.373266002124e+04 
       4.503926445983e-03       1.453111834580e+04 
       4.863227909323e-03       1.535154983670e+04 
       5.251192705226e-03       1.619063610139e+04 
       5.670107455699e-03       1.704431256395e+04 
       6.122441198393e-03       1.790755940367e+04 
       6.610859938837e-03       1.877460407684e+04 
       7.138242363583e-03       1.963872435385e+04 
       7.707696806873e-03       2.049215712974e+04 
       8.322579570814e-03       2.132606974504e+04 
       8.986514707061e-03       2.213054854115e+04 
       9.703415376577e-03       2.289445495574e+04 
       1.047750691338e-02       2.360547611040e+04 
       1.131335172818e-02       2.425023320555e+04 
       1.221587619877e-02       2.481423930618e+04 
       1.319039970550e-02       2.528218789229e+04 
       1.424266598317e-02       2.563814464876e+04 
       1.537887697392e-02       2.586608396478e+04 
       1.660572938023e-02       2.595027089810e+04 
       1.793045412706e-02       2.587633787390e+04 
       1.936085890181e-02       2.563218314434e+04 
       2.090537352463e-02       2.520935737209e+04 
       2.257309535333e-02       2.460443686796e+04 
       2.437382002918e-02       2.382084536435e+04 
       2.631799944462e-02       2.287037519767e+04 
       2.841644545389e-02       2.177448395982e+04 
       3.067933355377e-02       2.056558671871e+04 
       3.311368470740e-02       1.928729459658e+04 
       3.571840443502e-02       1.799400469307e+04 
       3.847720348444e-02       1.674680160837e+04 
       4.135335538431e-02       1.560451310905e+04 
       4.429361667738e-02       1.461034977505e+04 
       4.724366439141e-02       1.378052003653e+04 
       5.016480835311e-02       1.310503425912e+04 
       5.303989620246e-02       1.255718081786e+04 
       5.586870669566e-02       1.210426958506e+04 
       5.866042680613e-02       1.171468932083e+04 
       6.142798932958e-02       1.136053150274e+04 
       6.418496440164e-02       1.101860674787e+04 
       6.694418833788e-02       1.067072186015e+04 
       6.971731106057e-02       1.030364269797e+04 
       7.251476155766e-02       9.909062615547e+03 
       7.534587671527e-02       9.483801092112e+03 
       7.821907666265e-02       9.029491940362e+03 
       8.114203772912e-02       8.552326992008e+03 
       8.412184535029e-02       8.061991599411e+03 
       8.716512279304e-02       7.570794280402e+03 
       9.027813695930e-02       7.092490756097e+03 
       9.346688431697e-02       6.640542498918e+03 
       9.673716028276e-02       6.226746621331e+03 
       1.000946150830e-01       5.859980693107e+03 
       1.035447986537e-01       5.545290566178e+03 
       1.070931966762e-01       5.283162008864e+03 
       1.107452594425e-01       5.069432692799e+03 
       1.145064249153e-01       4.895255915966e+03 
       1.183821370918e-01       4.747860643875e+03 
       1.223778605862e-01       4.611740777780e+03 
       1.264990921987e-01       4.470621560428e+03 
       1.307513701367e-01       4.310274727808e+03 
       1.351402814784e-01       4.121377286216e+03 
       1.396714684203e-01       3.902075807265e+03 
       1.443506338194e-01       3.658610074365e+03 
       1.491835465229e-01       3.404481369656e+03 
       1.541760469708e-01       3.156664629401e+03 
       1.593340535561e-01       2.931939746831e+03 
       1.646635702297e-01       2.742346920848e+03 
       1.701706958456e-01       2.592240221853e+03 
       1.758616357459e-01       2.477221249559e+03 
       1.817427160982e-01       2.385159755707e+03 
       1.878204015065e-01       2.300356095137e+03 
       1.941013164283e-01       2.205765744219e+03 
       2.005922709503e-01       2.090826242976e+03 
       2.073002914972e-01       1.956462693096e+03 
       2.142326570816e-01       1.814180315091e+03 
       2.213969417533e-01       1.679269798765e+03 
       2.288010639706e-01       1.563835687531e+03 
       2.364533437147e-01       1.472671946176e+03 
       2.443625682930e-01       1.401504979472e+03 
       2.525380679504e-01       1.338416970509e+03 
       2.609898026346e-01       1.270899525304e+03 
       2.697284615565e-01       1.193355943057e+03 
       2.787655775689e-01       1.109332873672e+03 
       2.881136588829e-01       1.028761595570e+03 
       2.977863412677e-01       9.604747193427e+02 
       3.077985646929e-01       9.050154460124e+02 
       3.181667794071e-01       8.561377339276e+02 
       3.289091877812e-01       8.061798749534e+02 
       3.400460299658e-01       7.523825141143e+02 
       3.515999236474e-01       6.989153178001e+02 
       3.635962711085e-01       6.510576054390e+02 
       3.760637506334e-01       6.101187153462e+02 
       3.890349143879e-01       5.721267262566e+02 
       4.025469216825e-01       5.337756601644e+02 
       4.166424456376e-01       4.956241864800e+02 
       4.313708035863e-01       4.604650085423e+02 
       4.467893782977e-01       4.287689234278e+02 
       4.629654199664e-01       3.987690896969e+02 
       4.799783501994e-01       3.692357431149e+02 
       4.979227319373e-01       3.412369945590e+02 
       5.169121270864e-01       3.154781132058e+02 
       5.370841404489e-01       2.908313005769e+02 
       5.586070464571e-01       2.671016877553e+02 
       5.816885094930e-01       2.448044577127e+02 
       6.065870144995e-01       2.235655690675e+02 
       6.336266468475e-01       2.032085657140e+02 
       6.632156059511e-01       1.838771011248e+02 
       6.958678639263e-01       1.653528179828e+02 
       7.322247985589e-01       1.476936733574e+02 
       7.730680195114e-01       1.308323492077e+02 
       8.193049553677e-01       1.148299760535e+02 
       8.718988016039e-01       9.976111108699e+01 
       9.317218031082e-01       8.577641674459e+01 
       9.993660908989e-01       7.305310996984e+01 
       1.075037110174e+00       6.173413709829e+01 
       1.158653485707e+00       5.187708622629e+01 
       1.250099157308e+00       4.343830287694e+01 
       1.349432401273e+00       3.628728098530e+01 
       1.456947457397e+00       3.026583062173e+01 
       1.573135111331e+00       2.521222879573e+01 
       1.698621895592e+00       2.097938658860e+01 
       1.834127512934e+00       1.743949890741e+01 
       1.980444934528e+00       1.448262610118e+01 
       2.138435191726e+00       1.201561734662e+01 
       2.309029199186e+00       9.959497921582e+00 
       2.493232377687e+00       8.247884214314e+00 
       2.692130395285e+00       6.824318543495e+00 
       2.906895534573e+00       5.641587874863e+00 
       3.138793597714e+00       4.659798305580e+00 
       3.389191366484e+00       3.845537621486e+00 
       3.659564657905e+00       3.170900036233e+00 
       3.951507022538e+00       2.612279593958e+00 
       4.266739136701e+00       2.150145890543e+00 
       4.607118943941e+00       1.768102049929e+00 
       4.974652605557e+00       1.452463649345e+00 
       5.371506324689e+00       1.191848429564e+00 
       5.800019113685e+00       9.767896078680e-01 
       6.262716579983e+00       7.993909730167e-01 
       6.762325811764e+00       6.531206890336e-01 
       7.301791451110e+00       5.325499184809e-01 
       7.884293049406e+00       4.331699165289e-01 
       8.513263807261e+00       3.512631582606e-01 
       9.192410809424e+00       2.837606981022e-01 
       9.925736873929e+00       2.281118446074e-01 
       1.071756414427e+01       1.822324546688e-01 
       1.157255956364e+01       1.444051367790e-01 
       1.249576238137e+01       1.132273541886e-01 
       1.349261385375e+01       8.755593573350e-02 
       1.456898931416e+01       6.647111400057e-02 
       1.573123280165e+01       4.923241954830e-02 
       1.698619445202e+01       3.525746879919e-02 
       1.834127087176e+01       2.409050931425e-02 
       1.980444873285e+01       1.537780379031e-02 
       2.138435184532e+01       8.844566119489e-03 
       2.309029198506e+01       4.265983571630e-03 
       2.493232377636e+01       1.438965184753e-03 
       2.692130395282e+01       1.479306484008e-04 
       2.906895534573e+01       1.339467318798e-04 
       3.138793597714e+01       1.068239073331e-03 
       3.389191366484e+01       2.542766946900e-03 
       3.659564657905e+01       4.089372907225e-03 
       3.951507022538e+01       5.238061852431e-03 
       4.266739136701e+01       5.615091641873e-03 
       4.607118943941e+01       5.061453114083e-03 
       4.974652605557e+01       3.724555429208e-03 
       5.371506324689e+01       2.055824176296e-03 
       5.800019113685e+01       6.619572515012e-04 
       6.262716579983e+01       2.264597878833e-05 
       6.762325811764e+01       2.043847603179e-04 
