# Matter power spectrum P(k) at redshift z=99
# for k=1.04775e-05 to 67.6233 h/Mpc,
# number of wavenumbers equal to 246
#    1:k (h/Mpc)              2:P (Mpc/h)^3        
       1.047750691338e-05       7.261927673119e-03 
       1.131335172818e-05       7.820331745737e-03 
       1.221587619877e-05       8.421675986488e-03 
       1.319039970550e-05       9.069258192194e-03 
       1.424266598317e-05       9.766638404421e-03 
       1.537887697396e-05       1.051764069682e-02 
       1.660572938097e-05       1.132639105520e-02 
       1.793045413791e-05       1.219733231416e-02 
       1.936085902737e-05       1.313524224380e-02 
       2.090537469909e-05       1.414527121893e-02 
       2.257310435923e-05       1.523296272192e-02 
       2.437387742372e-05       1.640429444530e-02 
       2.631830745176e-05       1.766569582177e-02 
       2.841785470091e-05       1.902408601793e-02 
       3.068489367268e-05       2.048692970591e-02 
       3.313278604643e-05       2.206225513594e-02 
       3.577595943165e-05       2.375870704909e-02 
       3.862999240274e-05       2.558560727479e-02 
       4.171170631739e-05       2.755297763344e-02 
       4.503926445983e-05       2.967161927314e-02 
       4.863227909323e-05       3.195316450832e-02 
       5.251192705226e-05       3.441013519284e-02 
       5.670107455699e-05       3.705601722528e-02 
       6.122441198393e-05       3.990533413562e-02 
       6.610859938837e-05       4.297372168203e-02 
       7.138242363583e-05       4.627802141688e-02 
       7.707696806873e-05       4.983636194159e-02 
       8.322579570814e-05       5.366826847231e-02 
       8.986514707061e-05       5.779476394569e-02 
       9.703415376577e-05       6.223848243885e-02 
       1.047750691338e-04       6.702379865640e-02 
       1.131335172818e-04       7.217695153381e-02 
       1.221587619877e-04       7.772619073573e-02 
       1.319039970550e-04       8.370193432376e-02 
       1.424266598317e-04       9.013692507546e-02 
       1.537887697396e-04       9.706641242570e-02 
       1.660572938097e-04       1.045283354271e-01 
       1.793045413791e-04       1.125635349068e-01 
       1.936085902737e-04       1.212159614968e-01 
       2.090537469909e-04       1.305329132714e-01 
       2.257310435923e-04       1.405652846215e-01 
       2.437387742372e-04       1.513678302540e-01 
       2.631830745176e-04       1.629994504871e-01 
       2.841785470091e-04       1.755234921224e-01 
       3.068489367268e-04       1.890080670413e-01 
       3.313278604643e-04       2.035264002435e-01 
       3.577595943165e-04       2.191571803681e-01 
       3.862999240274e-04       2.359849437592e-01 
       4.171170631739e-04       2.541004741539e-01 
       4.503926445983e-04       2.736012080278e-01 
       4.863227909323e-04       2.945916790965e-01 
       5.251192705226e-04       3.171839525182e-01 
       5.670107455699e-04       3.414980764002e-01 
       6.122441198393e-04       3.676625413100e-01 
       6.610859938837e-04       3.958147252304e-01 
       7.138242363583e-04       4.261013284918e-01 
       7.707696806873e-04       4.586787792351e-01 
       8.322579570814e-04       4.937136001348e-01 
       8.986514707061e-04       5.313826801402e-01 
       9.703415376577e-04       5.718734972157e-01 
       1.047750691338e-03       6.153841629505e-01 
       1.131335172818e-03       6.621233239466e-01 
       1.221587619877e-03       7.123098220425e-01 
       1.319039970550e-03       7.661720584697e-01 
       1.424266598317e-03       8.239546297730e-01 
       1.537887697396e-03       8.859011173466e-01 
       1.660572938097e-03       9.522588006419e-01 
       1.793045413791e-03       1.023280099819e+00 
       1.936085902737e-03       1.099216304579e+00 
       2.090537469909e-03       1.180312990453e+00 
       2.257310435923e-03       1.266804115851e+00 
       2.437387742372e-03       1.358904853406e+00 
       2.631830745176e-03       1.456802683156e+00 
       2.841785470091e-03       1.560646890522e+00 
       3.068489367268e-03       1.670536062499e+00 
       3.313278604643e-03       1.786503852162e+00 
       3.577595943165e-03       1.908502930787e+00 
       3.862999240274e-03       2.036387730709e+00 
       4.171170631739e-03       2.169896178860e+00 
       4.503926445983e-03       2.308631878994e+00 
       4.863227909323e-03       2.452047290962e+00 
       5.251192705226e-03       2.599430628088e+00 
       5.670107455699e-03       2.749896931809e+00 
       6.122441198393e-03       2.902386513384e+00 
       6.610859938837e-03       3.055668696851e+00 
       7.138242363583e-03       3.208356461544e+00 
       7.707696806873e-03       3.358923891938e+00 
       8.322579570814e-03       3.505725595389e+00 
       8.986514707061e-03       3.647009975399e+00 
       9.703415376577e-03       3.780923304300e+00 
       1.047750691338e-02       3.905491008042e+00 
       1.131335172818e-02       4.018587641094e+00 
       1.221587619877e-02       4.117901587970e+00 
       1.319039970550e-02       4.200915452217e+00 
       1.424266598317e-02       4.264942549007e+00 
       1.537887697392e-02       4.307220219700e+00 
       1.660572938023e-02       4.325062805296e+00 
       1.793045412706e-02       4.316059034353e+00 
       1.936085890181e-02       4.278228401634e+00 
       2.090537352463e-02       4.210198798555e+00 
       2.257309535333e-02       4.111421356124e+00 
       2.437382002918e-02       3.982420987513e+00 
       2.631799944462e-02       3.825166429915e+00 
       2.841644545389e-02       3.643281453053e+00 
       3.067933355377e-02       3.442196026501e+00 
       3.311368470740e-02       3.229233599263e+00 
       3.571840443502e-02       3.013517257942e+00 
       3.847720348444e-02       2.805271058214e+00 
       4.135335538431e-02       2.614409000972e+00 
       4.429361667738e-02       2.448132458711e+00 
       4.724366439141e-02       2.309237608036e+00 
       5.016480835311e-02       2.196113783079e+00 
       5.303989620246e-02       2.104362211024e+00 
       5.586870669566e-02       2.028465496235e+00 
       5.866042680613e-02       1.963152504212e+00 
       6.142798932958e-02       1.903780704437e+00 
       6.418496440164e-02       1.846477548839e+00 
       6.694418833788e-02       1.788201649747e+00 
       6.971731106057e-02       1.726715476964e+00 
       7.251476155766e-02       1.660653548689e+00 
       7.534587671527e-02       1.589470924386e+00 
       7.821907666265e-02       1.513440486016e+00 
       8.114203772912e-02       1.433568989051e+00 
       8.412184535029e-02       1.351491319866e+00 
       8.716512279304e-02       1.269274302890e+00 
       9.027813695930e-02       1.189194866293e+00 
       9.346688431697e-02       1.113498524209e+00 
       9.673716028276e-02       1.044174701915e+00 
       1.000946150830e-01       9.827071170429e-01 
       1.035447986537e-01       9.299448220439e-01 
       1.070931966762e-01       8.859585420410e-01 
       1.107452594425e-01       8.500720977708e-01 
       1.145064249153e-01       8.208036748224e-01 
       1.183821370918e-01       7.960252811220e-01 
       1.223778605862e-01       7.731458124352e-01 
       1.264990921987e-01       7.494517959862e-01 
       1.307513701367e-01       7.225581261266e-01 
       1.351402814784e-01       6.909078876620e-01 
       1.396714684203e-01       6.541829357473e-01 
       1.443506338194e-01       6.134273525303e-01 
       1.491835465229e-01       5.708674911977e-01 
       1.541760469708e-01       5.293633936348e-01 
       1.593340535561e-01       4.917102510834e-01 
       1.646635702297e-01       4.599195955837e-01 
       1.701706958456e-01       4.347288281799e-01 
       1.758616357459e-01       4.154081874450e-01 
       1.817427160982e-01       3.999363183838e-01 
       1.878204015065e-01       3.856832271011e-01 
       1.941013164283e-01       3.698100379776e-01 
       2.005922709503e-01       3.505469216462e-01 
       2.073002914972e-01       3.280433615528e-01 
       2.142326570816e-01       3.042144644591e-01 
       2.213969417533e-01       2.816112743571e-01 
       2.288010639706e-01       2.622579265065e-01 
       2.364533437147e-01       2.469614937608e-01 
       2.443625682930e-01       2.350128807011e-01 
       2.525380679504e-01       2.244178263218e-01 
       2.609898026346e-01       2.130937275947e-01 
       2.697284615565e-01       2.001019165024e-01 
       2.787655775689e-01       1.860204686948e-01 
       2.881136588829e-01       1.725172550222e-01 
       2.977863412677e-01       1.610660242929e-01 
       3.077985646929e-01       1.517609492556e-01 
       3.181667794071e-01       1.435596316933e-01 
       3.289091877812e-01       1.351815038409e-01 
       3.400460299658e-01       1.261642747772e-01 
       3.515999236474e-01       1.172020368195e-01 
       3.635962711085e-01       1.091768194253e-01 
       3.760637506334e-01       1.023095678251e-01 
       3.890349143879e-01       9.593756513165e-02 
       4.025469216825e-01       8.950772551239e-02 
       4.166424456376e-01       8.311159177179e-02 
       4.313708035863e-01       7.721555950172e-02 
       4.467893782977e-01       7.190049297357e-02 
       4.629654199664e-01       6.686900136189e-02 
       4.799783501994e-01       6.191761303211e-02 
       4.979227319373e-01       5.722221805511e-02 
       5.169121270864e-01       5.290292111534e-02 
       5.370841404489e-01       4.876966386691e-02 
       5.586070464571e-01       4.479085130851e-02 
       5.816885094930e-01       4.105188078075e-02 
       6.065870144995e-01       3.748980026700e-02 
       6.336266468475e-01       3.407624654410e-02 
       6.632156059511e-01       3.083449143434e-02 
       6.958678639263e-01       2.772820112421e-02 
       7.322247985589e-01       2.476707984137e-02 
       7.730680195114e-01       2.193949248998e-02 
       8.193049553677e-01       1.925606668188e-02 
       8.718988016039e-01       1.672912240844e-02 
       9.317218031082e-01       1.438408359549e-02 
       9.993660908989e-01       1.225049002833e-02 
       1.075037110174e+00       1.035243124777e-02 
       1.158653485707e+00       8.699532440452e-03 
       1.250099157308e+00       7.284382562182e-03 
       1.349432401273e+00       6.085210702869e-03 
       1.456947457397e+00       5.075457805714e-03 
       1.573135111331e+00       4.228007011314e-03 
       1.698621895592e+00       3.518214012115e-03 
       1.834127512934e+00       2.924608860692e-03 
       1.980444934528e+00       2.428749706573e-03 
       2.138435191726e+00       2.015056544744e-03 
       2.309029199186e+00       1.670269790434e-03 
       2.493232377687e+00       1.383248062432e-03 
       2.692130395285e+00       1.144532556163e-03 
       2.906895534573e+00       9.461927174977e-04 
       3.138793597714e+00       7.815652257152e-04 
       3.389191366484e+00       6.450324373177e-04 
       3.659564657905e+00       5.319059405134e-04 
       3.951507022538e+00       4.382398328512e-04 
       4.266739136701e+00       3.607585702137e-04 
       4.607118943941e+00       2.967056087314e-04 
       4.974652605557e+00       2.437930838743e-04 
       5.371506324689e+00       2.001121404321e-04 
       5.800019113685e+00       1.640680405625e-04 
       6.262716579983e+00       1.343456593549e-04 
       6.762325811764e+00       1.098464434778e-04 
       7.301791451110e+00       8.966050760923e-05 
       7.884293049406e+00       7.303209608954e-05 
       8.513263807261e+00       5.933832497517e-05 
       9.192410809424e+00       4.806251984215e-05 
       9.925736873929e+00       3.877908073964e-05 
       1.071756414427e+01       3.113650103920e-05 
       1.157255956364e+01       2.484620589941e-05 
       1.249576238137e+01       1.967088511884e-05 
       1.349261385375e+01       1.541697214594e-05 
       1.456898931416e+01       1.192624251973e-05 
       1.573123280165e+01       9.070801091359e-06 
       1.698619445202e+01       6.747014134896e-06 
       1.834127087176e+01       4.872117490544e-06 
       1.980444873285e+01       3.379836203577e-06 
       2.138435184532e+01       2.216987573842e-06 
       2.309029198506e+01       1.340381575116e-06 
       2.493232377636e+01       7.133825906110e-07 
       2.692130395282e+01       3.030977346016e-07 
       2.906895534573e+01       7.705168247584e-08 
       3.138793597714e+01       8.430259563423e-10 
       3.389191366484e+01       3.635232504472e-08 
       3.659564657905e+01       1.414925801561e-07 
       3.951507022538e+01       2.720214547815e-07 
       4.266739136701e+01       3.857200849869e-07 
       4.607118943941e+01       4.487900737188e-07 
       4.974652605557e+01       4.428028456237e-07 
       5.371506324689e+01       3.700216739121e-07 
       5.800019113685e+01       2.537954272825e-07 
       6.262716579983e+01       1.314510085758e-07 
       6.762325811764e+01       4.033297100889e-08 
