# Matter power spectrum P(k) at redshift z=0
# for k=1.04775e-05 to 67.6233 h/Mpc,
# number of wavenumbers equal to 246
#    1:k (h/Mpc)              2:P (Mpc/h)^3        
       1.047750691338e-05       5.020964806750e+01 
       1.131335172818e-05       5.407048206553e+01 
       1.221587619877e-05       5.822819063964e+01 
       1.319039970550e-05       6.270562589675e+01 
       1.424266598317e-05       6.752731788102e+01 
       1.537887697396e-05       7.271977200258e+01 
       1.660572938097e-05       7.831147241542e+01 
       1.793045413791e-05       8.433311815128e+01 
       1.936085902737e-05       9.081778242446e+01 
       2.090537469909e-05       9.780108061341e+01 
       2.257310435923e-05       1.053213197032e+02 
       2.437387742372e-05       1.134197377001e+02 
       2.631830745176e-05       1.221408202815e+02 
       2.841785470091e-05       1.315324720916e+02 
       3.068489367268e-05       1.416462093730e+02 
       3.313278604643e-05       1.525374500691e+02 
       3.577595943165e-05       1.642660687078e+02 
       3.862999240274e-05       1.768963504868e+02 
       4.171170631739e-05       1.904975992460e+02 
       4.503926445983e-05       2.051444490305e+02 
       4.863227909323e-05       2.209171463752e+02 
       5.251192705226e-05       2.379022222314e+02 
       5.670107455699e-05       2.561927925679e+02 
       6.122441198393e-05       2.758890441791e+02 
       6.610859938837e-05       2.970989225465e+02 
       7.138242363583e-05       3.199385558200e+02 
       7.707696806873e-05       3.445329780878e+02 
       8.322579570814e-05       3.710167315928e+02 
       8.986514707061e-05       3.995346440954e+02 
       9.703415376577e-05       4.302425403884e+02 
       1.047750691338e-04       4.633080762974e+02 
       1.131335172818e-04       4.989116267507e+02 
       1.221587619877e-04       5.372471946561e+02 
       1.319039970550e-04       5.785234124636e+02 
       1.424266598317e-04       6.229645930980e+02 
       1.537887697396e-04       6.708118484951e+02 
       1.660572938097e-04       7.223242660220e+02 
       1.793045413791e-04       7.777801552709e+02 
       1.936085902737e-04       8.374783607333e+02 
       2.090537469909e-04       9.017396264495e+02 
       2.257310435923e-04       9.709080260152e+02 
       2.437387742372e-04       1.045352448644e+03 
       2.631830745176e-04       1.125468122835e+03 
       2.841785470091e-04       1.211678179511e+03 
       3.068489367268e-04       1.304435249091e+03 
       3.313278604643e-04       1.404223052541e+03 
       3.577595943165e-04       1.511558013390e+03 
       3.862999240274e-04       1.626990836372e+03 
       4.171170631739e-04       1.751108027371e+03 
       4.503926445983e-04       1.884533381345e+03 
       4.863227909323e-04       2.027929376470e+03 
       5.251192705226e-04       2.181998446367e+03 
       5.670107455699e-04       2.347484100857e+03 
       6.122441198393e-04       2.525171869336e+03 
       6.610859938837e-04       2.715889981401e+03 
       7.138242363583e-04       2.920509686088e+03 
       7.707696806873e-04       3.139945097711e+03 
       8.322579570814e-04       3.375152334397e+03 
       8.986514707061e-04       3.627127828231e+03 
       9.703415376577e-04       3.896905450016e+03 
       1.047750691338e-03       4.185552170960e+03 
       1.131335172818e-03       4.494162426791e+03 
       1.221587619877e-03       4.823850702670e+03 
       1.319039970550e-03       5.175742735089e+03 
       1.424266598317e-03       5.551019592516e+03 
       1.537887697396e-03       5.950788335883e+03 
       1.660572938097e-03       6.376123046805e+03 
       1.793045413791e-03       6.828073896128e+03 
       1.936085902737e-03       7.307625375386e+03 
       2.090537469909e-03       7.815671857188e+03 
       2.257310435923e-03       8.352990369401e+03 
       2.437387742372e-03       8.920211057525e+03 
       2.631830745176e-03       9.517783061890e+03 
       2.841785470091e-03       1.014593703671e+04 
       3.068489367268e-03       1.080464505740e+04 
       3.313278604643e-03       1.149357459461e+04 
       3.577595943165e-03       1.221203620826e+04 
       3.862999240274e-03       1.295892538505e+04 
       4.171170631739e-03       1.373266002279e+04 
       4.503926445983e-03       1.453111834595e+04 
       4.863227909323e-03       1.535154984227e+04 
       5.251192705226e-03       1.619063613436e+04 
       5.670107455699e-03       1.704431256598e+04 
       6.122441198393e-03       1.790755938457e+04 
       6.610859938837e-03       1.877460421596e+04 
       7.138242363583e-03       1.963872429096e+04 
       7.707696806873e-03       2.049215712230e+04 
       8.322579570814e-03       2.132607271202e+04 
       8.986514707061e-03       2.213055252747e+04 
       9.703415376577e-03       2.289445470772e+04 
       1.047750691338e-02       2.360549012401e+04 
       1.131335172818e-02       2.425022856817e+04 
       1.221587619877e-02       2.481423922682e+04 
       1.319039970550e-02       2.528218520444e+04 
       1.424266598317e-02       2.563813871548e+04 
       1.537887697392e-02       2.586606429007e+04 
       1.660572938023e-02       2.595027332825e+04 
       1.793045412706e-02       2.587636556409e+04 
       1.936085890181e-02       2.563219516812e+04 
       2.090537352463e-02       2.520932704932e+04 
       2.257309535333e-02       2.460447170608e+04 
       2.437382002918e-02       2.382087726851e+04 
       2.631799944462e-02       2.287046054366e+04 
       2.841644545389e-02       2.177450554447e+04 
       3.067933355377e-02       2.056557643967e+04 
       3.311368470740e-02       1.928730566337e+04 
       3.571840443502e-02       1.799400810589e+04 
       3.847720348444e-02       1.674686319426e+04 
       4.135335538431e-02       1.560470906757e+04 
       4.429361667738e-02       1.461038387056e+04 
       4.724366439141e-02       1.378055026871e+04 
       5.016480835311e-02       1.310508422687e+04 
       5.303989620246e-02       1.255715240795e+04 
       5.586870669566e-02       1.210421596049e+04 
       5.866042680613e-02       1.171463898378e+04 
       6.142798932958e-02       1.136046258672e+04 
       6.418496440164e-02       1.101857731950e+04 
       6.694418833788e-02       1.067067940051e+04 
       6.971731106057e-02       1.030358125712e+04 
       7.251476155766e-02       9.909003095849e+03 
       7.534587671527e-02       9.483753312533e+03 
       7.821907666265e-02       9.029487387511e+03 
       8.114203772912e-02       8.552335404833e+03 
       8.412184535029e-02       8.061976637994e+03 
       8.716512279304e-02       7.570773516502e+03 
       9.027813695930e-02       7.092505150497e+03 
       9.346688431697e-02       6.640515687749e+03 
       9.673716028276e-02       6.226693439968e+03 
       1.000946150830e-01       5.859947786022e+03 
       1.035447986537e-01       5.545219473257e+03 
       1.070931966762e-01       5.283135253678e+03 
       1.107452594425e-01       5.069420786896e+03 
       1.145064249153e-01       4.895235053747e+03 
       1.183821370918e-01       4.747846455834e+03 
       1.223778605862e-01       4.611737888542e+03 
       1.264990921987e-01       4.470625043416e+03 
       1.307513701367e-01       4.310274561977e+03 
       1.351402814784e-01       4.121391384892e+03 
       1.396714684203e-01       3.902071555255e+03 
       1.443506338194e-01       3.658646141386e+03 
       1.491835465229e-01       3.404478794781e+03 
       1.541760469708e-01       3.156676726447e+03 
       1.593340535561e-01       2.931976956568e+03 
       1.646635702297e-01       2.742371959220e+03 
       1.701706958456e-01       2.592259671938e+03 
       1.758616357459e-01       2.477235884202e+03 
       1.817427160982e-01       2.385181645264e+03 
       1.878204015065e-01       2.300355293159e+03 
       1.941013164283e-01       2.205761135925e+03 
       2.005922709503e-01       2.090817300124e+03 
       2.073002914972e-01       1.956465945588e+03 
       2.142326570816e-01       1.814193211587e+03 
       2.213969417533e-01       1.679297962576e+03 
       2.288010639706e-01       1.563847731883e+03 
       2.364533437147e-01       1.472688400964e+03 
       2.443625682930e-01       1.401514957446e+03 
       2.525380679504e-01       1.338410579879e+03 
       2.609898026346e-01       1.270899273145e+03 
       2.697284615565e-01       1.193381961241e+03 
       2.787655775689e-01       1.109341180066e+03 
       2.881136588829e-01       1.028773501257e+03 
       2.977863412677e-01       9.604831544297e+02 
       3.077985646929e-01       9.050249258779e+02 
       3.181667794071e-01       8.561472581306e+02 
       3.289091877812e-01       8.061897284615e+02 
       3.400460299658e-01       7.523911236959e+02 
       3.515999236474e-01       6.989237222251e+02 
       3.635962711085e-01       6.510630115268e+02 
       3.760637506334e-01       6.101245968384e+02 
       3.890349143879e-01       5.721328006832e+02 
       4.025469216825e-01       5.337833946532e+02 
       4.166424456376e-01       4.956315544181e+02 
       4.313708035863e-01       4.604692013492e+02 
       4.467893782977e-01       4.287785184205e+02 
       4.629654199664e-01       3.987746567042e+02 
       4.799783501994e-01       3.692426970690e+02 
       4.979227319373e-01       3.412399698442e+02 
       5.169121270864e-01       3.154845736971e+02 
       5.370841404489e-01       2.908356556014e+02 
       5.586070464571e-01       2.671066681019e+02 
       5.816885094930e-01       2.448097435036e+02 
       6.065870144995e-01       2.235682435143e+02 
       6.336266468475e-01       2.032103857350e+02 
       6.632156059511e-01       1.838792914356e+02 
       6.958678639263e-01       1.653551447305e+02 
       7.322247985589e-01       1.476957299759e+02 
       7.730680195114e-01       1.308339237205e+02 
       8.193049553677e-01       1.148314621688e+02 
       8.718988016039e-01       9.976303963513e+01 
       9.317218031082e-01       8.577847769908e+01 
       9.993660908989e-01       7.305555612109e+01 
       1.075037110174e+00       6.173638436828e+01 
       1.158653485707e+00       5.187950921391e+01 
       1.250099157308e+00       4.344040117903e+01 
       1.349432401273e+00       3.628963027264e+01 
       1.456947457397e+00       3.026807316747e+01 
       1.573135111331e+00       2.521461857445e+01 
       1.698621895592e+00       2.098200871827e+01 
       1.834127512934e+00       1.744244356925e+01 
       1.980444934528e+00       1.448575698769e+01 
       2.138435191726e+00       1.201896648827e+01 
       2.309029199186e+00       9.963240525791e+00 
       2.493232377687e+00       8.251877090281e+00 
       2.692130395285e+00       6.828661339058e+00 
       2.906895534573e+00       5.646277521920e+00 
       3.138793597714e+00       4.664909355130e+00 
       3.389191366484e+00       3.851150882383e+00 
       3.659564657905e+00       3.176954820692e+00 
       3.951507022538e+00       2.618896761130e+00 
       4.266739136701e+00       2.157339207825e+00 
       4.607118943941e+00       1.775942915815e+00 
       4.974652605557e+00       1.460990975671e+00 
       5.371506324689e+00       1.201124215789e+00 
       5.800019113685e+00       9.868808139377e-01 
       6.262716579983e+00       8.103492027511e-01 
       6.762325811764e+00       6.650136745246e-01 
       7.301791451110e+00       5.454267393603e-01 
       7.884293049406e+00       4.471020860506e-01 
       8.513263807261e+00       3.662966359007e-01 
       9.192410809424e+00       2.999400316644e-01 
       9.925736873929e+00       2.454803364646e-01 
       1.071756414427e+01       2.008083301841e-01 
       1.157255956364e+01       1.641834973801e-01 
       1.249576238137e+01       1.341768494697e-01 
       1.349261385375e+01       1.096024673475e-01 
       1.456898931416e+01       8.948900518031e-02 
       1.573123280165e+01       7.303357423301e-02 
       1.698619445202e+01       5.957885434106e-02 
       1.834127087176e+01       4.858091687212e-02 
       1.980444873285e+01       3.959723694026e-02 
       2.138435184532e+01       3.226114774984e-02 
       2.309029198506e+01       2.627345614427e-02 
       2.493232377636e+01       2.138839048327e-02 
       2.692130395282e+01       1.740481171770e-02 
       2.906895534573e+01       1.415744216819e-02 
       3.138793597714e+01       1.151137292295e-02 
       3.389191366484e+01       9.356085494090e-03 
       3.659564657905e+01       7.601278773257e-03 
       3.951507022538e+01       6.173117863009e-03 
       4.266739136701e+01       5.011126054890e-03 
       4.607118943941e+01       4.066221927926e-03 
       4.974652605557e+01       3.298020553558e-03 
       5.371506324689e+01       2.673703659632e-03 
       5.800019113685e+01       2.166545525689e-03 
       6.262716579983e+01       1.754741637672e-03 
       6.762325811764e+01       1.420474404733e-03 
