# Matter power spectrum P(k) at redshift z=0
# for k=1.04775e-05 to 67.6233 h/Mpc,
# number of wavenumbers equal to 246
#    1:k (h/Mpc)              2:P (Mpc/h)^3        
       1.047750691338e-05       5.020964806750e+01 
       1.131335172818e-05       5.407048206553e+01 
       1.221587619877e-05       5.822819064041e+01 
       1.319039970550e-05       6.270562589679e+01 
       1.424266598317e-05       6.752731788102e+01 
       1.537887697396e-05       7.271977200258e+01 
       1.660572938097e-05       7.831147241542e+01 
       1.793045413791e-05       8.433311815128e+01 
       1.936085902737e-05       9.081778242446e+01 
       2.090537469909e-05       9.780108061339e+01 
       2.257310435923e-05       1.053213197032e+02 
       2.437387742372e-05       1.134197377001e+02 
       2.631830745176e-05       1.221408202816e+02 
       2.841785470091e-05       1.315324720916e+02 
       3.068489367268e-05       1.416462093730e+02 
       3.313278604643e-05       1.525374500691e+02 
       3.577595943165e-05       1.642660687078e+02 
       3.862999240274e-05       1.768963504868e+02 
       4.171170631739e-05       1.904975992461e+02 
       4.503926445983e-05       2.051444490305e+02 
       4.863227909323e-05       2.209171463752e+02 
       5.251192705226e-05       2.379022222314e+02 
       5.670107455699e-05       2.561927925523e+02 
       6.122441198393e-05       2.758890441791e+02 
       6.610859938837e-05       2.970989225465e+02 
       7.138242363583e-05       3.199385558200e+02 
       7.707696806873e-05       3.445329780878e+02 
       8.322579570814e-05       3.710167315928e+02 
       8.986514707061e-05       3.995346440954e+02 
       9.703415376577e-05       4.302425403884e+02 
       1.047750691338e-04       4.633080762974e+02 
       1.131335172818e-04       4.989116267507e+02 
       1.221587619877e-04       5.372471946561e+02 
       1.319039970550e-04       5.785234124635e+02 
       1.424266598317e-04       6.229645930980e+02 
       1.537887697396e-04       6.708118484951e+02 
       1.660572938097e-04       7.223242660220e+02 
       1.793045413791e-04       7.777801552833e+02 
       1.936085902737e-04       8.374783607333e+02 
       2.090537469909e-04       9.017396264495e+02 
       2.257310435923e-04       9.709080260152e+02 
       2.437387742372e-04       1.045352448644e+03 
       2.631830745176e-04       1.125468122836e+03 
       2.841785470091e-04       1.211678179511e+03 
       3.068489367268e-04       1.304435249091e+03 
       3.313278604643e-04       1.404223052541e+03 
       3.577595943165e-04       1.511558013390e+03 
       3.862999240274e-04       1.626990836445e+03 
       4.171170631739e-04       1.751108027370e+03 
       4.503926445983e-04       1.884533381345e+03 
       4.863227909323e-04       2.027929376470e+03 
       5.251192705226e-04       2.181998446367e+03 
       5.670107455699e-04       2.347484100857e+03 
       6.122441198393e-04       2.525171869338e+03 
       6.610859938837e-04       2.715889981401e+03 
       7.138242363583e-04       2.920509686094e+03 
       7.707696806873e-04       3.139945097711e+03 
       8.322579570814e-04       3.375152334397e+03 
       8.986514707061e-04       3.627127828231e+03 
       9.703415376577e-04       3.896905450016e+03 
       1.047750691338e-03       4.185552170959e+03 
       1.131335172818e-03       4.494162426791e+03 
       1.221587619877e-03       4.823850702660e+03 
       1.319039970550e-03       5.175742740231e+03 
       1.424266598317e-03       5.551019592529e+03 
       1.537887697396e-03       5.950788335880e+03 
       1.660572938097e-03       6.376123046810e+03 
       1.793045413791e-03       6.828073896120e+03 
       1.936085902737e-03       7.307625375386e+03 
       2.090537469909e-03       7.815671908382e+03 
       2.257310435923e-03       8.352990369400e+03 
       2.437387742372e-03       8.920211057554e+03 
       2.631830745176e-03       9.517783061890e+03 
       2.841785470091e-03       1.014593703671e+04 
       3.068489367268e-03       1.080464505748e+04 
       3.313278604643e-03       1.149357459544e+04 
       3.577595943165e-03       1.221203620826e+04 
       3.862999240274e-03       1.295892538505e+04 
       4.171170631739e-03       1.373266002015e+04 
       4.503926445983e-03       1.453111834595e+04 
       4.863227909323e-03       1.535154984227e+04 
       5.251192705226e-03       1.619063613436e+04 
       5.670107455699e-03       1.704431256583e+04 
       6.122441198393e-03       1.790755938456e+04 
       6.610859938837e-03       1.877460414450e+04 
       7.138242363583e-03       1.963872429094e+04 
       7.707696806873e-03       2.049215713250e+04 
       8.322579570814e-03       2.132606961291e+04 
       8.986514707061e-03       2.213055053535e+04 
       9.703415376577e-03       2.289445470787e+04 
       1.047750691338e-02       2.360547964016e+04 
       1.131335172818e-02       2.425023395487e+04 
       1.221587619877e-02       2.481423918502e+04 
       1.319039970550e-02       2.528218879722e+04 
       1.424266598317e-02       2.563814258386e+04 
       1.537887697392e-02       2.586606140849e+04 
       1.660572938023e-02       2.595027646572e+04 
       1.793045412706e-02       2.587634932287e+04 
       1.936085890181e-02       2.563221418245e+04 
       2.090537352463e-02       2.520932972552e+04 
       2.257309535333e-02       2.460446357992e+04 
       2.437382002918e-02       2.382083845417e+04 
       2.631799944462e-02       2.287042721053e+04 
       2.841644545389e-02       2.177451377249e+04 
       3.067933355377e-02       2.056556013806e+04 
       3.311368470740e-02       1.928728910128e+04 
       3.571840443502e-02       1.799404740477e+04 
       3.847720348444e-02       1.674679619673e+04 
       4.135335538431e-02       1.560446590135e+04 
       4.429361667738e-02       1.461041648247e+04 
       4.724366439141e-02       1.378055100574e+04 
       5.016480835311e-02       1.310506856081e+04 
       5.303989620246e-02       1.255718660261e+04 
       5.586870669566e-02       1.210423228451e+04 
       5.866042680613e-02       1.171464558391e+04 
       6.142798932958e-02       1.136047819750e+04 
       6.418496440164e-02       1.101855921425e+04 
       6.694418833788e-02       1.067069342062e+04 
       6.971731106057e-02       1.030358191699e+04 
       7.251476155766e-02       9.909001840807e+03 
       7.534587671527e-02       9.483775669247e+03 
       7.821907666265e-02       9.029508681625e+03 
       8.114203772912e-02       8.552324567034e+03 
       8.412184535029e-02       8.061965619587e+03 
       8.716512279304e-02       7.570776153587e+03 
       9.027813695930e-02       7.092518726040e+03 
       9.346688431697e-02       6.640517513351e+03 
       9.673716028276e-02       6.226696794500e+03 
       1.000946150830e-01       5.859935524301e+03 
       1.035447986537e-01       5.545243918587e+03 
       1.070931966762e-01       5.283134183512e+03 
       1.107452594425e-01       5.069418403283e+03 
       1.145064249153e-01       4.895256634634e+03 
       1.183821370918e-01       4.747843221684e+03 
       1.223778605862e-01       4.611741557716e+03 
       1.264990921987e-01       4.470632813239e+03 
       1.307513701367e-01       4.310270115083e+03 
       1.351402814784e-01       4.121395599042e+03 
       1.396714684203e-01       3.902069075473e+03 
       1.443506338194e-01       3.658639873532e+03 
       1.491835465229e-01       3.404486988349e+03 
       1.541760469708e-01       3.156670057376e+03 
       1.593340535561e-01       2.931976158703e+03 
       1.646635702297e-01       2.742368321369e+03 
       1.701706958456e-01       2.592255569987e+03 
       1.758616357459e-01       2.477242667453e+03 
       1.817427160982e-01       2.385179555070e+03 
       1.878204015065e-01       2.300359347931e+03 
       1.941013164283e-01       2.205757897048e+03 
       2.005922709503e-01       2.090812118265e+03 
       2.073002914972e-01       1.956461515566e+03 
       2.142326570816e-01       1.814192970749e+03 
       2.213969417533e-01       1.679294258864e+03 
       2.288010639706e-01       1.563849504587e+03 
       2.364533437147e-01       1.472688290366e+03 
       2.443625682930e-01       1.401517516997e+03 
       2.525380679504e-01       1.338412979654e+03 
       2.609898026346e-01       1.270904763729e+03 
       2.697284615565e-01       1.193386726071e+03 
       2.787655775689e-01       1.109339897010e+03 
       2.881136588829e-01       1.028773524988e+03 
       2.977863412677e-01       9.604835050661e+02 
       3.077985646929e-01       9.050248079581e+02 
       3.181667794071e-01       8.561476704017e+02 
       3.289091877812e-01       8.061901897171e+02 
       3.400460299658e-01       7.523920871714e+02 
       3.515999236474e-01       6.989238949139e+02 
       3.635962711085e-01       6.510643459398e+02 
       3.760637506334e-01       6.101264536354e+02 
       3.890349143879e-01       5.721344034187e+02 
       4.025469216825e-01       5.337811980124e+02 
       4.166424456376e-01       4.956331266774e+02 
       4.313708035863e-01       4.604698624986e+02 
       4.467893782977e-01       4.287769314607e+02 
       4.629654199664e-01       3.987728254451e+02 
       4.799783501994e-01       3.692426274078e+02 
       4.979227319373e-01       3.412412968920e+02 
       5.169121270864e-01       3.154843790935e+02 
       5.370841404489e-01       2.908376841049e+02 
       5.586070464571e-01       2.671063886148e+02 
       5.816885094930e-01       2.448099015201e+02 
       6.065870144995e-01       2.235680094993e+02 
       6.336266468475e-01       2.032105746217e+02 
       6.632156059511e-01       1.838791180684e+02 
       6.958678639263e-01       1.653549530916e+02 
       7.322247985589e-01       1.476961963434e+02 
       7.730680195114e-01       1.308345177878e+02 
       8.193049553677e-01       1.148313957200e+02 
       8.718988016039e-01       9.976319804239e+01 
       9.317218031082e-01       8.577855588970e+01 
       9.993660908989e-01       7.305490405245e+01 
       1.075037110174e+00       6.173604551165e+01 
       1.158653485707e+00       5.187930154741e+01 
       1.250099157308e+00       4.344053311813e+01 
       1.349432401273e+00       3.628958178192e+01 
       1.456947457397e+00       3.026804523616e+01 
       1.573135111331e+00       2.521465836109e+01 
       1.698621895592e+00       2.098207471821e+01 
       1.834127512934e+00       1.744250622249e+01 
       1.980444934528e+00       1.448575374442e+01 
       2.138435191726e+00       1.201896532556e+01 
       2.309029199186e+00       9.963260802828e+00 
       2.493232377687e+00       8.251849126215e+00 
       2.692130395285e+00       6.828686651414e+00 
       2.906895534573e+00       5.646279233058e+00 
       3.138793597714e+00       4.664888776264e+00 
       3.389191366484e+00       3.851125913815e+00 
       3.659564657905e+00       3.176936321359e+00 
       3.951507022538e+00       2.618891165031e+00 
       4.266739136701e+00       2.157346288563e+00 
       4.607118943941e+00       1.775928782899e+00 
       4.974652605557e+00       1.460988498661e+00 
       5.371506324689e+00       1.201126034217e+00 
       5.800019113685e+00       9.868730058769e-01 
       6.262716579983e+00       8.103533765242e-01 
       6.762325811764e+00       6.650106057037e-01 
       7.301791451110e+00       5.454238310242e-01 
       7.884293049406e+00       4.470987925600e-01 
       8.513263807261e+00       3.662972511609e-01 
       9.192410809424e+00       2.999391678046e-01 
       9.925736873929e+00       2.454817307207e-01 
       1.071756414427e+01       2.008077249563e-01 
       1.157255956364e+01       1.641856550002e-01 
       1.249576238137e+01       1.341777993299e-01 
       1.349261385375e+01       1.096024043449e-01 
       1.456898931416e+01       8.948910575811e-02 
       1.573123280165e+01       7.303339282986e-02 
       1.698619445202e+01       5.957790391987e-02 
       1.834127087176e+01       4.858107669735e-02 
       1.980444873285e+01       3.959721369774e-02 
       2.138435184532e+01       3.226126020984e-02 
       2.309029198506e+01       2.627355765775e-02 
       2.493232377636e+01       2.138841730339e-02 
       2.692130395282e+01       1.740473071224e-02 
       2.906895534573e+01       1.415747509335e-02 
       3.138793597714e+01       1.151134536758e-02 
       3.389191366484e+01       9.355993814393e-03 
       3.659564657905e+01       7.601240926504e-03 
       3.951507022538e+01       6.173088616851e-03 
       4.266739136701e+01       5.011197721583e-03 
       4.607118943941e+01       4.066247633302e-03 
       4.974652605557e+01       3.298013024893e-03 
       5.371506324689e+01       2.673730534939e-03 
       5.800019113685e+01       2.166567275358e-03 
       6.262716579983e+01       1.754764361666e-03 
       6.762325811764e+01       1.420450281553e-03 
