# Matter power spectrum P(k) at redshift z=99
# for k=1.04775e-05 to 67.6233 h/Mpc,
# number of wavenumbers equal to 246
#    1:k (h/Mpc)              2:P (Mpc/h)^3        
       1.047750691338e-05       7.261927673150e-03 
       1.131335172818e-05       7.820331745771e-03 
       1.221587619877e-05       8.421675986525e-03 
       1.319039970550e-05       9.069258192233e-03 
       1.424266598317e-05       9.766638404463e-03 
       1.537887697396e-05       1.051764069686e-02 
       1.660572938097e-05       1.132639105524e-02 
       1.793045413791e-05       1.219733231422e-02 
       1.936085902737e-05       1.313524224386e-02 
       2.090537469909e-05       1.414527121899e-02 
       2.257310435923e-05       1.523296272198e-02 
       2.437387742372e-05       1.640429444537e-02 
       2.631830745176e-05       1.766569582185e-02 
       2.841785470091e-05       1.902408601801e-02 
       3.068489367268e-05       2.048692970600e-02 
       3.313278604643e-05       2.206225513603e-02 
       3.577595943165e-05       2.375870704919e-02 
       3.862999240274e-05       2.558560727490e-02 
       4.171170631739e-05       2.755297763356e-02 
       4.503926445983e-05       2.967161927327e-02 
       4.863227909323e-05       3.195316450846e-02 
       5.251192705226e-05       3.441013519299e-02 
       5.670107455699e-05       3.705601722543e-02 
       6.122441198393e-05       3.990533413580e-02 
       6.610859938837e-05       4.297372168221e-02 
       7.138242363583e-05       4.627802141708e-02 
       7.707696806873e-05       4.983636194180e-02 
       8.322579570814e-05       5.366826847254e-02 
       8.986514707061e-05       5.779476394594e-02 
       9.703415376577e-05       6.223848243911e-02 
       1.047750691338e-04       6.702379865669e-02 
       1.131335172818e-04       7.217695153412e-02 
       1.221587619877e-04       7.772619073607e-02 
       1.319039970550e-04       8.370193432412e-02 
       1.424266598317e-04       9.013692507584e-02 
       1.537887697396e-04       9.706641242612e-02 
       1.660572938097e-04       1.045283354276e-01 
       1.793045413791e-04       1.125635349073e-01 
       1.936085902737e-04       1.212159614973e-01 
       2.090537469909e-04       1.305329132720e-01 
       2.257310435923e-04       1.405652846221e-01 
       2.437387742372e-04       1.513678302546e-01 
       2.631830745176e-04       1.629994504877e-01 
       2.841785470091e-04       1.755234921232e-01 
       3.068489367268e-04       1.890080670421e-01 
       3.313278604643e-04       2.035264002444e-01 
       3.577595943165e-04       2.191571803690e-01 
       3.862999240274e-04       2.359849437602e-01 
       4.171170631739e-04       2.541004741549e-01 
       4.503926445983e-04       2.736012080288e-01 
       4.863227909323e-04       2.945916790977e-01 
       5.251192705226e-04       3.171839525194e-01 
       5.670107455699e-04       3.414980764015e-01 
       6.122441198393e-04       3.676625413114e-01 
       6.610859938837e-04       3.958147252318e-01 
       7.138242363583e-04       4.261013284925e-01 
       7.707696806873e-04       4.586787792366e-01 
       8.322579570814e-04       4.937136001367e-01 
       8.986514707061e-04       5.313826801417e-01 
       9.703415376577e-04       5.718734972172e-01 
       1.047750691338e-03       6.153841629519e-01 
       1.131335172818e-03       6.621233239479e-01 
       1.221587619877e-03       7.123098220441e-01 
       1.319039970550e-03       7.661720584452e-01 
       1.424266598317e-03       8.239546297736e-01 
       1.537887697396e-03       8.859011173463e-01 
       1.660572938097e-03       9.522588006366e-01 
       1.793045413791e-03       1.023280099817e+00 
       1.936085902737e-03       1.099216304575e+00 
       2.090537469909e-03       1.180312990447e+00 
       2.257310435923e-03       1.266804115842e+00 
       2.437387742372e-03       1.358904853395e+00 
       2.631830745176e-03       1.456802683139e+00 
       2.841785470091e-03       1.560646890499e+00 
       3.068489367268e-03       1.670536062469e+00 
       3.313278604643e-03       1.786503852118e+00 
       3.577595943165e-03       1.908502930738e+00 
       3.862999240274e-03       2.036387730641e+00 
       4.171170631739e-03       2.169896177004e+00 
       4.503926445983e-03       2.308631878883e+00 
       4.863227909323e-03       2.452047290820e+00 
       5.251192705226e-03       2.599430627907e+00 
       5.670107455699e-03       2.749896931568e+00 
       6.122441198393e-03       2.902386513099e+00 
       6.610859938837e-03       3.055668706716e+00 
       7.138242363583e-03       3.208356461095e+00 
       7.707696806873e-03       3.358923892089e+00 
       8.322579570814e-03       3.505725594507e+00 
       8.986514707061e-03       3.647009948059e+00 
       9.703415376577e-03       3.780923303152e+00 
       1.047750691338e-02       3.905490992004e+00 
       1.131335172818e-02       4.018587639702e+00 
       1.221587619877e-02       4.117901588090e+00 
       1.319039970550e-02       4.200915298952e+00 
       1.424266598317e-02       4.264942455348e+00 
       1.537887697392e-02       4.307216921350e+00 
       1.660572938023e-02       4.325065878614e+00 
       1.793045412706e-02       4.316060204278e+00 
       1.936085890181e-02       4.278228320850e+00 
       2.090537352463e-02       4.210204855656e+00 
       2.257309535333e-02       4.111421657586e+00 
       2.437382002918e-02       3.982417046387e+00 
       2.631799944462e-02       3.825169755963e+00 
       2.841644545389e-02       3.643276871482e+00 
       3.067933355377e-02       3.442196965484e+00 
       3.311368470740e-02       3.229236630819e+00 
       3.571840443502e-02       3.013514850731e+00 
       3.847720348444e-02       2.805276582257e+00 
       4.135335538431e-02       2.614409302243e+00 
       4.429361667738e-02       2.448128982884e+00 
       4.724366439141e-02       2.309238577603e+00 
       5.016480835311e-02       2.196111170645e+00 
       5.303989620246e-02       2.104367258488e+00 
       5.586870669566e-02       2.028465703252e+00 
       5.866042680613e-02       1.963150276414e+00 
       6.142798932958e-02       1.903785020029e+00 
       6.418496440164e-02       1.846480003791e+00 
       6.694418833788e-02       1.788194012928e+00 
       6.971731106057e-02       1.726717317042e+00 
       7.251476155766e-02       1.660653510491e+00 
       7.534587671527e-02       1.589468386762e+00 
       7.821907666265e-02       1.513438429013e+00 
       8.114203772912e-02       1.433568694501e+00 
       8.412184535029e-02       1.351491765898e+00 
       8.716512279304e-02       1.269272284595e+00 
       9.027813695930e-02       1.189190982898e+00 
       9.346688431697e-02       1.113501347427e+00 
       9.673716028276e-02       1.044174586332e+00 
       1.000946150830e-01       9.827041625227e-01 
       1.035447986537e-01       9.299345374600e-01 
       1.070931966762e-01       8.859580809589e-01 
       1.107452594425e-01       8.500684660863e-01 
       1.145064249153e-01       8.207996147605e-01 
       1.183821370918e-01       7.960231102978e-01 
       1.223778605862e-01       7.731427979159e-01 
       1.264990921987e-01       7.494504807938e-01 
       1.307513701367e-01       7.225525004760e-01 
       1.351402814784e-01       6.909042847467e-01 
       1.396714684203e-01       6.541771656017e-01 
       1.443506338194e-01       6.134216220880e-01 
       1.491835465229e-01       5.708638358846e-01 
       1.541760469708e-01       5.293601646470e-01 
       1.593340535561e-01       4.917065676891e-01 
       1.646635702297e-01       4.599142292773e-01 
       1.701706958456e-01       4.347235424622e-01 
       1.758616357459e-01       4.154028617340e-01 
       1.817427160982e-01       3.999310243496e-01 
       1.878204015065e-01       3.856766124403e-01 
       1.941013164283e-01       3.698028458510e-01 
       2.005922709503e-01       3.505397117905e-01 
       2.073002914972e-01       3.280352065399e-01 
       2.142326570816e-01       3.042064550996e-01 
       2.213969417533e-01       2.816022310177e-01 
       2.288010639706e-01       2.622482358782e-01 
       2.364533437147e-01       2.469518734570e-01 
       2.443625682930e-01       2.350034511767e-01 
       2.525380679504e-01       2.244066783379e-01 
       2.609898026346e-01       2.130829754948e-01 
       2.697284615565e-01       2.000899085634e-01 
       2.787655775689e-01       1.860068189249e-01 
       2.881136588829e-01       1.725041302240e-01 
       2.977863412677e-01       1.610521858052e-01 
       3.077985646929e-01       1.517459680386e-01 
       3.181667794071e-01       1.435435469788e-01 
       3.289091877812e-01       1.351649971334e-01 
       3.400460299658e-01       1.261465968426e-01 
       3.515999236474e-01       1.171836266445e-01 
       3.635962711085e-01       1.091576015189e-01 
       3.760637506334e-01       1.022888255162e-01 
       3.890349143879e-01       9.591618735830e-02 
       4.025469216825e-01       8.948473170608e-02 
       4.166424456376e-01       8.308758536172e-02 
       4.313708035863e-01       7.719018981612e-02 
       4.467893782977e-01       7.187392986797e-02 
       4.629654199664e-01       6.684068471029e-02 
       4.799783501994e-01       6.188771205994e-02 
       4.979227319373e-01       5.719072530378e-02 
       5.169121270864e-01       5.286970171052e-02 
       5.370841404489e-01       4.873444261375e-02 
       5.586070464571e-01       4.475339253767e-02 
       5.816885094930e-01       4.101221786271e-02 
       6.065870144995e-01       3.744779742958e-02 
       6.336266468475e-01       3.403157145793e-02 
       6.632156059511e-01       3.078671808351e-02 
       6.958678639263e-01       2.767714832516e-02 
       7.322247985589e-01       2.471216725588e-02 
       7.730680195114e-01       2.188035578301e-02 
       8.193049553677e-01       1.919212219649e-02 
       8.718988016039e-01       1.665961231583e-02 
       9.317218031082e-01       1.430813742947e-02 
       9.993660908989e-01       1.216721422654e-02 
       1.075037110174e+00       1.026079838100e-02 
       1.158653485707e+00       8.598795706415e-03 
       1.250099157308e+00       7.173546080538e-03 
       1.349432401273e+00       5.963475724349e-03 
       1.456947457397e+00       4.941990188642e-03 
       1.573135111331e+00       4.082031335566e-03 
       1.698621895592e+00       3.359013255402e-03 
       1.834127512934e+00       2.751505230329e-03 
       1.980444934528e+00       2.241206335941e-03 
       2.138435191726e+00       1.812729538945e-03 
       2.309029199186e+00       1.453072175253e-03 
       2.493232377687e+00       1.151452345683e-03 
       2.692130395285e+00       8.988930823763e-04 
       2.906895534573e+00       6.881016909005e-04 
       3.138793597714e+00       5.131470653574e-04 
       3.389191366484e+00       3.693541923032e-04 
       3.659564657905e+00       2.530527116392e-04 
       3.951507022538e+00       1.614277343970e-04 
       4.266739136701e+00       9.227853151932e-05 
       4.607118943941e+00       4.375788130325e-05 
       4.974652605557e+00       1.406635326860e-05 
       5.371506324689e+00       1.096419963769e-06 
       5.800019113685e+00       2.083861239059e-06 
       6.262716579983e+00       1.333845316651e-05 
       6.762325811764e+00       3.017704175299e-05 
       7.301791451110e+00       4.721477559643e-05 
       7.884293049406e+00       5.912860311342e-05 
       8.513263807261e+00       6.187518297030e-05 
       9.192410809424e+00       5.408131336016e-05 
       9.925736873929e+00       3.801541138166e-05 
       1.071756414427e+01       1.933387070672e-05 
       1.157255956364e+01       5.035576892973e-06 
       1.249576238137e+01       3.614962098110e-12 
       1.349261385375e+01       3.854754892660e-06 
       1.456898931416e+01       1.075824813462e-05 
       1.573123280165e+01       1.345868415434e-05 
       1.698619445202e+01       9.327782912372e-06 
       1.834127087176e+01       2.718608361628e-06 
       1.980444873285e+01       2.530393812689e-09 
       2.138435184532e+01       1.952039863347e-06 
       2.309029198506e+01       3.460057137740e-06 
       2.493232377636e+01       1.730093111473e-06 
       2.692130395282e+01       3.368510879088e-08 
       2.906895534573e+01       5.836428923783e-07 
       3.138793597714e+01       8.371745374141e-07 
       3.389191366484e+01       9.625520651353e-08 
       3.659564657905e+01       1.350918110731e-07 
       3.951507022538e+01       2.078996333705e-07 
       4.266739136701e+01       5.703935911810e-10 
       4.607118943941e+01       7.040991134869e-08 
       4.974652605557e+01       7.664361629110e-09 
       5.371506324689e+01       1.823179795773e-08 
       5.800019113685e+01       1.828412290620e-09 
       6.262716579983e+01       5.413325153951e-09 
       6.762325811764e+01       2.418519910677e-11 
