# Matter power spectrum P(k) at redshift z=0
# for k=1.04775e-05 to 67.6233 h/Mpc,
# number of wavenumbers equal to 246
#    1:k (h/Mpc)              2:P (Mpc/h)^3        
       1.047750691338e-05       5.020964806750e+01 
       1.131335172818e-05       5.407048206553e+01 
       1.221587619877e-05       5.822819064141e+01 
       1.319039970550e-05       6.270562589680e+01 
       1.424266598317e-05       6.752731788102e+01 
       1.537887697396e-05       7.271977200257e+01 
       1.660572938097e-05       7.831147241541e+01 
       1.793045413791e-05       8.433311815128e+01 
       1.936085902737e-05       9.081778242446e+01 
       2.090537469909e-05       9.780108061339e+01 
       2.257310435923e-05       1.053213197032e+02 
       2.437387742372e-05       1.134197377001e+02 
       2.631830745176e-05       1.221408202816e+02 
       2.841785470091e-05       1.315324720916e+02 
       3.068489367268e-05       1.416462093730e+02 
       3.313278604643e-05       1.525374500691e+02 
       3.577595943165e-05       1.642660687078e+02 
       3.862999240274e-05       1.768963504868e+02 
       4.171170631739e-05       1.904975992460e+02 
       4.503926445983e-05       2.051444490305e+02 
       4.863227909323e-05       2.209171463752e+02 
       5.251192705226e-05       2.379022222314e+02 
       5.670107455699e-05       2.561927925903e+02 
       6.122441198393e-05       2.758890441792e+02 
       6.610859938837e-05       2.970989225466e+02 
       7.138242363583e-05       3.199385558200e+02 
       7.707696806873e-05       3.445329780878e+02 
       8.322579570814e-05       3.710167315928e+02 
       8.986514707061e-05       3.995346440954e+02 
       9.703415376577e-05       4.302425403884e+02 
       1.047750691338e-04       4.633080762974e+02 
       1.131335172818e-04       4.989116267507e+02 
       1.221587619877e-04       5.372471946561e+02 
       1.319039970550e-04       5.785234124634e+02 
       1.424266598317e-04       6.229645930980e+02 
       1.537887697396e-04       6.708118484951e+02 
       1.660572938097e-04       7.223242660220e+02 
       1.793045413791e-04       7.777801554500e+02 
       1.936085902737e-04       8.374783607333e+02 
       2.090537469909e-04       9.017396264495e+02 
       2.257310435923e-04       9.709080260152e+02 
       2.437387742372e-04       1.045352448644e+03 
       2.631830745176e-04       1.125468122836e+03 
       2.841785470091e-04       1.211678179511e+03 
       3.068489367268e-04       1.304435249091e+03 
       3.313278604643e-04       1.404223052541e+03 
       3.577595943165e-04       1.511558013390e+03 
       3.862999240274e-04       1.626990836470e+03 
       4.171170631739e-04       1.751108027370e+03 
       4.503926445983e-04       1.884533381345e+03 
       4.863227909323e-04       2.027929376470e+03 
       5.251192705226e-04       2.181998446367e+03 
       5.670107455699e-04       2.347484100857e+03 
       6.122441198393e-04       2.525171869338e+03 
       6.610859938837e-04       2.715889981400e+03 
       7.138242363583e-04       2.920509686094e+03 
       7.707696806873e-04       3.139945097711e+03 
       8.322579570814e-04       3.375152334396e+03 
       8.986514707061e-04       3.627127828231e+03 
       9.703415376577e-04       3.896905450016e+03 
       1.047750691338e-03       4.185552170959e+03 
       1.131335172818e-03       4.494162426791e+03 
       1.221587619877e-03       4.823850702663e+03 
       1.319039970550e-03       5.175742738038e+03 
       1.424266598317e-03       5.551019592520e+03 
       1.537887697396e-03       5.950788335877e+03 
       1.660572938097e-03       6.376123046808e+03 
       1.793045413791e-03       6.828073896117e+03 
       1.936085902737e-03       7.307625375387e+03 
       2.090537469909e-03       7.815671864260e+03 
       2.257310435923e-03       8.352990369398e+03 
       2.437387742372e-03       8.920211057526e+03 
       2.631830745176e-03       9.517783061890e+03 
       2.841785470091e-03       1.014593703671e+04 
       3.068489367268e-03       1.080464505736e+04 
       3.313278604643e-03       1.149357459439e+04 
       3.577595943165e-03       1.221203620826e+04 
       3.862999240274e-03       1.295892538505e+04 
       4.171170631739e-03       1.373266002001e+04 
       4.503926445983e-03       1.453111834595e+04 
       4.863227909323e-03       1.535154984227e+04 
       5.251192705226e-03       1.619063613435e+04 
       5.670107455699e-03       1.704431256573e+04 
       6.122441198393e-03       1.790755938449e+04 
       6.610859938837e-03       1.877460421890e+04 
       7.138242363583e-03       1.963872429100e+04 
       7.707696806873e-03       2.049215713696e+04 
       8.322579570814e-03       2.132607230364e+04 
       8.986514707061e-03       2.213055075094e+04 
       9.703415376577e-03       2.289445470792e+04 
       1.047750691338e-02       2.360548295786e+04 
       1.131335172818e-02       2.425022856688e+04 
       1.221587619877e-02       2.481423922170e+04 
       1.319039970550e-02       2.528218801974e+04 
       1.424266598317e-02       2.563813746703e+04 
       1.537887697392e-02       2.586607007587e+04 
       1.660572938023e-02       2.595028684151e+04 
       1.793045412706e-02       2.587634146307e+04 
       1.936085890181e-02       2.563218423299e+04 
       2.090537352463e-02       2.520933011530e+04 
       2.257309535333e-02       2.460446510166e+04 
       2.437382002918e-02       2.382083709530e+04 
       2.631799944462e-02       2.287044304041e+04 
       2.841644545389e-02       2.177455518691e+04 
       3.067933355377e-02       2.056557235422e+04 
       3.311368470740e-02       1.928730082278e+04 
       3.571840443502e-02       1.799402813674e+04 
       3.847720348444e-02       1.674688380453e+04 
       4.135335538431e-02       1.560459568739e+04 
       4.429361667738e-02       1.461037709300e+04 
       4.724366439141e-02       1.378052795399e+04 
       5.016480835311e-02       1.310504988028e+04 
       5.303989620246e-02       1.255714177892e+04 
       5.586870669566e-02       1.210426096539e+04 
       5.866042680613e-02       1.171462568132e+04 
       6.142798932958e-02       1.136048812135e+04 
       6.418496440164e-02       1.101856388186e+04 
       6.694418833788e-02       1.067070076585e+04 
       6.971731106057e-02       1.030356549338e+04 
       7.251476155766e-02       9.908999966441e+03 
       7.534587671527e-02       9.483780356966e+03 
       7.821907666265e-02       9.029489099804e+03 
       8.114203772912e-02       8.552323379055e+03 
       8.412184535029e-02       8.061934552154e+03 
       8.716512279304e-02       7.570787430379e+03 
       9.027813695930e-02       7.092515985917e+03 
       9.346688431697e-02       6.640519750948e+03 
       9.673716028276e-02       6.226706867929e+03 
       1.000946150830e-01       5.859944663253e+03 
       1.035447986537e-01       5.545246181000e+03 
       1.070931966762e-01       5.283127161813e+03 
       1.107452594425e-01       5.069427787663e+03 
       1.145064249153e-01       4.895244895375e+03 
       1.183821370918e-01       4.747853935306e+03 
       1.223778605862e-01       4.611744274938e+03 
       1.264990921987e-01       4.470626667745e+03 
       1.307513701367e-01       4.310279687654e+03 
       1.351402814784e-01       4.121389153011e+03 
       1.396714684203e-01       3.902070620085e+03 
       1.443506338194e-01       3.658637941508e+03 
       1.491835465229e-01       3.404484627915e+03 
       1.541760469708e-01       3.156673597976e+03 
       1.593340535561e-01       2.931980536989e+03 
       1.646635702297e-01       2.742378180926e+03 
       1.701706958456e-01       2.592258593372e+03 
       1.758616357459e-01       2.477245898194e+03 
       1.817427160982e-01       2.385188536569e+03 
       1.878204015065e-01       2.300362151995e+03 
       1.941013164283e-01       2.205763259918e+03 
       2.005922709503e-01       2.090812631144e+03 
       2.073002914972e-01       1.956469381988e+03 
       2.142326570816e-01       1.814193215523e+03 
       2.213969417533e-01       1.679294337821e+03 
       2.288010639706e-01       1.563848138377e+03 
       2.364533437147e-01       1.472687553704e+03 
       2.443625682930e-01       1.401514300160e+03 
       2.525380679504e-01       1.338412777516e+03 
       2.609898026346e-01       1.270906481087e+03 
       2.697284615565e-01       1.193382314348e+03 
       2.787655775689e-01       1.109336697799e+03 
       2.881136588829e-01       1.028771668354e+03 
       2.977863412677e-01       9.604823015625e+02 
       3.077985646929e-01       9.050247792799e+02 
       3.181667794071e-01       8.561462409232e+02 
       3.289091877812e-01       8.061896803866e+02 
       3.400460299658e-01       7.523930405481e+02 
       3.515999236474e-01       6.989243721018e+02 
       3.635962711085e-01       6.510628222668e+02 
       3.760637506334e-01       6.101234854914e+02 
       3.890349143879e-01       5.721342857686e+02 
       4.025469216825e-01       5.337814304336e+02 
       4.166424456376e-01       4.956293866343e+02 
       4.313708035863e-01       4.604695817501e+02 
       4.467893782977e-01       4.287769643064e+02 
       4.629654199664e-01       3.987728612473e+02 
       4.799783501994e-01       3.692422115268e+02 
       4.979227319373e-01       3.412409128998e+02 
       5.169121270864e-01       3.154830329679e+02 
       5.370841404489e-01       2.908359349523e+02 
       5.586070464571e-01       2.671075409561e+02 
       5.816885094930e-01       2.448100290866e+02 
       6.065870144995e-01       2.235688877890e+02 
       6.336266468475e-01       2.032115749459e+02 
       6.632156059511e-01       1.838789086701e+02 
       6.958678639263e-01       1.653546658209e+02 
       7.322247985589e-01       1.476956447227e+02 
       7.730680195114e-01       1.308337666566e+02 
       8.193049553677e-01       1.148317462650e+02 
       8.718988016039e-01       9.976287364670e+01 
       9.317218031082e-01       8.577804504647e+01 
       9.993660908989e-01       7.305501001066e+01 
       1.075037110174e+00       6.173617319944e+01 
       1.158653485707e+00       5.187927821117e+01 
       1.250099157308e+00       4.344038649767e+01 
       1.349432401273e+00       3.628948278063e+01 
       1.456947457397e+00       3.026802642188e+01 
       1.573135111331e+00       2.521460734962e+01 
       1.698621895592e+00       2.098195060988e+01 
       1.834127512934e+00       1.744243936519e+01 
       1.980444934528e+00       1.448567454889e+01 
       2.138435191726e+00       1.201890102977e+01 
       2.309029199186e+00       9.963154532271e+00 
       2.493232377687e+00       8.251819383068e+00 
       2.692130395285e+00       6.828595970674e+00 
       2.906895534573e+00       5.646255831612e+00 
       3.138793597714e+00       4.664900288617e+00 
       3.389191366484e+00       3.851094457378e+00 
       3.659564657905e+00       3.176937848820e+00 
       3.951507022538e+00       2.618877274660e+00 
       4.266739136701e+00       2.157334871131e+00 
       4.607118943941e+00       1.775935738657e+00 
       4.974652605557e+00       1.460991824744e+00 
       5.371506324689e+00       1.201126438919e+00 
       5.800019113685e+00       9.868825049024e-01 
       6.262716579983e+00       8.103506027138e-01 
       6.762325811764e+00       6.650095087597e-01 
       7.301791451110e+00       5.454245842095e-01 
       7.884293049406e+00       4.470974287959e-01 
       8.513263807261e+00       3.662975506386e-01 
       9.192410809424e+00       2.999410106182e-01 
       9.925736873929e+00       2.454812223030e-01 
       1.071756414427e+01       2.008069561423e-01 
       1.157255956364e+01       1.641853268974e-01 
       1.249576238137e+01       1.341769596788e-01 
       1.349261385375e+01       1.096037095796e-01 
       1.456898931416e+01       8.948853123778e-02 
       1.573123280165e+01       7.303327257113e-02 
       1.698619445202e+01       5.957840554389e-02 
       1.834127087176e+01       4.858099482205e-02 
       1.980444873285e+01       3.959699013854e-02 
       2.138435184532e+01       3.226080277543e-02 
       2.309029198506e+01       2.627323304121e-02 
       2.493232377636e+01       2.138845919327e-02 
       2.692130395282e+01       1.740471658727e-02 
       2.906895534573e+01       1.415732714394e-02 
       3.138793597714e+01       1.151118454117e-02 
       3.389191366484e+01       9.355956488435e-03 
       3.659564657905e+01       7.601178452838e-03 
       3.951507022538e+01       6.172931627417e-03 
       4.266739136701e+01       5.011037832928e-03 
       4.607118943941e+01       4.066063136192e-03 
       4.974652605557e+01       3.297806935692e-03 
       5.371506324689e+01       2.673508389846e-03 
       5.800019113685e+01       2.166390124749e-03 
       6.262716579983e+01       1.754551293603e-03 
       6.762325811764e+01       1.420229916899e-03 
