# Matter power spectrum P(k) at redshift z=99
# for k=1.04775e-05 to 67.6233 h/Mpc,
# number of wavenumbers equal to 246
#    1:k (h/Mpc)              2:P (Mpc/h)^3        
       1.047750691338e-05       7.261927673119e-03 
       1.131335172818e-05       7.820331745737e-03 
       1.221587619877e-05       8.421675986489e-03 
       1.319039970550e-05       9.069258192194e-03 
       1.424266598317e-05       9.766638404421e-03 
       1.537887697396e-05       1.051764069682e-02 
       1.660572938097e-05       1.132639105520e-02 
       1.793045413791e-05       1.219733231416e-02 
       1.936085902737e-05       1.313524224380e-02 
       2.090537469909e-05       1.414527121893e-02 
       2.257310435923e-05       1.523296272192e-02 
       2.437387742372e-05       1.640429444530e-02 
       2.631830745176e-05       1.766569582177e-02 
       2.841785470091e-05       1.902408601793e-02 
       3.068489367268e-05       2.048692970591e-02 
       3.313278604643e-05       2.206225513594e-02 
       3.577595943165e-05       2.375870704909e-02 
       3.862999240274e-05       2.558560727479e-02 
       4.171170631739e-05       2.755297763344e-02 
       4.503926445983e-05       2.967161927315e-02 
       4.863227909323e-05       3.195316450832e-02 
       5.251192705226e-05       3.441013519284e-02 
       5.670107455699e-05       3.705601722527e-02 
       6.122441198393e-05       3.990533413560e-02 
       6.610859938837e-05       4.297372168203e-02 
       7.138242363583e-05       4.627802141688e-02 
       7.707696806873e-05       4.983636194159e-02 
       8.322579570814e-05       5.366826847231e-02 
       8.986514707061e-05       5.779476394569e-02 
       9.703415376577e-05       6.223848243885e-02 
       1.047750691338e-04       6.702379865640e-02 
       1.131335172818e-04       7.217695153381e-02 
       1.221587619877e-04       7.772619073570e-02 
       1.319039970550e-04       8.370193432376e-02 
       1.424266598317e-04       9.013692507546e-02 
       1.537887697396e-04       9.706641242570e-02 
       1.660572938097e-04       1.045283354271e-01 
       1.793045413791e-04       1.125635349068e-01 
       1.936085902737e-04       1.212159614968e-01 
       2.090537469909e-04       1.305329132714e-01 
       2.257310435923e-04       1.405652846215e-01 
       2.437387742372e-04       1.513678302540e-01 
       2.631830745176e-04       1.629994504871e-01 
       2.841785470091e-04       1.755234921224e-01 
       3.068489367268e-04       1.890080670413e-01 
       3.313278604643e-04       2.035264002435e-01 
       3.577595943165e-04       2.191571803681e-01 
       3.862999240274e-04       2.359849437593e-01 
       4.171170631739e-04       2.541004741539e-01 
       4.503926445983e-04       2.736012080278e-01 
       4.863227909323e-04       2.945916790965e-01 
       5.251192705226e-04       3.171839525183e-01 
       5.670107455699e-04       3.414980764002e-01 
       6.122441198393e-04       3.676625413100e-01 
       6.610859938837e-04       3.958147252304e-01 
       7.138242363583e-04       4.261013284911e-01 
       7.707696806873e-04       4.586787792351e-01 
       8.322579570814e-04       4.937136001368e-01 
       8.986514707061e-04       5.313826801402e-01 
       9.703415376577e-04       5.718734972157e-01 
       1.047750691338e-03       6.153841629505e-01 
       1.131335172818e-03       6.621233239465e-01 
       1.221587619877e-03       7.123098220426e-01 
       1.319039970550e-03       7.661720584571e-01 
       1.424266598317e-03       8.239546297729e-01 
       1.537887697396e-03       8.859011173466e-01 
       1.660572938097e-03       9.522588006421e-01 
       1.793045413791e-03       1.023280099819e+00 
       1.936085902737e-03       1.099216304579e+00 
       2.090537469909e-03       1.180312990454e+00 
       2.257310435923e-03       1.266804115850e+00 
       2.437387742372e-03       1.358904853407e+00 
       2.631830745176e-03       1.456802683156e+00 
       2.841785470091e-03       1.560646890522e+00 
       3.068489367268e-03       1.670536062499e+00 
       3.313278604643e-03       1.786503852166e+00 
       3.577595943165e-03       1.908502930786e+00 
       3.862999240274e-03       2.036387730709e+00 
       4.171170631739e-03       2.169896178637e+00 
       4.503926445983e-03       2.308631878994e+00 
       4.863227909323e-03       2.452047290962e+00 
       5.251192705226e-03       2.599430628087e+00 
       5.670107455699e-03       2.749896931810e+00 
       6.122441198393e-03       2.902386513384e+00 
       6.610859938837e-03       3.055668623261e+00 
       7.138242363583e-03       3.208356461544e+00 
       7.707696806873e-03       3.358923893144e+00 
       8.322579570814e-03       3.505725595402e+00 
       8.986514707061e-03       3.647009254825e+00 
       9.703415376577e-03       3.780923304305e+00 
       1.047750691338e-02       3.905490579960e+00 
       1.131335172818e-02       4.018587643831e+00 
       1.221587619877e-02       4.117901695575e+00 
       1.319039970550e-02       4.200915489423e+00 
       1.424266598317e-02       4.264942561876e+00 
       1.537887697392e-02       4.307219270556e+00 
       1.660572938023e-02       4.325062782186e+00 
       1.793045412706e-02       4.316058651908e+00 
       1.936085890181e-02       4.278230359177e+00 
       2.090537352463e-02       4.210203328629e+00 
       2.257309535333e-02       4.111424039969e+00 
       2.437382002918e-02       3.982423048184e+00 
       2.631799944462e-02       3.825166333573e+00 
       2.841644545389e-02       3.643280585348e+00 
       3.067933355377e-02       3.442189174399e+00 
       3.311368470740e-02       3.229241382710e+00 
       3.571840443502e-02       3.013512271365e+00 
       3.847720348444e-02       2.805278895828e+00 
       4.135335538431e-02       2.614409296055e+00 
       4.429361667738e-02       2.448131339226e+00 
       4.724366439141e-02       2.309237041122e+00 
       5.016480835311e-02       2.196112981087e+00 
       5.303989620246e-02       2.104370279243e+00 
       5.586870669566e-02       2.028465771513e+00 
       5.866042680613e-02       1.963157213993e+00 
       6.142798932958e-02       1.903776960444e+00 
       6.418496440164e-02       1.846477989734e+00 
       6.694418833788e-02       1.788198161017e+00 
       6.971731106057e-02       1.726715339651e+00 
       7.251476155766e-02       1.660652930981e+00 
       7.534587671527e-02       1.589470354954e+00 
       7.821907666265e-02       1.513439569608e+00 
       8.114203772912e-02       1.433571302655e+00 
       8.412184535029e-02       1.351492620852e+00 
       8.716512279304e-02       1.269275873611e+00 
       9.027813695930e-02       1.189192772667e+00 
       9.346688431697e-02       1.113504503710e+00 
       9.673716028276e-02       1.044176399776e+00 
       1.000946150830e-01       9.827076817264e-01 
       1.035447986537e-01       9.299379231474e-01 
       1.070931966762e-01       8.859620707663e-01 
       1.107452594425e-01       8.500715594471e-01 
       1.145064249153e-01       8.208035006698e-01 
       1.183821370918e-01       7.960264592725e-01 
       1.223778605862e-01       7.731473922993e-01 
       1.264990921987e-01       7.494520212577e-01 
       1.307513701367e-01       7.225577116866e-01 
       1.351402814784e-01       6.909099812964e-01 
       1.396714684203e-01       6.541804866304e-01 
       1.443506338194e-01       6.134256337109e-01 
       1.491835465229e-01       5.708685567088e-01 
       1.541760469708e-01       5.293635264483e-01 
       1.593340535561e-01       4.917111406901e-01 
       1.646635702297e-01       4.599200178412e-01 
       1.701706958456e-01       4.347286179789e-01 
       1.758616357459e-01       4.154074612201e-01 
       1.817427160982e-01       3.999371415951e-01 
       1.878204015065e-01       3.856826275067e-01 
       1.941013164283e-01       3.698102789183e-01 
       2.005922709503e-01       3.505462906691e-01 
       2.073002914972e-01       3.280432582110e-01 
       2.142326570816e-01       3.042145110838e-01 
       2.213969417533e-01       2.816123580225e-01 
       2.288010639706e-01       2.622569437695e-01 
       2.364533437147e-01       2.469615702302e-01 
       2.443625682930e-01       2.350134025060e-01 
       2.525380679504e-01       2.244180657718e-01 
       2.609898026346e-01       2.130935341542e-01 
       2.697284615565e-01       2.001020655786e-01 
       2.787655775689e-01       1.860198787691e-01 
       2.881136588829e-01       1.725176512796e-01 
       2.977863412677e-01       1.610660224641e-01 
       3.077985646929e-01       1.517609800877e-01 
       3.181667794071e-01       1.435593796376e-01 
       3.289091877812e-01       1.351816702702e-01 
       3.400460299658e-01       1.261642216705e-01 
       3.515999236474e-01       1.172020610069e-01 
       3.635962711085e-01       1.091770662476e-01 
       3.760637506334e-01       1.023096118713e-01 
       3.890349143879e-01       9.593777409361e-02 
       4.025469216825e-01       8.950765842767e-02 
       4.166424456376e-01       8.311200735689e-02 
       4.313708035863e-01       7.721558749653e-02 
       4.467893782977e-01       7.190076524282e-02 
       4.629654199664e-01       6.686907997727e-02 
       4.799783501994e-01       6.191738443486e-02 
       4.979227319373e-01       5.722228329629e-02 
       5.169121270864e-01       5.290293434012e-02 
       5.370841404489e-01       4.876977694654e-02 
       5.586070464571e-01       4.479082137568e-02 
       5.816885094930e-01       4.105173583513e-02 
       6.065870144995e-01       3.748985895037e-02 
       6.336266468475e-01       3.407630880421e-02 
       6.632156059511e-01       3.083462071967e-02 
       6.958678639263e-01       2.772831121927e-02 
       7.322247985589e-01       2.476714543578e-02 
       7.730680195114e-01       2.193958193696e-02 
       8.193049553677e-01       1.925612115454e-02 
       8.718988016039e-01       1.672927527891e-02 
       9.317218031082e-01       1.438423310730e-02 
       9.993660908989e-01       1.225066130579e-02 
       1.075037110174e+00       1.035259617750e-02 
       1.158653485707e+00       8.699694245673e-03 
       1.250099157308e+00       7.284519393867e-03 
       1.349432401273e+00       6.085416179719e-03 
       1.456947457397e+00       5.075691480379e-03 
       1.573135111331e+00       4.228251754761e-03 
       1.698621895592e+00       3.518482313759e-03 
       1.834127512934e+00       2.924909205080e-03 
       1.980444934528e+00       2.429087323345e-03 
       2.138435191726e+00       2.015420357120e-03 
       2.309029199186e+00       1.670679260157e-03 
       2.493232377687e+00       1.383689515313e-03 
       2.692130395285e+00       1.145013218162e-03 
       2.906895534573e+00       9.467271079572e-04 
       3.138793597714e+00       7.821522954673e-04 
       3.389191366484e+00       6.456738533971e-04 
       3.659564657905e+00       5.326055221526e-04 
       3.951507022538e+00       4.390058426070e-04 
       4.266739136701e+00       3.615933083291e-04 
       4.607118943941e+00       2.976123435923e-04 
       4.974652605557e+00       2.447774616694e-04 
       5.371506324689e+00       2.011789962640e-04 
       5.800019113685e+00       1.652254495502e-04 
       6.262716579983e+00       1.355979921547e-04 
       6.762325811764e+00       1.111967444980e-04 
       7.301791451110e+00       9.111426437631e-05 
       7.884293049406e+00       7.459413024696e-05 
       8.513263807261e+00       6.101119734329e-05 
       9.192410809424e+00       4.984833521360e-05 
       9.925736873929e+00       4.067831655935e-05 
       1.071756414427e+01       3.314733705346e-05 
       1.157255956364e+01       2.696493614690e-05 
       1.249576238137e+01       2.188960938741e-05 
       1.349261385375e+01       1.772449288195e-05 
       1.456898931416e+01       1.430604553966e-05 
       1.573123280165e+01       1.150068496241e-05 
       1.698619445202e+01       9.198503545164e-06 
       1.834127087176e+01       7.309803739953e-06 
       1.980444873285e+01       5.760785736663e-06 
       2.138435184532e+01       4.491683408133e-06 
       2.309029198506e+01       3.454023288910e-06 
       2.493232377636e+01       2.608470691814e-06 
       2.692130395282e+01       1.923480747768e-06 
       2.906895534573e+01       1.373872467697e-06 
       3.138793597714e+01       9.394961012964e-07 
       3.389191366484e+01       6.042259535623e-07 
       3.659564657905e+01       3.548607639018e-07 
       3.951507022538e+01       1.801423825922e-07 
       4.266739136701e+01       6.976703335255e-08 
       4.607118943941e+01       1.347658014746e-08 
       4.974652605557e+01       3.153500831804e-10 
       5.371506324689e+01       1.818529175706e-08 
       5.800019113685e+01       5.390182128034e-08 
       6.262716579983e+01       9.391431027604e-08 
       6.762325811764e+01       1.257648125656e-07 
