# Matter power spectrum P(k) at redshift z=0
# for k=1.04775e-05 to 67.6233 h/Mpc,
# number of wavenumbers equal to 246
#    1:k (h/Mpc)              2:P (Mpc/h)^3        
       1.047750691338e-05       5.020964806749e+01 
       1.131335172818e-05       5.407048206553e+01 
       1.221587619877e-05       5.822819063778e+01 
       1.319039970550e-05       6.270562589681e+01 
       1.424266598317e-05       6.752731788102e+01 
       1.537887697396e-05       7.271977200258e+01 
       1.660572938097e-05       7.831147241541e+01 
       1.793045413791e-05       8.433311815128e+01 
       1.936085902737e-05       9.081778242446e+01 
       2.090537469909e-05       9.780108061341e+01 
       2.257310435923e-05       1.053213197032e+02 
       2.437387742372e-05       1.134197377001e+02 
       2.631830745176e-05       1.221408202816e+02 
       2.841785470091e-05       1.315324720916e+02 
       3.068489367268e-05       1.416462093729e+02 
       3.313278604643e-05       1.525374500691e+02 
       3.577595943165e-05       1.642660687078e+02 
       3.862999240274e-05       1.768963504868e+02 
       4.171170631739e-05       1.904975992460e+02 
       4.503926445983e-05       2.051444490305e+02 
       4.863227909323e-05       2.209171463752e+02 
       5.251192705226e-05       2.379022222314e+02 
       5.670107455699e-05       2.561927925446e+02 
       6.122441198393e-05       2.758890441791e+02 
       6.610859938837e-05       2.970989225465e+02 
       7.138242363583e-05       3.199385558200e+02 
       7.707696806873e-05       3.445329780878e+02 
       8.322579570814e-05       3.710167315928e+02 
       8.986514707061e-05       3.995346440954e+02 
       9.703415376577e-05       4.302425403884e+02 
       1.047750691338e-04       4.633080762974e+02 
       1.131335172818e-04       4.989116267507e+02 
       1.221587619877e-04       5.372471946561e+02 
       1.319039970550e-04       5.785234124632e+02 
       1.424266598317e-04       6.229645930980e+02 
       1.537887697396e-04       6.708118484951e+02 
       1.660572938097e-04       7.223242660220e+02 
       1.793045413791e-04       7.777801554128e+02 
       1.936085902737e-04       8.374783607333e+02 
       2.090537469909e-04       9.017396264495e+02 
       2.257310435923e-04       9.709080260152e+02 
       2.437387742372e-04       1.045352448644e+03 
       2.631830745176e-04       1.125468122836e+03 
       2.841785470091e-04       1.211678179511e+03 
       3.068489367268e-04       1.304435249091e+03 
       3.313278604643e-04       1.404223052541e+03 
       3.577595943165e-04       1.511558013390e+03 
       3.862999240274e-04       1.626990836487e+03 
       4.171170631739e-04       1.751108027371e+03 
       4.503926445983e-04       1.884533381345e+03 
       4.863227909323e-04       2.027929376470e+03 
       5.251192705226e-04       2.181998446367e+03 
       5.670107455699e-04       2.347484100857e+03 
       6.122441198393e-04       2.525171869335e+03 
       6.610859938837e-04       2.715889981401e+03 
       7.138242363583e-04       2.920509686089e+03 
       7.707696806873e-04       3.139945097711e+03 
       8.322579570814e-04       3.375152334397e+03 
       8.986514707061e-04       3.627127828231e+03 
       9.703415376577e-04       3.896905450016e+03 
       1.047750691338e-03       4.185552170958e+03 
       1.131335172818e-03       4.494162426791e+03 
       1.221587619877e-03       4.823850702670e+03 
       1.319039970550e-03       5.175742738828e+03 
       1.424266598317e-03       5.551019592520e+03 
       1.537887697396e-03       5.950788335883e+03 
       1.660572938097e-03       6.376123046806e+03 
       1.793045413791e-03       6.828073896113e+03 
       1.936085902737e-03       7.307625375386e+03 
       2.090537469909e-03       7.815671860074e+03 
       2.257310435923e-03       8.352990369403e+03 
       2.437387742372e-03       8.920211057542e+03 
       2.631830745176e-03       9.517783061890e+03 
       2.841785470091e-03       1.014593703671e+04 
       3.068489367268e-03       1.080464505731e+04 
       3.313278604643e-03       1.149357459479e+04 
       3.577595943165e-03       1.221203620826e+04 
       3.862999240274e-03       1.295892538505e+04 
       4.171170631739e-03       1.373266002204e+04 
       4.503926445983e-03       1.453111834595e+04 
       4.863227909323e-03       1.535154984227e+04 
       5.251192705226e-03       1.619063613434e+04 
       5.670107455699e-03       1.704431256590e+04 
       6.122441198393e-03       1.790755938457e+04 
       6.610859938837e-03       1.877460419097e+04 
       7.138242363583e-03       1.963872429100e+04 
       7.707696806873e-03       2.049215713072e+04 
       8.322579570814e-03       2.132607230639e+04 
       8.986514707061e-03       2.213055078391e+04 
       9.703415376577e-03       2.289445470808e+04 
       1.047750691338e-02       2.360547937342e+04 
       1.131335172818e-02       2.425023138495e+04 
       1.221587619877e-02       2.481423922373e+04 
       1.319039970550e-02       2.528218552743e+04 
       1.424266598317e-02       2.563813620447e+04 
       1.537887697392e-02       2.586605820038e+04 
       1.660572938023e-02       2.595026045518e+04 
       1.793045412706e-02       2.587633590080e+04 
       1.936085890181e-02       2.563220073565e+04 
       2.090537352463e-02       2.520934477548e+04 
       2.257309535333e-02       2.460444850678e+04 
       2.437382002918e-02       2.382090923363e+04 
       2.631799944462e-02       2.287044923477e+04 
       2.841644545389e-02       2.177450049397e+04 
       3.067933355377e-02       2.056558302965e+04 
       3.311368470740e-02       1.928730439748e+04 
       3.571840443502e-02       1.799398184055e+04 
       3.847720348444e-02       1.674681080285e+04 
       4.135335538431e-02       1.560457706877e+04 
       4.429361667738e-02       1.461042495384e+04 
       4.724366439141e-02       1.378053072028e+04 
       5.016480835311e-02       1.310506104097e+04 
       5.303989620246e-02       1.255713902405e+04 
       5.586870669566e-02       1.210424552480e+04 
       5.866042680613e-02       1.171464801281e+04 
       6.142798932958e-02       1.136048307103e+04 
       6.418496440164e-02       1.101856429090e+04 
       6.694418833788e-02       1.067073399128e+04 
       6.971731106057e-02       1.030357092785e+04 
       7.251476155766e-02       9.908990924213e+03 
       7.534587671527e-02       9.483799402395e+03 
       7.821907666265e-02       9.029507463764e+03 
       8.114203772912e-02       8.552314321274e+03 
       8.412184535029e-02       8.061945955678e+03 
       8.716512279304e-02       7.570763022270e+03 
       9.027813695930e-02       7.092499323803e+03 
       9.346688431697e-02       6.640521283516e+03 
       9.673716028276e-02       6.226707041039e+03 
       1.000946150830e-01       5.859928931164e+03 
       1.035447986537e-01       5.545249356318e+03 
       1.070931966762e-01       5.283138058952e+03 
       1.107452594425e-01       5.069421895683e+03 
       1.145064249153e-01       4.895255538963e+03 
       1.183821370918e-01       4.747846366859e+03 
       1.223778605862e-01       4.611738395876e+03 
       1.264990921987e-01       4.470627666857e+03 
       1.307513701367e-01       4.310274076412e+03 
       1.351402814784e-01       4.121383654018e+03 
       1.396714684203e-01       3.902060853243e+03 
       1.443506338194e-01       3.658639168483e+03 
       1.491835465229e-01       3.404489627921e+03 
       1.541760469708e-01       3.156667063743e+03 
       1.593340535561e-01       2.931982124210e+03 
       1.646635702297e-01       2.742380891717e+03 
       1.701706958456e-01       2.592259340175e+03 
       1.758616357459e-01       2.477236931095e+03 
       1.817427160982e-01       2.385187395404e+03 
       1.878204015065e-01       2.300363518716e+03 
       1.941013164283e-01       2.205759449852e+03 
       2.005922709503e-01       2.090814794836e+03 
       2.073002914972e-01       1.956469258519e+03 
       2.142326570816e-01       1.814199577678e+03 
       2.213969417533e-01       1.679294779626e+03 
       2.288010639706e-01       1.563851597961e+03 
       2.364533437147e-01       1.472685077842e+03 
       2.443625682930e-01       1.401512831268e+03 
       2.525380679504e-01       1.338412615299e+03 
       2.609898026346e-01       1.270900260561e+03 
       2.697284615565e-01       1.193383467708e+03 
       2.787655775689e-01       1.109340745943e+03 
       2.881136588829e-01       1.028769554102e+03 
       2.977863412677e-01       9.604846541772e+02 
       3.077985646929e-01       9.050255888271e+02 
       3.181667794071e-01       8.561472830292e+02 
       3.289091877812e-01       8.061848594199e+02 
       3.400460299658e-01       7.523926824301e+02 
       3.515999236474e-01       6.989243991090e+02 
       3.635962711085e-01       6.510640323569e+02 
       3.760637506334e-01       6.101233698464e+02 
       3.890349143879e-01       5.721322230746e+02 
       4.025469216825e-01       5.337821863127e+02 
       4.166424456376e-01       4.956319705760e+02 
       4.313708035863e-01       4.604694389007e+02 
       4.467893782977e-01       4.287771145775e+02 
       4.629654199664e-01       3.987724751994e+02 
       4.799783501994e-01       3.692417783416e+02 
       4.979227319373e-01       3.412408472809e+02 
       5.169121270864e-01       3.154840951636e+02 
       5.370841404489e-01       2.908359464875e+02 
       5.586070464571e-01       2.671073746199e+02 
       5.816885094930e-01       2.448095121920e+02 
       6.065870144995e-01       2.235675606902e+02 
       6.336266468475e-01       2.032110855431e+02 
       6.632156059511e-01       1.838790037456e+02 
       6.958678639263e-01       1.653547862773e+02 
       7.322247985589e-01       1.476956360794e+02 
       7.730680195114e-01       1.308338791566e+02 
       8.193049553677e-01       1.148310980901e+02 
       8.718988016039e-01       9.976274686503e+01 
       9.317218031082e-01       8.577838599750e+01 
       9.993660908989e-01       7.305500266246e+01 
       1.075037110174e+00       6.173590438607e+01 
       1.158653485707e+00       5.187923773846e+01 
       1.250099157308e+00       4.344025666751e+01 
       1.349432401273e+00       3.628930787259e+01 
       1.456947457397e+00       3.026801739054e+01 
       1.573135111331e+00       2.521454829603e+01 
       1.698621895592e+00       2.098194366050e+01 
       1.834127512934e+00       1.744237703624e+01 
       1.980444934528e+00       1.448567414962e+01 
       2.138435191726e+00       1.201899998950e+01 
       2.309029199186e+00       9.963164439128e+00 
       2.493232377687e+00       8.251834112654e+00 
       2.692130395285e+00       6.828593696197e+00 
       2.906895534573e+00       5.646236470666e+00 
       3.138793597714e+00       4.664889173276e+00 
       3.389191366484e+00       3.851140441119e+00 
       3.659564657905e+00       3.176854738907e+00 
       3.951507022538e+00       2.618882996382e+00 
       4.266739136701e+00       2.157346865697e+00 
       4.607118943941e+00       1.775928642571e+00 
       4.974652605557e+00       1.460986356328e+00 
       5.371506324689e+00       1.201134014234e+00 
       5.800019113685e+00       9.868793470848e-01 
       6.262716579983e+00       8.103534693667e-01 
       6.762325811764e+00       6.650093339395e-01 
       7.301791451110e+00       5.454244435664e-01 
       7.884293049406e+00       4.470965319917e-01 
       8.513263807261e+00       3.662974321445e-01 
       9.192410809424e+00       2.999388061258e-01 
       9.925736873929e+00       2.454792356366e-01 
       1.071756414427e+01       2.008091996369e-01 
       1.157255956364e+01       1.641846659146e-01 
       1.249576238137e+01       1.341776470554e-01 
       1.349261385375e+01       1.096017166963e-01 
       1.456898931416e+01       8.948857167106e-02 
       1.573123280165e+01       7.303353279227e-02 
       1.698619445202e+01       5.957768299619e-02 
       1.834127087176e+01       4.858067840911e-02 
       1.980444873285e+01       3.959672842403e-02 
       2.138435184532e+01       3.226055682615e-02 
       2.309029198506e+01       2.627274989535e-02 
       2.493232377636e+01       2.138772320375e-02 
       2.692130395282e+01       1.740400963010e-02 
       2.906895534573e+01       1.415649602288e-02 
       3.138793597714e+01       1.151044806236e-02 
       3.389191366484e+01       9.355087012715e-03 
       3.659564657905e+01       7.600221263331e-03 
       3.951507022538e+01       6.171953176717e-03 
       4.266739136701e+01       5.009963122075e-03 
       4.607118943941e+01       4.064935953644e-03 
       4.974652605557e+01       3.296605274465e-03 
       5.371506324689e+01       2.672268338543e-03 
       5.800019113685e+01       2.165003634066e-03 
       6.262716579983e+01       1.753071970809e-03 
       6.762325811764e+01       1.418638854601e-03 
