# Matter power spectrum P(k) at redshift z=99
# for k=1.04775e-05 to 67.6233 h/Mpc,
# number of wavenumbers equal to 246
#    1:k (h/Mpc)              2:P (Mpc/h)^3        
       1.047750691338e-05       7.261927673119e-03 
       1.131335172818e-05       7.820331745737e-03 
       1.221587619877e-05       8.421675986489e-03 
       1.319039970550e-05       9.069258192194e-03 
       1.424266598317e-05       9.766638404421e-03 
       1.537887697396e-05       1.051764069682e-02 
       1.660572938097e-05       1.132639105520e-02 
       1.793045413791e-05       1.219733231416e-02 
       1.936085902737e-05       1.313524224380e-02 
       2.090537469909e-05       1.414527121893e-02 
       2.257310435923e-05       1.523296272192e-02 
       2.437387742372e-05       1.640429444530e-02 
       2.631830745176e-05       1.766569582177e-02 
       2.841785470091e-05       1.902408601793e-02 
       3.068489367268e-05       2.048692970591e-02 
       3.313278604643e-05       2.206225513594e-02 
       3.577595943165e-05       2.375870704909e-02 
       3.862999240274e-05       2.558560727479e-02 
       4.171170631739e-05       2.755297763344e-02 
       4.503926445983e-05       2.967161927314e-02 
       4.863227909323e-05       3.195316450832e-02 
       5.251192705226e-05       3.441013519284e-02 
       5.670107455699e-05       3.705601722524e-02 
       6.122441198393e-05       3.990533413562e-02 
       6.610859938837e-05       4.297372168203e-02 
       7.138242363583e-05       4.627802141688e-02 
       7.707696806873e-05       4.983636194159e-02 
       8.322579570814e-05       5.366826847231e-02 
       8.986514707061e-05       5.779476394568e-02 
       9.703415376577e-05       6.223848243885e-02 
       1.047750691338e-04       6.702379865640e-02 
       1.131335172818e-04       7.217695153381e-02 
       1.221587619877e-04       7.772619073572e-02 
       1.319039970550e-04       8.370193432376e-02 
       1.424266598317e-04       9.013692507547e-02 
       1.537887697396e-04       9.706641242570e-02 
       1.660572938097e-04       1.045283354271e-01 
       1.793045413791e-04       1.125635349068e-01 
       1.936085902737e-04       1.212159614968e-01 
       2.090537469909e-04       1.305329132714e-01 
       2.257310435923e-04       1.405652846215e-01 
       2.437387742372e-04       1.513678302540e-01 
       2.631830745176e-04       1.629994504870e-01 
       2.841785470091e-04       1.755234921224e-01 
       3.068489367268e-04       1.890080670413e-01 
       3.313278604643e-04       2.035264002435e-01 
       3.577595943165e-04       2.191571803681e-01 
       3.862999240274e-04       2.359849437593e-01 
       4.171170631739e-04       2.541004741539e-01 
       4.503926445983e-04       2.736012080277e-01 
       4.863227909323e-04       2.945916790965e-01 
       5.251192705226e-04       3.171839525183e-01 
       5.670107455699e-04       3.414980764002e-01 
       6.122441198393e-04       3.676625413100e-01 
       6.610859938837e-04       3.958147252304e-01 
       7.138242363583e-04       4.261013284914e-01 
       7.707696806873e-04       4.586787792352e-01 
       8.322579570814e-04       4.937136001363e-01 
       8.986514707061e-04       5.313826801402e-01 
       9.703415376577e-04       5.718734972157e-01 
       1.047750691338e-03       6.153841629505e-01 
       1.131335172818e-03       6.621233239466e-01 
       1.221587619877e-03       7.123098220424e-01 
       1.319039970550e-03       7.661720584576e-01 
       1.424266598317e-03       8.239546297730e-01 
       1.537887697396e-03       8.859011173466e-01 
       1.660572938097e-03       9.522588006419e-01 
       1.793045413791e-03       1.023280099819e+00 
       1.936085902737e-03       1.099216304579e+00 
       2.090537469909e-03       1.180312990453e+00 
       2.257310435923e-03       1.266804115850e+00 
       2.437387742372e-03       1.358904853406e+00 
       2.631830745176e-03       1.456802683156e+00 
       2.841785470091e-03       1.560646890521e+00 
       3.068489367268e-03       1.670536062500e+00 
       3.313278604643e-03       1.786503852158e+00 
       3.577595943165e-03       1.908502930788e+00 
       3.862999240274e-03       2.036387730709e+00 
       4.171170631739e-03       2.169896178758e+00 
       4.503926445983e-03       2.308631878994e+00 
       4.863227909323e-03       2.452047290962e+00 
       5.251192705226e-03       2.599430628087e+00 
       5.670107455699e-03       2.749896931812e+00 
       6.122441198393e-03       2.902386513382e+00 
       6.610859938837e-03       3.055668593758e+00 
       7.138242363583e-03       3.208356461544e+00 
       7.707696806873e-03       3.358923893026e+00 
       8.322579570814e-03       3.505725595256e+00 
       8.986514707061e-03       3.647009250572e+00 
       9.703415376577e-03       3.780923304345e+00 
       1.047750691338e-02       3.905492144716e+00 
       1.131335172818e-02       4.018588036516e+00 
       1.221587619877e-02       4.117901584012e+00 
       1.319039970550e-02       4.200915298218e+00 
       1.424266598317e-02       4.264943025095e+00 
       1.537887697392e-02       4.307220034742e+00 
       1.660572938023e-02       4.325063735677e+00 
       1.793045412706e-02       4.316057504370e+00 
       1.936085890181e-02       4.278230146859e+00 
       2.090537352463e-02       4.210204993625e+00 
       2.257309535333e-02       4.111419421584e+00 
       2.437382002918e-02       3.982427403741e+00 
       2.631799944462e-02       3.825168631124e+00 
       2.841644545389e-02       3.643288127111e+00 
       3.067933355377e-02       3.442195678265e+00 
       3.311368470740e-02       3.229232561307e+00 
       3.571840443502e-02       3.013507837526e+00 
       3.847720348444e-02       2.805278528653e+00 
       4.135335538431e-02       2.614412629873e+00 
       4.429361667738e-02       2.448130800314e+00 
       4.724366439141e-02       2.309239852518e+00 
       5.016480835311e-02       2.196114183895e+00 
       5.303989620246e-02       2.104367207176e+00 
       5.586870669566e-02       2.028463429482e+00 
       5.866042680613e-02       1.963154629290e+00 
       6.142798932958e-02       1.903784220394e+00 
       6.418496440164e-02       1.846480023671e+00 
       6.694418833788e-02       1.788194163050e+00 
       6.971731106057e-02       1.726714659793e+00 
       7.251476155766e-02       1.660650509450e+00 
       7.534587671527e-02       1.589473162189e+00 
       7.821907666265e-02       1.513441188972e+00 
       8.114203772912e-02       1.433568199864e+00 
       8.412184535029e-02       1.351492180298e+00 
       8.716512279304e-02       1.269272798252e+00 
       9.027813695930e-02       1.189193569663e+00 
       9.346688431697e-02       1.113501638366e+00 
       9.673716028276e-02       1.044176313775e+00 
       1.000946150830e-01       9.827044724439e-01 
       1.035447986537e-01       9.299385481876e-01 
       1.070931966762e-01       8.859585714744e-01 
       1.107452594425e-01       8.500726255074e-01 
       1.145064249153e-01       8.208014001283e-01 
       1.183821370918e-01       7.960257116727e-01 
       1.223778605862e-01       7.731477018844e-01 
       1.264990921987e-01       7.494515811158e-01 
       1.307513701367e-01       7.225583733172e-01 
       1.351402814784e-01       6.909093110424e-01 
       1.396714684203e-01       6.541813177264e-01 
       1.443506338194e-01       6.134263181216e-01 
       1.491835465229e-01       5.708675202766e-01 
       1.541760469708e-01       5.293634776331e-01 
       1.593340535561e-01       4.917103020989e-01 
       1.646635702297e-01       4.599207670826e-01 
       1.701706958456e-01       4.347293105496e-01 
       1.758616357459e-01       4.154075680436e-01 
       1.817427160982e-01       3.999366042687e-01 
       1.878204015065e-01       3.856827355125e-01 
       1.941013164283e-01       3.698092263815e-01 
       2.005922709503e-01       3.505458156077e-01 
       2.073002914972e-01       3.280428929556e-01 
       2.142326570816e-01       3.042146257376e-01 
       2.213969417533e-01       2.816121019398e-01 
       2.288010639706e-01       2.622572487586e-01 
       2.364533437147e-01       2.469615146368e-01 
       2.443625682930e-01       2.350127855690e-01 
       2.525380679504e-01       2.244179101517e-01 
       2.609898026346e-01       2.130938147773e-01 
       2.697284615565e-01       2.001018582532e-01 
       2.787655775689e-01       1.860196873361e-01 
       2.881136588829e-01       1.725173134568e-01 
       2.977863412677e-01       1.610666221571e-01 
       3.077985646929e-01       1.517610376851e-01 
       3.181667794071e-01       1.435593255666e-01 
       3.289091877812e-01       1.351815387684e-01 
       3.400460299658e-01       1.261640815719e-01 
       3.515999236474e-01       1.172021439416e-01 
       3.635962711085e-01       1.091766712737e-01 
       3.760637506334e-01       1.023094353019e-01 
       3.890349143879e-01       9.593779445548e-02 
       4.025469216825e-01       8.950762321821e-02 
       4.166424456376e-01       8.311169244988e-02 
       4.313708035863e-01       7.721536726999e-02 
       4.467893782977e-01       7.190056855012e-02 
       4.629654199664e-01       6.686902580546e-02 
       4.799783501994e-01       6.191742242344e-02 
       4.979227319373e-01       5.722235935185e-02 
       5.169121270864e-01       5.290270255978e-02 
       5.370841404489e-01       4.876958049274e-02 
       5.586070464571e-01       4.479075733683e-02 
       5.816885094930e-01       4.105168283548e-02 
       6.065870144995e-01       3.748966312174e-02 
       6.336266468475e-01       3.407604803354e-02 
       6.632156059511e-01       3.083443733533e-02 
       6.958678639263e-01       2.772799131335e-02 
       7.322247985589e-01       2.476689320647e-02 
       7.730680195114e-01       2.193929664744e-02 
       8.193049553677e-01       1.925577402489e-02 
       8.718988016039e-01       1.672891028371e-02 
       9.317218031082e-01       1.438373438570e-02 
       9.993660908989e-01       1.225023421132e-02 
       1.075037110174e+00       1.035204974883e-02 
       1.158653485707e+00       8.699156444633e-03 
       1.250099157308e+00       7.283947159944e-03 
       1.349432401273e+00       6.084731944069e-03 
       1.456947457397e+00       5.074918938755e-03 
       1.573135111331e+00       4.227442969848e-03 
       1.698621895592e+00       3.517582590340e-03 
       1.834127512934e+00       2.923929242841e-03 
       1.980444934528e+00       2.427988176002e-03 
       2.138435191726e+00       2.014229038885e-03 
       2.309029199186e+00       1.669359311213e-03 
       2.493232377687e+00       1.382239882949e-03 
       2.692130395285e+00       1.143434658401e-03 
       2.906895534573e+00       9.449971762822e-04 
       3.138793597714e+00       7.802626865181e-04 
       3.389191366484e+00       6.436067804306e-04 
       3.659564657905e+00       5.303525800613e-04 
       3.951507022538e+00       4.365581481758e-04 
       4.266739136701e+00       3.589330077311e-04 
       4.607118943941e+00       2.947300718233e-04 
       4.974652605557e+00       2.416550560366e-04 
       5.371506324689e+00       1.978059340468e-04 
       5.800019113685e+00       1.615914216638e-04 
       6.262716579983e+00       1.316903237712e-04 
       6.762325811764e+00       1.070100056224e-04 
       7.301791451110e+00       8.664062386772e-05 
       7.884293049406e+00       6.983285604371e-05 
       8.513263807261e+00       5.596649554959e-05 
       9.192410809424e+00       4.453121231779e-05 
       9.925736873929e+00       3.510731313553e-05 
       1.071756414427e+01       2.735130389688e-05 
       1.157255956364e+01       2.098469744264e-05 
       1.249576238137e+01       1.578084362575e-05 
       1.349261385375e+01       1.155768881407e-05 
       1.456898931416e+01       8.169691243483e-06 
       1.573123280165e+01       5.499478739900e-06 
       1.698619445202e+01       3.452754410206e-06 
       1.834127087176e+01       1.950975176587e-06 
       1.980444873285e+01       9.248729427781e-07 
       2.138435184532e+01       3.084569655413e-07 
       2.309029198506e+01       3.312594706181e-08 
       2.493232377636e+01       2.328621358780e-08 
       2.692130395282e+01       1.945646428817e-07 
       2.906895534573e+01       4.557804569692e-07 
       3.138793597714e+01       7.158219806658e-07 
       3.389191366484e+01       8.953098859630e-07 
       3.659564657905e+01       9.414460084417e-07 
       3.951507022538e+01       8.411563360513e-07 
       4.266739136701e+01       6.267049864611e-07 
       4.607118943941e+01       3.673601277366e-07 
       4.974652605557e+01       1.451182983127e-07 
       5.371506324689e+01       2.070346630154e-08 
       5.800019113685e+01       5.305803630357e-09 
       6.262716579983e+01       5.641585947995e-08 
       6.762325811764e+01       1.060349629460e-07 
