# Matter power spectrum P(k) at redshift z=99
# for k=1.04775e-05 to 67.6233 h/Mpc,
# number of wavenumbers equal to 246
#    1:k (h/Mpc)              2:P (Mpc/h)^3        
       1.047750691338e-05       7.261927673119e-03 
       1.131335172818e-05       7.820331745737e-03 
       1.221587619877e-05       8.421675986488e-03 
       1.319039970550e-05       9.069258192194e-03 
       1.424266598317e-05       9.766638404421e-03 
       1.537887697396e-05       1.051764069682e-02 
       1.660572938097e-05       1.132639105520e-02 
       1.793045413791e-05       1.219733231416e-02 
       1.936085902737e-05       1.313524224380e-02 
       2.090537469909e-05       1.414527121893e-02 
       2.257310435923e-05       1.523296272192e-02 
       2.437387742372e-05       1.640429444530e-02 
       2.631830745176e-05       1.766569582177e-02 
       2.841785470091e-05       1.902408601793e-02 
       3.068489367268e-05       2.048692970591e-02 
       3.313278604643e-05       2.206225513594e-02 
       3.577595943165e-05       2.375870704909e-02 
       3.862999240274e-05       2.558560727479e-02 
       4.171170631739e-05       2.755297763344e-02 
       4.503926445983e-05       2.967161927316e-02 
       4.863227909323e-05       3.195316450832e-02 
       5.251192705226e-05       3.441013519284e-02 
       5.670107455699e-05       3.705601722528e-02 
       6.122441198393e-05       3.990533413562e-02 
       6.610859938837e-05       4.297372168203e-02 
       7.138242363583e-05       4.627802141688e-02 
       7.707696806873e-05       4.983636194159e-02 
       8.322579570814e-05       5.366826847231e-02 
       8.986514707061e-05       5.779476394568e-02 
       9.703415376577e-05       6.223848243885e-02 
       1.047750691338e-04       6.702379865640e-02 
       1.131335172818e-04       7.217695153381e-02 
       1.221587619877e-04       7.772619073570e-02 
       1.319039970550e-04       8.370193432376e-02 
       1.424266598317e-04       9.013692507546e-02 
       1.537887697396e-04       9.706641242570e-02 
       1.660572938097e-04       1.045283354271e-01 
       1.793045413791e-04       1.125635349068e-01 
       1.936085902737e-04       1.212159614968e-01 
       2.090537469909e-04       1.305329132714e-01 
       2.257310435923e-04       1.405652846215e-01 
       2.437387742372e-04       1.513678302540e-01 
       2.631830745176e-04       1.629994504871e-01 
       2.841785470091e-04       1.755234921224e-01 
       3.068489367268e-04       1.890080670413e-01 
       3.313278604643e-04       2.035264002435e-01 
       3.577595943165e-04       2.191571803681e-01 
       3.862999240274e-04       2.359849437592e-01 
       4.171170631739e-04       2.541004741539e-01 
       4.503926445983e-04       2.736012080277e-01 
       4.863227909323e-04       2.945916790965e-01 
       5.251192705226e-04       3.171839525182e-01 
       5.670107455699e-04       3.414980764002e-01 
       6.122441198393e-04       3.676625413100e-01 
       6.610859938837e-04       3.958147252303e-01 
       7.138242363583e-04       4.261013284906e-01 
       7.707696806873e-04       4.586787792351e-01 
       8.322579570814e-04       4.937136001352e-01 
       8.986514707061e-04       5.313826801402e-01 
       9.703415376577e-04       5.718734972158e-01 
       1.047750691338e-03       6.153841629505e-01 
       1.131335172818e-03       6.621233239466e-01 
       1.221587619877e-03       7.123098220429e-01 
       1.319039970550e-03       7.661720584469e-01 
       1.424266598317e-03       8.239546297732e-01 
       1.537887697396e-03       8.859011173466e-01 
       1.660572938097e-03       9.522588006420e-01 
       1.793045413791e-03       1.023280099819e+00 
       1.936085902737e-03       1.099216304579e+00 
       2.090537469909e-03       1.180312990453e+00 
       2.257310435923e-03       1.266804115850e+00 
       2.437387742372e-03       1.358904853405e+00 
       2.631830745176e-03       1.456802683156e+00 
       2.841785470091e-03       1.560646890522e+00 
       3.068489367268e-03       1.670536062500e+00 
       3.313278604643e-03       1.786503852159e+00 
       3.577595943165e-03       1.908502930789e+00 
       3.862999240274e-03       2.036387730709e+00 
       4.171170631739e-03       2.169896178831e+00 
       4.503926445983e-03       2.308631878994e+00 
       4.863227909323e-03       2.452047290962e+00 
       5.251192705226e-03       2.599430628088e+00 
       5.670107455699e-03       2.749896931890e+00 
       6.122441198393e-03       2.902386513385e+00 
       6.610859938837e-03       3.055668705888e+00 
       7.138242363583e-03       3.208356461548e+00 
       7.707696806873e-03       3.358923893161e+00 
       8.322579570814e-03       3.505725084340e+00 
       8.986514707061e-03       3.647009252648e+00 
       9.703415376577e-03       3.780923304267e+00 
       1.047750691338e-02       3.905490542483e+00 
       1.131335172818e-02       4.018587811442e+00 
       1.221587619877e-02       4.117901586764e+00 
       1.319039970550e-02       4.200915316254e+00 
       1.424266598317e-02       4.264942417791e+00 
       1.537887697392e-02       4.307216982550e+00 
       1.660572938023e-02       4.325059304335e+00 
       1.793045412706e-02       4.316059062161e+00 
       1.936085890181e-02       4.278229373222e+00 
       2.090537352463e-02       4.210204207159e+00 
       2.257309535333e-02       4.111420367578e+00 
       2.437382002918e-02       3.982419208853e+00 
       2.631799944462e-02       3.825170128099e+00 
       2.841644545389e-02       3.643285889213e+00 
       3.067933355377e-02       3.442197144172e+00 
       3.311368470740e-02       3.229236692350e+00 
       3.571840443502e-02       3.013527388070e+00 
       3.847720348444e-02       2.805284863207e+00 
       4.135335538431e-02       2.614411324847e+00 
       4.429361667738e-02       2.448137261985e+00 
       4.724366439141e-02       2.309240788182e+00 
       5.016480835311e-02       2.196119079988e+00 
       5.303989620246e-02       2.104366271751e+00 
       5.586870669566e-02       2.028463580507e+00 
       5.866042680613e-02       1.963155948317e+00 
       6.142798932958e-02       1.903784506786e+00 
       6.418496440164e-02       1.846483094981e+00 
       6.694418833788e-02       1.788198072117e+00 
       6.971731106057e-02       1.726715916430e+00 
       7.251476155766e-02       1.660654073308e+00 
       7.534587671527e-02       1.589472500890e+00 
       7.821907666265e-02       1.513437217579e+00 
       8.114203772912e-02       1.433566932344e+00 
       8.412184535029e-02       1.351494321192e+00 
       8.716512279304e-02       1.269274121012e+00 
       9.027813695930e-02       1.189193387509e+00 
       9.346688431697e-02       1.113500191944e+00 
       9.673716028276e-02       1.044175679226e+00 
       1.000946150830e-01       9.827068745136e-01 
       1.035447986537e-01       9.299366498039e-01 
       1.070931966762e-01       8.859609076146e-01 
       1.107452594425e-01       8.500704624418e-01 
       1.145064249153e-01       8.208038361425e-01 
       1.183821370918e-01       7.960252715092e-01 
       1.223778605862e-01       7.731453877462e-01 
       1.264990921987e-01       7.494524835204e-01 
       1.307513701367e-01       7.225584320640e-01 
       1.351402814784e-01       6.909086318522e-01 
       1.396714684203e-01       6.541806576815e-01 
       1.443506338194e-01       6.134271282859e-01 
       1.491835465229e-01       5.708679714905e-01 
       1.541760469708e-01       5.293637938725e-01 
       1.593340535561e-01       4.917120002514e-01 
       1.646635702297e-01       4.599204270255e-01 
       1.701706958456e-01       4.347292896187e-01 
       1.758616357459e-01       4.154078403914e-01 
       1.817427160982e-01       3.999367540902e-01 
       1.878204015065e-01       3.856836890395e-01 
       1.941013164283e-01       3.698087782243e-01 
       2.005922709503e-01       3.505458549239e-01 
       2.073002914972e-01       3.280430022008e-01 
       2.142326570816e-01       3.042141365756e-01 
       2.213969417533e-01       2.816123223649e-01 
       2.288010639706e-01       2.622568621385e-01 
       2.364533437147e-01       2.469621407093e-01 
       2.443625682930e-01       2.350135019744e-01 
       2.525380679504e-01       2.244178113379e-01 
       2.609898026346e-01       2.130932984794e-01 
       2.697284615565e-01       2.001014210643e-01 
       2.787655775689e-01       1.860198823109e-01 
       2.881136588829e-01       1.725178680314e-01 
       2.977863412677e-01       1.610661916589e-01 
       3.077985646929e-01       1.517608352037e-01 
       3.181667794071e-01       1.435596894881e-01 
       3.289091877812e-01       1.351815626772e-01 
       3.400460299658e-01       1.261641753416e-01 
       3.515999236474e-01       1.172019446373e-01 
       3.635962711085e-01       1.091771518523e-01 
       3.760637506334e-01       1.023096042494e-01 
       3.890349143879e-01       9.593773329198e-02 
       4.025469216825e-01       8.950759514548e-02 
       4.166424456376e-01       8.311168912716e-02 
       4.313708035863e-01       7.721551278381e-02 
       4.467893782977e-01       7.190063063294e-02 
       4.629654199664e-01       6.686913201518e-02 
       4.799783501994e-01       6.191760605273e-02 
       4.979227319373e-01       5.722227269301e-02 
       5.169121270864e-01       5.290294193580e-02 
       5.370841404489e-01       4.876973426522e-02 
       5.586070464571e-01       4.479085154852e-02 
       5.816885094930e-01       4.105191229935e-02 
       6.065870144995e-01       3.748992847806e-02 
       6.336266468475e-01       3.407636655157e-02 
       6.632156059511e-01       3.083461364398e-02 
       6.958678639263e-01       2.772832207679e-02 
       7.322247985589e-01       2.476712900429e-02 
       7.730680195114e-01       2.193958052424e-02 
       8.193049553677e-01       1.925611322332e-02 
       8.718988016039e-01       1.672928860127e-02 
       9.317218031082e-01       1.438419798921e-02 
       9.993660908989e-01       1.225069054948e-02 
       1.075037110174e+00       1.035263448036e-02 
       1.158653485707e+00       8.699701067741e-03 
       1.250099157308e+00       7.284563001643e-03 
       1.349432401273e+00       6.085448731752e-03 
       1.456947457397e+00       5.075729287680e-03 
       1.573135111331e+00       4.228301576323e-03 
       1.698621895592e+00       3.518542078060e-03 
       1.834127512934e+00       2.924964459613e-03 
       1.980444934528e+00       2.429149954880e-03 
       2.138435191726e+00       2.015499334988e-03 
       2.309029199186e+00       1.670760270330e-03 
       2.493232377687e+00       1.383783003885e-03 
       2.692130395285e+00       1.145116447687e-03 
       2.906895534573e+00       9.468410367488e-04 
       3.138793597714e+00       7.822708544475e-04 
       3.389191366484e+00       6.458054585377e-04 
       3.659564657905e+00       5.327452258713e-04 
       3.951507022538e+00       4.391618399697e-04 
       4.266739136701e+00       3.617634742281e-04 
       4.607118943941e+00       2.977983591166e-04 
       4.974652605557e+00       2.449830827115e-04 
       5.371506324689e+00       2.014020073803e-04 
       5.800019113685e+00       1.654682394453e-04 
       6.262716579983e+00       1.358630566546e-04 
       6.762325811764e+00       1.114845443406e-04 
       7.301791451110e+00       9.142636103018e-05 
       7.884293049406e+00       7.493228397120e-05 
       8.513263807261e+00       6.137788988802e-05 
       9.192410809424e+00       5.024482968804e-05 
       9.925736873929e+00       4.110546336895e-05 
       1.071756414427e+01       3.360779082905e-05 
       1.157255956364e+01       2.745975202912e-05 
       1.249576238137e+01       2.242025210382e-05 
       1.349261385375e+01       1.829154398321e-05 
       1.456898931416e+01       1.491034575653e-05 
       1.573123280165e+01       1.214224021031e-05 
       1.698619445202e+01       9.876774441494e-06 
       1.834127087176e+01       8.023080648596e-06 
       1.980444873285e+01       6.506587045847e-06 
       2.138435184532e+01       5.266115705802e-06 
       2.309029198506e+01       4.251379270449e-06 
       2.493232377636e+01       3.421403644701e-06 
       2.692130395282e+01       2.742490132701e-06 
       2.906895534573e+01       2.187108741693e-06 
       3.138793597714e+01       1.732905292508e-06 
       3.389191366484e+01       1.361592596816e-06 
       3.659564657905e+01       1.058319542673e-06 
       3.951507022538e+01       8.111325522763e-07 
       4.266739136701e+01       6.103593762115e-07 
       4.607118943941e+01       4.482583375071e-07 
       4.974652605557e+01       3.186682441650e-07 
       5.371506324689e+01       2.166644742137e-07 
       5.800019113685e+01       1.383075818211e-07 
       6.262716579983e+01       8.037114968468e-08 
       6.762325811764e+01       4.011375384619e-08 
