# Matter power spectrum P(k) at redshift z=0
# for k=1.04775e-05 to 67.6233 h/Mpc,
# number of wavenumbers equal to 246
#    1:k (h/Mpc)              2:P (Mpc/h)^3        
       1.047750691338e-05       5.020964806751e+01 
       1.131335172818e-05       5.407048206554e+01 
       1.221587619877e-05       5.822819063988e+01 
       1.319039970550e-05       6.270562589686e+01 
       1.424266598317e-05       6.752731788102e+01 
       1.537887697396e-05       7.271977200258e+01 
       1.660572938097e-05       7.831147241542e+01 
       1.793045413791e-05       8.433311815128e+01 
       1.936085902737e-05       9.081778242446e+01 
       2.090537469909e-05       9.780108061340e+01 
       2.257310435923e-05       1.053213197032e+02 
       2.437387742372e-05       1.134197377001e+02 
       2.631830745176e-05       1.221408202816e+02 
       2.841785470091e-05       1.315324720916e+02 
       3.068489367268e-05       1.416462093729e+02 
       3.313278604643e-05       1.525374500691e+02 
       3.577595943165e-05       1.642660687078e+02 
       3.862999240274e-05       1.768963504868e+02 
       4.171170631739e-05       1.904975992460e+02 
       4.503926445983e-05       2.051444490305e+02 
       4.863227909323e-05       2.209171463752e+02 
       5.251192705226e-05       2.379022222313e+02 
       5.670107455699e-05       2.561927925662e+02 
       6.122441198393e-05       2.758890441791e+02 
       6.610859938837e-05       2.970989225465e+02 
       7.138242363583e-05       3.199385558200e+02 
       7.707696806873e-05       3.445329780877e+02 
       8.322579570814e-05       3.710167315928e+02 
       8.986514707061e-05       3.995346440953e+02 
       9.703415376577e-05       4.302425403883e+02 
       1.047750691338e-04       4.633080762974e+02 
       1.131335172818e-04       4.989116267507e+02 
       1.221587619877e-04       5.372471946560e+02 
       1.319039970550e-04       5.785234124634e+02 
       1.424266598317e-04       6.229645930979e+02 
       1.537887697396e-04       6.708118484949e+02 
       1.660572938097e-04       7.223242660217e+02 
       1.793045413791e-04       7.777801552773e+02 
       1.936085902737e-04       8.374783607329e+02 
       2.090537469909e-04       9.017396264491e+02 
       2.257310435923e-04       9.709080260146e+02 
       2.437387742372e-04       1.045352448643e+03 
       2.631830745176e-04       1.125468122835e+03 
       2.841785470091e-04       1.211678179509e+03 
       3.068489367268e-04       1.304435249089e+03 
       3.313278604643e-04       1.404223052539e+03 
       3.577595943165e-04       1.511558013388e+03 
       3.862999240274e-04       1.626990836432e+03 
       4.171170631739e-04       1.751108027367e+03 
       4.503926445983e-04       1.884533381341e+03 
       4.863227909323e-04       2.027929376465e+03 
       5.251192705226e-04       2.181998446360e+03 
       5.670107455699e-04       2.347484100848e+03 
       6.122441198393e-04       2.525171869326e+03 
       6.610859938837e-04       2.715889981386e+03 
       7.138242363583e-04       2.920509686070e+03 
       7.707696806873e-04       3.139945097688e+03 
       8.322579570814e-04       3.375152334367e+03 
       8.986514707061e-04       3.627127828195e+03 
       9.703415376577e-04       3.896905449970e+03 
       1.047750691338e-03       4.185552170917e+03 
       1.131335172818e-03       4.494162426719e+03 
       1.221587619877e-03       4.823850702579e+03 
       1.319039970550e-03       5.175742733791e+03 
       1.424266598317e-03       5.551019592373e+03 
       1.537887697396e-03       5.950788335686e+03 
       1.660572938097e-03       6.376123046516e+03 
       1.793045413791e-03       6.828073895803e+03 
       1.936085902737e-03       7.307625374988e+03 
       2.090537469909e-03       7.815671861861e+03 
       2.257310435923e-03       8.352990368746e+03 
       2.437387742372e-03       8.920211056689e+03 
       2.631830745176e-03       9.517783060833e+03 
       2.841785470091e-03       1.014593703537e+04 
       3.068489367268e-03       1.080464505574e+04 
       3.313278604643e-03       1.149357459244e+04 
       3.577595943165e-03       1.221203620555e+04 
       3.862999240274e-03       1.295892538164e+04 
       4.171170631739e-03       1.373266001913e+04 
       4.503926445983e-03       1.453111834055e+04 
       4.863227909323e-03       1.535154964874e+04 
       5.251192705226e-03       1.619063497638e+04 
       5.670107455699e-03       1.704431248861e+04 
       6.122441198393e-03       1.790756003010e+04 
       6.610859938837e-03       1.877460448046e+04 
       7.138242363583e-03       1.963872613583e+04 
       7.707696806873e-03       2.049215678482e+04 
       8.322579570814e-03       2.132610904812e+04 
       8.986514707061e-03       2.213055948098e+04 
       9.703415376577e-03       2.289442658606e+04 
       1.047750691338e-02       2.360547788700e+04 
       1.131335172818e-02       2.425024374715e+04 
       1.221587619877e-02       2.481422721931e+04 
       1.319039970550e-02       2.528218794703e+04 
       1.424266598317e-02       2.563813562742e+04 
       1.537887697392e-02       2.586611233072e+04 
       1.660572938023e-02       2.595034902099e+04 
       1.793045412706e-02       2.587629624482e+04 
       1.936085890181e-02       2.563216586365e+04 
       2.090537352463e-02       2.520926765357e+04 
       2.257309535333e-02       2.460440859321e+04 
       2.437382002918e-02       2.382083015863e+04 
       2.631799944462e-02       2.287041627831e+04 
       2.841644545389e-02       2.177439031839e+04 
       3.067933355377e-02       2.056550124337e+04 
       3.311368470740e-02       1.928719505147e+04 
       3.571840443502e-02       1.799394350829e+04 
       3.847720348444e-02       1.674677621004e+04 
       4.135335538431e-02       1.560455318352e+04 
       4.429361667738e-02       1.461021876635e+04 
       4.724366439141e-02       1.378043919853e+04 
       5.016480835311e-02       1.310495055731e+04 
       5.303989620246e-02       1.255713660928e+04 
       5.586870669566e-02       1.210425066216e+04 
       5.866042680613e-02       1.171468463500e+04 
       6.142798932958e-02       1.136014120369e+04 
       6.418496440164e-02       1.101861597589e+04 
       6.694418833788e-02       1.067067747091e+04 
       6.971731106057e-02       1.030362613220e+04 
       7.251476155766e-02       9.909050222680e+03 
       7.534587671527e-02       9.483618386845e+03 
       7.821907666265e-02       9.029313692748e+03 
       8.114203772912e-02       8.552127854646e+03 
       8.412184535029e-02       8.061940815294e+03 
       8.716512279304e-02       7.570763520016e+03 
       9.027813695930e-02       7.092475847380e+03 
       9.346688431697e-02       6.640524778541e+03 
       9.673716028276e-02       6.226716696864e+03 
       1.000946150830e-01       5.859936170166e+03 
       1.035447986537e-01       5.545263307222e+03 
       1.070931966762e-01       5.283160291917e+03 
       1.107452594425e-01       5.069441793577e+03 
       1.145064249153e-01       4.895273589049e+03 
       1.183821370918e-01       4.747834756779e+03 
       1.223778605862e-01       4.611709865989e+03 
       1.264990921987e-01       4.470610294286e+03 
       1.307513701367e-01       4.310287150963e+03 
       1.351402814784e-01       4.121396697507e+03 
       1.396714684203e-01       3.902047210916e+03 
       1.443506338194e-01       3.658651038015e+03 
       1.491835465229e-01       3.404462482857e+03 
       1.541760469708e-01       3.156635495664e+03 
       1.593340535561e-01       2.931924947152e+03 
       1.646635702297e-01       2.742352601310e+03 
       1.701706958456e-01       2.592229734497e+03 
       1.758616357459e-01       2.477210122007e+03 
       1.817427160982e-01       2.385151475299e+03 
       1.878204015065e-01       2.300340087966e+03 
       1.941013164283e-01       2.205768638467e+03 
       2.005922709503e-01       2.090837121883e+03 
       2.073002914972e-01       1.956459323454e+03 
       2.142326570816e-01       1.814170490470e+03 
       2.213969417533e-01       1.679262028648e+03 
       2.288010639706e-01       1.563839976554e+03 
       2.364533437147e-01       1.472662303394e+03 
       2.443625682930e-01       1.401504103668e+03 
       2.525380679504e-01       1.338413708141e+03 
       2.609898026346e-01       1.270891821903e+03 
       2.697284615565e-01       1.193350766646e+03 
       2.787655775689e-01       1.109323265833e+03 
       2.881136588829e-01       1.028754632176e+03 
       2.977863412677e-01       9.604644650036e+02 
       3.077985646929e-01       9.050097476593e+02 
       3.181667794071e-01       8.561262818458e+02 
       3.289091877812e-01       8.061702771424e+02 
       3.400460299658e-01       7.523718144319e+02 
       3.515999236474e-01       6.989075840228e+02 
       3.635962711085e-01       6.510456375346e+02 
       3.760637506334e-01       6.101087003748e+02 
       3.890349143879e-01       5.721169749483e+02 
       4.025469216825e-01       5.337642939342e+02 
       4.166424456376e-01       4.956135621255e+02 
       4.313708035863e-01       4.604540730616e+02 
       4.467893782977e-01       4.287575770643e+02 
       4.629654199664e-01       3.987589154504e+02 
       4.799783501994e-01       3.692236085097e+02 
       4.979227319373e-01       3.412257949079e+02 
       5.169121270864e-01       3.154657785482e+02 
       5.370841404489e-01       2.908186969796e+02 
       5.586070464571e-01       2.670899816586e+02 
       5.816885094930e-01       2.447930491320e+02 
       6.065870144995e-01       2.235533387953e+02 
       6.336266468475e-01       2.031961994458e+02 
       6.632156059511e-01       1.838646399224e+02 
       6.958678639263e-01       1.653406675653e+02 
       7.322247985589e-01       1.476812498874e+02 
       7.730680195114e-01       1.308199202201e+02 
       8.193049553677e-01       1.148175913310e+02 
       8.718988016039e-01       9.974852404216e+01 
       9.317218031082e-01       8.576351137369e+01 
       9.993660908989e-01       7.304004970713e+01 
       1.075037110174e+00       6.172124198321e+01 
       1.158653485707e+00       5.186433526543e+01 
       1.250099157308e+00       4.342530208605e+01 
       1.349432401273e+00       3.627471733400e+01 
       1.456947457397e+00       3.025313037861e+01 
       1.573135111331e+00       2.519972346570e+01 
       1.698621895592e+00       2.096706499470e+01 
       1.834127512934e+00       1.742748610036e+01 
       1.980444934528e+00       1.447077753915e+01 
       2.138435191726e+00       1.200396618676e+01 
       2.309029199186e+00       9.948299432799e+00 
       2.493232377687e+00       8.237046563548e+00 
       2.692130395285e+00       6.813861711740e+00 
       2.906895534573e+00       5.631552557483e+00 
       3.138793597714e+00       4.650320229573e+00 
       3.389191366484e+00       3.836640246208e+00 
       3.659564657905e+00       3.162551098979e+00 
       3.951507022538e+00       2.604584873236e+00 
       4.266739136701e+00       2.143149090509e+00 
       4.607118943941e+00       1.761823010614e+00 
       4.974652605557e+00       1.447009777647e+00 
       5.371506324689e+00       1.187241836338e+00 
       5.800019113685e+00       9.730915044727e-01 
       6.262716579983e+00       7.966617876118e-01 
       6.762325811764e+00       6.514185222773e-01 
       7.301791451110e+00       5.319274907999e-01 
       7.884293049406e+00       4.336851639234e-01 
       8.513263807261e+00       3.529737989318e-01 
       9.192410809424e+00       2.866972227436e-01 
       9.925736873929e+00       2.323142543848e-01 
       1.071756414427e+01       1.877183363294e-01 
       1.157255956364e+01       1.511711255546e-01 
       1.249576238137e+01       1.212410978648e-01 
       1.349261385375e+01       9.675122350919e-02 
       1.456898931416e+01       7.673462193551e-02 
       1.573123280165e+01       6.039454199845e-02 
       1.698619445202e+01       4.708102209109e-02 
       1.834127087176e+01       3.626350088818e-02 
       1.980444873285e+01       2.750784991804e-02 
       2.138435184532e+01       2.046354471400e-02 
       2.309029198506e+01       1.484459652448e-02 
       2.493232377636e+01       1.041998496167e-02 
       2.692130395282e+01       7.000967832734e-03 
       2.906895534573e+01       4.431343758751e-03 
       3.138793597714e+01       2.577504602125e-03 
       3.389191366484e+01       1.320123968356e-03 
       3.659564657905e+01       5.466128470470e-04 
       3.951507022538e+01       1.459272807554e-04 
       4.266739136701e+01       6.996572896239e-06 
       4.607118943941e+01       2.211164839112e-05 
       4.974652605557e+01       9.549734972327e-05 
       5.371506324689e+01       1.554255334024e-04 
       5.800019113685e+01       1.651739419178e-04 
       6.262716579983e+01       1.259267817118e-04 
       6.762325811764e+01       6.622189670621e-05 
