# Matter power spectrum P(k) at redshift z=99
# for k=1.04775e-05 to 67.6233 h/Mpc,
# number of wavenumbers equal to 246
#    1:k (h/Mpc)              2:P (Mpc/h)^3        
       1.047750691338e-05       7.261927673119e-03 
       1.131335172818e-05       7.820331745737e-03 
       1.221587619877e-05       8.421675986488e-03 
       1.319039970550e-05       9.069258192194e-03 
       1.424266598317e-05       9.766638404421e-03 
       1.537887697396e-05       1.051764069682e-02 
       1.660572938097e-05       1.132639105520e-02 
       1.793045413791e-05       1.219733231416e-02 
       1.936085902737e-05       1.313524224380e-02 
       2.090537469909e-05       1.414527121893e-02 
       2.257310435923e-05       1.523296272192e-02 
       2.437387742372e-05       1.640429444530e-02 
       2.631830745176e-05       1.766569582178e-02 
       2.841785470091e-05       1.902408601793e-02 
       3.068489367268e-05       2.048692970591e-02 
       3.313278604643e-05       2.206225513594e-02 
       3.577595943165e-05       2.375870704909e-02 
       3.862999240274e-05       2.558560727479e-02 
       4.171170631739e-05       2.755297763344e-02 
       4.503926445983e-05       2.967161927314e-02 
       4.863227909323e-05       3.195316450832e-02 
       5.251192705226e-05       3.441013519284e-02 
       5.670107455699e-05       3.705601722529e-02 
       6.122441198393e-05       3.990533413562e-02 
       6.610859938837e-05       4.297372168203e-02 
       7.138242363583e-05       4.627802141688e-02 
       7.707696806873e-05       4.983636194159e-02 
       8.322579570814e-05       5.366826847231e-02 
       8.986514707061e-05       5.779476394568e-02 
       9.703415376577e-05       6.223848243885e-02 
       1.047750691338e-04       6.702379865640e-02 
       1.131335172818e-04       7.217695153381e-02 
       1.221587619877e-04       7.772619073572e-02 
       1.319039970550e-04       8.370193432376e-02 
       1.424266598317e-04       9.013692507548e-02 
       1.537887697396e-04       9.706641242570e-02 
       1.660572938097e-04       1.045283354271e-01 
       1.793045413791e-04       1.125635349068e-01 
       1.936085902737e-04       1.212159614968e-01 
       2.090537469909e-04       1.305329132714e-01 
       2.257310435923e-04       1.405652846215e-01 
       2.437387742372e-04       1.513678302540e-01 
       2.631830745176e-04       1.629994504870e-01 
       2.841785470091e-04       1.755234921224e-01 
       3.068489367268e-04       1.890080670413e-01 
       3.313278604643e-04       2.035264002435e-01 
       3.577595943165e-04       2.191571803681e-01 
       3.862999240274e-04       2.359849437593e-01 
       4.171170631739e-04       2.541004741539e-01 
       4.503926445983e-04       2.736012080277e-01 
       4.863227909323e-04       2.945916790965e-01 
       5.251192705226e-04       3.171839525182e-01 
       5.670107455699e-04       3.414980764002e-01 
       6.122441198393e-04       3.676625413100e-01 
       6.610859938837e-04       3.958147252304e-01 
       7.138242363583e-04       4.261013284906e-01 
       7.707696806873e-04       4.586787792351e-01 
       8.322579570814e-04       4.937136001375e-01 
       8.986514707061e-04       5.313826801402e-01 
       9.703415376577e-04       5.718734972157e-01 
       1.047750691338e-03       6.153841629505e-01 
       1.131335172818e-03       6.621233239466e-01 
       1.221587619877e-03       7.123098220433e-01 
       1.319039970550e-03       7.661720584404e-01 
       1.424266598317e-03       8.239546297729e-01 
       1.537887697396e-03       8.859011173466e-01 
       1.660572938097e-03       9.522588006421e-01 
       1.793045413791e-03       1.023280099819e+00 
       1.936085902737e-03       1.099216304579e+00 
       2.090537469909e-03       1.180312990453e+00 
       2.257310435923e-03       1.266804115851e+00 
       2.437387742372e-03       1.358904853405e+00 
       2.631830745176e-03       1.456802683156e+00 
       2.841785470091e-03       1.560646890522e+00 
       3.068489367268e-03       1.670536062499e+00 
       3.313278604643e-03       1.786503852162e+00 
       3.577595943165e-03       1.908502930788e+00 
       3.862999240274e-03       2.036387730709e+00 
       4.171170631739e-03       2.169896178306e+00 
       4.503926445983e-03       2.308631878994e+00 
       4.863227909323e-03       2.452047290962e+00 
       5.251192705226e-03       2.599430628087e+00 
       5.670107455699e-03       2.749896931806e+00 
       6.122441198393e-03       2.902386513388e+00 
       6.610859938837e-03       3.055668706680e+00 
       7.138242363583e-03       3.208356461546e+00 
       7.707696806873e-03       3.358923892924e+00 
       8.322579570814e-03       3.505725595299e+00 
       8.986514707061e-03       3.647009531294e+00 
       9.703415376577e-03       3.780923304316e+00 
       1.047750691338e-02       3.905490927011e+00 
       1.131335172818e-02       4.018587641289e+00 
       1.221587619877e-02       4.117901585431e+00 
       1.319039970550e-02       4.200915282303e+00 
       1.424266598317e-02       4.264944327108e+00 
       1.537887697392e-02       4.307220291718e+00 
       1.660572938023e-02       4.325062838326e+00 
       1.793045412706e-02       4.316060102869e+00 
       1.936085890181e-02       4.278227535767e+00 
       2.090537352463e-02       4.210202295421e+00 
       2.257309535333e-02       4.111421922348e+00 
       2.437382002918e-02       3.982421917689e+00 
       2.631799944462e-02       3.825166646651e+00 
       2.841644545389e-02       3.643280838182e+00 
       3.067933355377e-02       3.442194764678e+00 
       3.311368470740e-02       3.229220782050e+00 
       3.571840443502e-02       3.013528072287e+00 
       3.847720348444e-02       2.805282511656e+00 
       4.135335538431e-02       2.614407053419e+00 
       4.429361667738e-02       2.448115978328e+00 
       4.724366439141e-02       2.309240014841e+00 
       5.016480835311e-02       2.196114246267e+00 
       5.303989620246e-02       2.104366104654e+00 
       5.586870669566e-02       2.028461904766e+00 
       5.866042680613e-02       1.963153027642e+00 
       6.142798932958e-02       1.903779490908e+00 
       6.418496440164e-02       1.846478757848e+00 
       6.694418833788e-02       1.788198142509e+00 
       6.971731106057e-02       1.726718086022e+00 
       7.251476155766e-02       1.660655462015e+00 
       7.534587671527e-02       1.589471856848e+00 
       7.821907666265e-02       1.513438863098e+00 
       8.114203772912e-02       1.433569830801e+00 
       8.412184535029e-02       1.351491037519e+00 
       8.716512279304e-02       1.269273523739e+00 
       9.027813695930e-02       1.189192893877e+00 
       9.346688431697e-02       1.113502577109e+00 
       9.673716028276e-02       1.044176390154e+00 
       1.000946150830e-01       9.827074896243e-01 
       1.035447986537e-01       9.299382457401e-01 
       1.070931966762e-01       8.859602594297e-01 
       1.107452594425e-01       8.500711895946e-01 
       1.145064249153e-01       8.208024207964e-01 
       1.183821370918e-01       7.960241382088e-01 
       1.223778605862e-01       7.731463017547e-01 
       1.264990921987e-01       7.494527502186e-01 
       1.307513701367e-01       7.225575112364e-01 
       1.351402814784e-01       6.909093571924e-01 
       1.396714684203e-01       6.541812630557e-01 
       1.443506338194e-01       6.134266758451e-01 
       1.491835465229e-01       5.708693896694e-01 
       1.541760469708e-01       5.293625732408e-01 
       1.593340535561e-01       4.917109783564e-01 
       1.646635702297e-01       4.599200128270e-01 
       1.701706958456e-01       4.347290116814e-01 
       1.758616357459e-01       4.154085951526e-01 
       1.817427160982e-01       3.999370947801e-01 
       1.878204015065e-01       3.856824955188e-01 
       1.941013164283e-01       3.698093522445e-01 
       2.005922709503e-01       3.505465261606e-01 
       2.073002914972e-01       3.280428672145e-01 
       2.142326570816e-01       3.042139466863e-01 
       2.213969417533e-01       2.816118613867e-01 
       2.288010639706e-01       2.622574516558e-01 
       2.364533437147e-01       2.469619646586e-01 
       2.443625682930e-01       2.350128587677e-01 
       2.525380679504e-01       2.244173786220e-01 
       2.609898026346e-01       2.130939860069e-01 
       2.697284615565e-01       2.001012487822e-01 
       2.787655775689e-01       1.860201459852e-01 
       2.881136588829e-01       1.725172411517e-01 
       2.977863412677e-01       1.610663279783e-01 
       3.077985646929e-01       1.517608226708e-01 
       3.181667794071e-01       1.435594031518e-01 
       3.289091877812e-01       1.351816764126e-01 
       3.400460299658e-01       1.261644680780e-01 
       3.515999236474e-01       1.172022105948e-01 
       3.635962711085e-01       1.091770269671e-01 
       3.760637506334e-01       1.023093911014e-01 
       3.890349143879e-01       9.593795978050e-02 
       4.025469216825e-01       8.950774874366e-02 
       4.166424456376e-01       8.311184796483e-02 
       4.313708035863e-01       7.721580851266e-02 
       4.467893782977e-01       7.190080048023e-02 
       4.629654199664e-01       6.686901582014e-02 
       4.799783501994e-01       6.191746299160e-02 
       4.979227319373e-01       5.722226624354e-02 
       5.169121270864e-01       5.290290404955e-02 
       5.370841404489e-01       4.876978098002e-02 
       5.586070464571e-01       4.479080204412e-02 
       5.816885094930e-01       4.105182423145e-02 
       6.065870144995e-01       3.748998501001e-02 
       6.336266468475e-01       3.407632022436e-02 
       6.632156059511e-01       3.083466119093e-02 
       6.958678639263e-01       2.772838898962e-02 
       7.322247985589e-01       2.476706704110e-02 
       7.730680195114e-01       2.193948602249e-02 
       8.193049553677e-01       1.925611850448e-02 
       8.718988016039e-01       1.672924935807e-02 
       9.317218031082e-01       1.438420119800e-02 
       9.993660908989e-01       1.225067366925e-02 
       1.075037110174e+00       1.035260709639e-02 
       1.158653485707e+00       8.699705296868e-03 
       1.250099157308e+00       7.284620652411e-03 
       1.349432401273e+00       6.085448174071e-03 
       1.456947457397e+00       5.075728558822e-03 
       1.573135111331e+00       4.228318054181e-03 
       1.698621895592e+00       3.518545694615e-03 
       1.834127512934e+00       2.924963342438e-03 
       1.980444934528e+00       2.429155846456e-03 
       2.138435191726e+00       2.015514351293e-03 
       2.309029199186e+00       1.670766202662e-03 
       2.493232377687e+00       1.383784023859e-03 
       2.692130395285e+00       1.145125300817e-03 
       2.906895534573e+00       9.468428305757e-04 
       3.138793597714e+00       7.822776866295e-04 
       3.389191366484e+00       6.458106122864e-04 
       3.659564657905e+00       5.327588876087e-04 
       3.951507022538e+00       4.391688203184e-04 
       4.266739136701e+00       3.617708855372e-04 
       4.607118943941e+00       2.978073014108e-04 
       4.974652605557e+00       2.449904611811e-04 
       5.371506324689e+00       2.014110530654e-04 
       5.800019113685e+00       1.654791750959e-04 
       6.262716579983e+00       1.358726660840e-04 
       6.762325811764e+00       1.114972409723e-04 
       7.301791451110e+00       9.143993945780e-05 
       7.884293049406e+00       7.494731483399e-05 
       8.513263807261e+00       6.139373243037e-05 
       9.192410809424e+00       5.026174634889e-05 
       9.925736873929e+00       4.112435570756e-05 
       1.071756414427e+01       3.362857370703e-05 
       1.157255956364e+01       2.748168068342e-05 
       1.249576238137e+01       2.244400879548e-05 
       1.349261385375e+01       1.831740605921e-05 
       1.456898931416e+01       1.493815230721e-05 
       1.573123280165e+01       1.217222619275e-05 
       1.698619445202e+01       9.908978555080e-06 
       1.834127087176e+01       8.057523306943e-06 
       1.980444873285e+01       6.543392407823e-06 
       2.138435184532e+01       5.305296583853e-06 
       2.309029198506e+01       4.292972256994e-06 
       2.493232377636e+01       3.465368397204e-06 
       2.692130395282e+01       2.788729592267e-06 
       2.906895534573e+01       2.235496996522e-06 
       3.138793597714e+01       1.783169253340e-06 
       3.389191366484e+01       1.413374929049e-06 
       3.659564657905e+01       1.111166897352e-06 
       3.951507022538e+01       8.644487295118e-07 
       4.266739136701e+01       6.633595324936e-07 
       4.607118943941e+01       5.000383377920e-07 
       4.974652605557e+01       3.681414132545e-07 
       5.371506324689e+01       2.626052879967e-07 
       5.800019113685e+01       1.794104880080e-07 
       6.262716579983e+01       1.153422578923e-07 
       6.762325811764e+01       6.776843121142e-08 
