# Matter power spectrum P(k) at redshift z=99
# for k=1.04775e-05 to 67.6233 h/Mpc,
# number of wavenumbers equal to 246
#    1:k (h/Mpc)              2:P (Mpc/h)^3        
       1.047750691338e-05       7.261927673119e-03 
       1.131335172818e-05       7.820331745737e-03 
       1.221587619877e-05       8.421675986488e-03 
       1.319039970550e-05       9.069258192194e-03 
       1.424266598317e-05       9.766638404421e-03 
       1.537887697396e-05       1.051764069682e-02 
       1.660572938097e-05       1.132639105520e-02 
       1.793045413791e-05       1.219733231416e-02 
       1.936085902737e-05       1.313524224380e-02 
       2.090537469909e-05       1.414527121893e-02 
       2.257310435923e-05       1.523296272192e-02 
       2.437387742372e-05       1.640429444530e-02 
       2.631830745176e-05       1.766569582178e-02 
       2.841785470091e-05       1.902408601793e-02 
       3.068489367268e-05       2.048692970591e-02 
       3.313278604643e-05       2.206225513594e-02 
       3.577595943165e-05       2.375870704909e-02 
       3.862999240274e-05       2.558560727479e-02 
       4.171170631739e-05       2.755297763344e-02 
       4.503926445983e-05       2.967161927315e-02 
       4.863227909323e-05       3.195316450832e-02 
       5.251192705226e-05       3.441013519284e-02 
       5.670107455699e-05       3.705601722523e-02 
       6.122441198393e-05       3.990533413562e-02 
       6.610859938837e-05       4.297372168203e-02 
       7.138242363583e-05       4.627802141688e-02 
       7.707696806873e-05       4.983636194159e-02 
       8.322579570814e-05       5.366826847231e-02 
       8.986514707061e-05       5.779476394568e-02 
       9.703415376577e-05       6.223848243885e-02 
       1.047750691338e-04       6.702379865640e-02 
       1.131335172818e-04       7.217695153381e-02 
       1.221587619877e-04       7.772619073573e-02 
       1.319039970550e-04       8.370193432376e-02 
       1.424266598317e-04       9.013692507546e-02 
       1.537887697396e-04       9.706641242570e-02 
       1.660572938097e-04       1.045283354271e-01 
       1.793045413791e-04       1.125635349068e-01 
       1.936085902737e-04       1.212159614968e-01 
       2.090537469909e-04       1.305329132714e-01 
       2.257310435923e-04       1.405652846215e-01 
       2.437387742372e-04       1.513678302540e-01 
       2.631830745176e-04       1.629994504870e-01 
       2.841785470091e-04       1.755234921224e-01 
       3.068489367268e-04       1.890080670413e-01 
       3.313278604643e-04       2.035264002435e-01 
       3.577595943165e-04       2.191571803681e-01 
       3.862999240274e-04       2.359849437592e-01 
       4.171170631739e-04       2.541004741539e-01 
       4.503926445983e-04       2.736012080277e-01 
       4.863227909323e-04       2.945916790965e-01 
       5.251192705226e-04       3.171839525182e-01 
       5.670107455699e-04       3.414980764002e-01 
       6.122441198393e-04       3.676625413100e-01 
       6.610859938837e-04       3.958147252304e-01 
       7.138242363583e-04       4.261013284920e-01 
       7.707696806873e-04       4.586787792354e-01 
       8.322579570814e-04       4.937136001345e-01 
       8.986514707061e-04       5.313826801402e-01 
       9.703415376577e-04       5.718734972157e-01 
       1.047750691338e-03       6.153841629505e-01 
       1.131335172818e-03       6.621233239465e-01 
       1.221587619877e-03       7.123098220435e-01 
       1.319039970550e-03       7.661720584602e-01 
       1.424266598317e-03       8.239546297732e-01 
       1.537887697396e-03       8.859011173466e-01 
       1.660572938097e-03       9.522588006421e-01 
       1.793045413791e-03       1.023280099819e+00 
       1.936085902737e-03       1.099216304579e+00 
       2.090537469909e-03       1.180312990453e+00 
       2.257310435923e-03       1.266804115851e+00 
       2.437387742372e-03       1.358904853406e+00 
       2.631830745176e-03       1.456802683156e+00 
       2.841785470091e-03       1.560646890522e+00 
       3.068489367268e-03       1.670536062500e+00 
       3.313278604643e-03       1.786503852163e+00 
       3.577595943165e-03       1.908502930787e+00 
       3.862999240274e-03       2.036387730709e+00 
       4.171170631739e-03       2.169896178430e+00 
       4.503926445983e-03       2.308631878994e+00 
       4.863227909323e-03       2.452047290962e+00 
       5.251192705226e-03       2.599430628088e+00 
       5.670107455699e-03       2.749896931835e+00 
       6.122441198393e-03       2.902386513384e+00 
       6.610859938837e-03       3.055668532468e+00 
       7.138242363583e-03       3.208356461543e+00 
       7.707696806873e-03       3.358923892924e+00 
       8.322579570814e-03       3.505725595286e+00 
       8.986514707061e-03       3.647010047882e+00 
       9.703415376577e-03       3.780923304359e+00 
       1.047750691338e-02       3.905490714993e+00 
       1.131335172818e-02       4.018587641372e+00 
       1.221587619877e-02       4.117901587108e+00 
       1.319039970550e-02       4.200915266999e+00 
       1.424266598317e-02       4.264942350551e+00 
       1.537887697392e-02       4.307217576404e+00 
       1.660572938023e-02       4.325062179581e+00 
       1.793045412706e-02       4.316058751609e+00 
       1.936085890181e-02       4.278231421017e+00 
       2.090537352463e-02       4.210201991823e+00 
       2.257309535333e-02       4.111422637674e+00 
       2.437382002918e-02       3.982418828065e+00 
       2.631799944462e-02       3.825169472531e+00 
       2.841644545389e-02       3.643283561078e+00 
       3.067933355377e-02       3.442194103312e+00 
       3.311368470740e-02       3.229238721469e+00 
       3.571840443502e-02       3.013523666060e+00 
       3.847720348444e-02       2.805289764478e+00 
       4.135335538431e-02       2.614414804186e+00 
       4.429361667738e-02       2.448131634644e+00 
       4.724366439141e-02       2.309234803025e+00 
       5.016480835311e-02       2.196114658022e+00 
       5.303989620246e-02       2.104366130253e+00 
       5.586870669566e-02       2.028464232893e+00 
       5.866042680613e-02       1.963150720900e+00 
       6.142798932958e-02       1.903782094752e+00 
       6.418496440164e-02       1.846480724205e+00 
       6.694418833788e-02       1.788198924264e+00 
       6.971731106057e-02       1.726713387908e+00 
       7.251476155766e-02       1.660655655588e+00 
       7.534587671527e-02       1.589472614188e+00 
       7.821907666265e-02       1.513436324426e+00 
       8.114203772912e-02       1.433569467026e+00 
       8.412184535029e-02       1.351495134186e+00 
       8.716512279304e-02       1.269275036974e+00 
       9.027813695930e-02       1.189193516324e+00 
       9.346688431697e-02       1.113502622882e+00 
       9.673716028276e-02       1.044176254476e+00 
       1.000946150830e-01       9.827061776224e-01 
       1.035447986537e-01       9.299372890704e-01 
       1.070931966762e-01       8.859598185403e-01 
       1.107452594425e-01       8.500700490904e-01 
       1.145064249153e-01       8.208049509232e-01 
       1.183821370918e-01       7.960250521958e-01 
       1.223778605862e-01       7.731474459985e-01 
       1.264990921987e-01       7.494518964931e-01 
       1.307513701367e-01       7.225571297052e-01 
       1.351402814784e-01       6.909086428373e-01 
       1.396714684203e-01       6.541819289657e-01 
       1.443506338194e-01       6.134277857658e-01 
       1.491835465229e-01       5.708677704680e-01 
       1.541760469708e-01       5.293644346119e-01 
       1.593340535561e-01       4.917121685627e-01 
       1.646635702297e-01       4.599201315093e-01 
       1.701706958456e-01       4.347294609535e-01 
       1.758616357459e-01       4.154092984139e-01 
       1.817427160982e-01       3.999377270015e-01 
       1.878204015065e-01       3.856829291697e-01 
       1.941013164283e-01       3.698095208429e-01 
       2.005922709503e-01       3.505464197031e-01 
       2.073002914972e-01       3.280433571052e-01 
       2.142326570816e-01       3.042134738711e-01 
       2.213969417533e-01       2.816130732388e-01 
       2.288010639706e-01       2.622569353429e-01 
       2.364533437147e-01       2.469621282569e-01 
       2.443625682930e-01       2.350129930699e-01 
       2.525380679504e-01       2.244178075533e-01 
       2.609898026346e-01       2.130935264771e-01 
       2.697284615565e-01       2.001015504843e-01 
       2.787655775689e-01       1.860199929086e-01 
       2.881136588829e-01       1.725173342094e-01 
       2.977863412677e-01       1.610664223560e-01 
       3.077985646929e-01       1.517611420131e-01 
       3.181667794071e-01       1.435595106497e-01 
       3.289091877812e-01       1.351811015333e-01 
       3.400460299658e-01       1.261645427622e-01 
       3.515999236474e-01       1.172020890359e-01 
       3.635962711085e-01       1.091768772582e-01 
       3.760637506334e-01       1.023094049057e-01 
       3.890349143879e-01       9.593782661185e-02 
       4.025469216825e-01       8.950782937485e-02 
       4.166424456376e-01       8.311183112666e-02 
       4.313708035863e-01       7.721580499993e-02 
       4.467893782977e-01       7.190087796176e-02 
       4.629654199664e-01       6.686900432434e-02 
       4.799783501994e-01       6.191740007540e-02 
       4.979227319373e-01       5.722220924782e-02 
       5.169121270864e-01       5.290296832324e-02 
       5.370841404489e-01       4.876977076871e-02 
       5.586070464571e-01       4.479087719643e-02 
       5.816885094930e-01       4.105193666961e-02 
       6.065870144995e-01       3.748994610662e-02 
       6.336266468475e-01       3.407627903267e-02 
       6.632156059511e-01       3.083463452759e-02 
       6.958678639263e-01       2.772836783351e-02 
       7.322247985589e-01       2.476712756539e-02 
       7.730680195114e-01       2.193959823748e-02 
       8.193049553677e-01       1.925611211944e-02 
       8.718988016039e-01       1.672926975651e-02 
       9.317218031082e-01       1.438423867161e-02 
       9.993660908989e-01       1.225066086643e-02 
       1.075037110174e+00       1.035263654516e-02 
       1.158653485707e+00       8.699707902291e-03 
       1.250099157308e+00       7.284572536867e-03 
       1.349432401273e+00       6.085474665605e-03 
       1.456947457397e+00       5.075737324416e-03 
       1.573135111331e+00       4.228314609877e-03 
       1.698621895592e+00       3.518564474164e-03 
       1.834127512934e+00       2.924987231806e-03 
       1.980444934528e+00       2.429171376054e-03 
       2.138435191726e+00       2.015520600237e-03 
       2.309029199186e+00       1.670777800603e-03 
       2.493232377687e+00       1.383787387713e-03 
       2.692130395285e+00       1.145129965393e-03 
       2.906895534573e+00       9.468580687331e-04 
       3.138793597714e+00       7.822904788091e-04 
       3.389191366484e+00       6.458208107361e-04 
       3.659564657905e+00       5.327701282084e-04 
       3.951507022538e+00       4.391841490562e-04 
       4.266739136701e+00       3.617881682489e-04 
       4.607118943941e+00       2.978299784294e-04 
       4.974652605557e+00       2.450139638703e-04 
       5.371506324689e+00       2.014377183246e-04 
       5.800019113685e+00       1.655070138352e-04 
       6.262716579983e+00       1.359039403575e-04 
       6.762325811764e+00       1.115299892941e-04 
       7.301791451110e+00       9.147579008485e-05 
       7.884293049406e+00       7.498612530881e-05 
       8.513263807261e+00       6.143649417092e-05 
       9.192410809424e+00       5.030834652275e-05 
       9.925736873929e+00       4.117509080343e-05 
       1.071756414427e+01       3.368346542964e-05 
       1.157255956364e+01       2.754144985625e-05 
       1.249576238137e+01       2.250897754828e-05 
       1.349261385375e+01       1.838750388062e-05 
       1.456898931416e+01       1.501425612433e-05 
       1.573123280165e+01       1.225420886397e-05 
       1.698619445202e+01       9.997579490261e-06 
       1.834127087176e+01       8.153081825105e-06 
       1.980444873285e+01       6.646236582520e-06 
       2.138435184532e+01       5.415710267598e-06 
       2.309029198506e+01       4.411303084696e-06 
       2.493232377636e+01       3.591857563691e-06 
       2.692130395282e+01       2.923549402633e-06 
       2.906895534573e+01       2.378726324356e-06 
       3.138793597714e+01       1.934780000166e-06 
       3.389191366484e+01       1.573110150754e-06 
       3.659564657905e+01       1.278608784914e-06 
       3.951507022538e+01       1.038926859188e-06 
       4.266739136701e+01       8.438619158138e-07 
       4.607118943941e+01       6.852159569789e-07 
       4.974652605557e+01       5.562023421313e-07 
       5.371506324689e+01       4.513401828089e-07 
       5.800019113685e+01       3.661299044491e-07 
       6.262716579983e+01       2.969104550362e-07 
       6.762325811764e+01       2.407055096115e-07 
