# Matter power spectrum P(k) at redshift z=99
# for k=1.04775e-05 to 67.6233 h/Mpc,
# number of wavenumbers equal to 246
#    1:k (h/Mpc)              2:P (Mpc/h)^3        
       1.047750691338e-05       7.261927673120e-03 
       1.131335172818e-05       7.820331745738e-03 
       1.221587619877e-05       8.421675986489e-03 
       1.319039970550e-05       9.069258192195e-03 
       1.424266598317e-05       9.766638404422e-03 
       1.537887697396e-05       1.051764069682e-02 
       1.660572938097e-05       1.132639105520e-02 
       1.793045413791e-05       1.219733231417e-02 
       1.936085902737e-05       1.313524224381e-02 
       2.090537469909e-05       1.414527121893e-02 
       2.257310435923e-05       1.523296272192e-02 
       2.437387742372e-05       1.640429444530e-02 
       2.631830745176e-05       1.766569582178e-02 
       2.841785470091e-05       1.902408601793e-02 
       3.068489367268e-05       2.048692970592e-02 
       3.313278604643e-05       2.206225513594e-02 
       3.577595943165e-05       2.375870704909e-02 
       3.862999240274e-05       2.558560727479e-02 
       4.171170631739e-05       2.755297763344e-02 
       4.503926445983e-05       2.967161927315e-02 
       4.863227909323e-05       3.195316450832e-02 
       5.251192705226e-05       3.441013519285e-02 
       5.670107455699e-05       3.705601722527e-02 
       6.122441198393e-05       3.990533413562e-02 
       6.610859938837e-05       4.297372168203e-02 
       7.138242363583e-05       4.627802141689e-02 
       7.707696806873e-05       4.983636194159e-02 
       8.322579570814e-05       5.366826847232e-02 
       8.986514707061e-05       5.779476394569e-02 
       9.703415376577e-05       6.223848243885e-02 
       1.047750691338e-04       6.702379865640e-02 
       1.131335172818e-04       7.217695153381e-02 
       1.221587619877e-04       7.772619073573e-02 
       1.319039970550e-04       8.370193432377e-02 
       1.424266598317e-04       9.013692507548e-02 
       1.537887697396e-04       9.706641242571e-02 
       1.660572938097e-04       1.045283354272e-01 
       1.793045413791e-04       1.125635349068e-01 
       1.936085902737e-04       1.212159614968e-01 
       2.090537469909e-04       1.305329132715e-01 
       2.257310435923e-04       1.405652846215e-01 
       2.437387742372e-04       1.513678302540e-01 
       2.631830745176e-04       1.629994504871e-01 
       2.841785470091e-04       1.755234921225e-01 
       3.068489367268e-04       1.890080670413e-01 
       3.313278604643e-04       2.035264002435e-01 
       3.577595943165e-04       2.191571803681e-01 
       3.862999240274e-04       2.359849437593e-01 
       4.171170631739e-04       2.541004741539e-01 
       4.503926445983e-04       2.736012080278e-01 
       4.863227909323e-04       2.945916790965e-01 
       5.251192705226e-04       3.171839525183e-01 
       5.670107455699e-04       3.414980764002e-01 
       6.122441198393e-04       3.676625413101e-01 
       6.610859938837e-04       3.958147252304e-01 
       7.138242363583e-04       4.261013284925e-01 
       7.707696806873e-04       4.586787792354e-01 
       8.322579570814e-04       4.937136001350e-01 
       8.986514707061e-04       5.313826801402e-01 
       9.703415376577e-04       5.718734972158e-01 
       1.047750691338e-03       6.153841629506e-01 
       1.131335172818e-03       6.621233239466e-01 
       1.221587619877e-03       7.123098220424e-01 
       1.319039970550e-03       7.661720584111e-01 
       1.424266598317e-03       8.239546297729e-01 
       1.537887697396e-03       8.859011173466e-01 
       1.660572938097e-03       9.522588006425e-01 
       1.793045413791e-03       1.023280099819e+00 
       1.936085902737e-03       1.099216304579e+00 
       2.090537469909e-03       1.180312990453e+00 
       2.257310435923e-03       1.266804115850e+00 
       2.437387742372e-03       1.358904853405e+00 
       2.631830745176e-03       1.456802683156e+00 
       2.841785470091e-03       1.560646890521e+00 
       3.068489367268e-03       1.670536062499e+00 
       3.313278604643e-03       1.786503852156e+00 
       3.577595943165e-03       1.908502930786e+00 
       3.862999240274e-03       2.036387730707e+00 
       4.171170631739e-03       2.169896177657e+00 
       4.503926445983e-03       2.308631878991e+00 
       4.863227909323e-03       2.452047290958e+00 
       5.251192705226e-03       2.599430628082e+00 
       5.670107455699e-03       2.749896931807e+00 
       6.122441198393e-03       2.902386513375e+00 
       6.610859938837e-03       3.055668703056e+00 
       7.138242363583e-03       3.208356461527e+00 
       7.707696806873e-03       3.358923893279e+00 
       8.322579570814e-03       3.505725595032e+00 
       8.986514707061e-03       3.647009659648e+00 
       9.703415376577e-03       3.780923304143e+00 
       1.047750691338e-02       3.905490843486e+00 
       1.131335172818e-02       4.018588040196e+00 
       1.221587619877e-02       4.117901588168e+00 
       1.319039970550e-02       4.200915331267e+00 
       1.424266598317e-02       4.264942397073e+00 
       1.537887697392e-02       4.307220311458e+00 
       1.660572938023e-02       4.325060393369e+00 
       1.793045412706e-02       4.316057841434e+00 
       1.936085890181e-02       4.278230086144e+00 
       2.090537352463e-02       4.210203134892e+00 
       2.257309535333e-02       4.111416844212e+00 
       2.437382002918e-02       3.982426242227e+00 
       2.631799944462e-02       3.825169159430e+00 
       2.841644545389e-02       3.643281224870e+00 
       3.067933355377e-02       3.442195771165e+00 
       3.311368470740e-02       3.229242735083e+00 
       3.571840443502e-02       3.013513478205e+00 
       3.847720348444e-02       2.805278596165e+00 
       4.135335538431e-02       2.614415289376e+00 
       4.429361667738e-02       2.448138013180e+00 
       4.724366439141e-02       2.309237891786e+00 
       5.016480835311e-02       2.196113736772e+00 
       5.303989620246e-02       2.104368106732e+00 
       5.586870669566e-02       2.028463136642e+00 
       5.866042680613e-02       1.963147683825e+00 
       6.142798932958e-02       1.903783949267e+00 
       6.418496440164e-02       1.846476805977e+00 
       6.694418833788e-02       1.788196914868e+00 
       6.971731106057e-02       1.726717938371e+00 
       7.251476155766e-02       1.660653735987e+00 
       7.534587671527e-02       1.589467385307e+00 
       7.821907666265e-02       1.513436436253e+00 
       8.114203772912e-02       1.433567895738e+00 
       8.412184535029e-02       1.351489451302e+00 
       8.716512279304e-02       1.269271120733e+00 
       9.027813695930e-02       1.189192070498e+00 
       9.346688431697e-02       1.113497647718e+00 
       9.673716028276e-02       1.044171125668e+00 
       1.000946150830e-01       9.827026292326e-01 
       1.035447986537e-01       9.299350096229e-01 
       1.070931966762e-01       8.859578065565e-01 
       1.107452594425e-01       8.500655419852e-01 
       1.145064249153e-01       8.207992176402e-01 
       1.183821370918e-01       7.960177324001e-01 
       1.223778605862e-01       7.731407179785e-01 
       1.264990921987e-01       7.494461744282e-01 
       1.307513701367e-01       7.225490024706e-01 
       1.351402814784e-01       6.909012612498e-01 
       1.396714684203e-01       6.541720586063e-01 
       1.443506338194e-01       6.134164818746e-01 
       1.491835465229e-01       5.708584906107e-01 
       1.541760469708e-01       5.293529655650e-01 
       1.593340535561e-01       4.917011953588e-01 
       1.646635702297e-01       4.599078729806e-01 
       1.701706958456e-01       4.347165805243e-01 
       1.758616357459e-01       4.153958211296e-01 
       1.817427160982e-01       3.999232077792e-01 
       1.878204015065e-01       3.856679744676e-01 
       1.941013164283e-01       3.697926613344e-01 
       2.005922709503e-01       3.505295269308e-01 
       2.073002914972e-01       3.280262239110e-01 
       2.142326570816e-01       3.041948510273e-01 
       2.213969417533e-01       2.815927967874e-01 
       2.288010639706e-01       2.622361275510e-01 
       2.364533437147e-01       2.469396723646e-01 
       2.443625682930e-01       2.349892993700e-01 
       2.525380679504e-01       2.243921366686e-01 
       2.609898026346e-01       2.130675903295e-01 
       2.697284615565e-01       2.000736702077e-01 
       2.787655775689e-01       1.859896499331e-01 
       2.881136588829e-01       1.724858290362e-01 
       2.977863412677e-01       1.610332857725e-01 
       3.077985646929e-01       1.517266177545e-01 
       3.181667794071e-01       1.435226972752e-01 
       3.289091877812e-01       1.351427678869e-01 
       3.400460299658e-01       1.261232477239e-01 
       3.515999236474e-01       1.171591946417e-01 
       3.635962711085e-01       1.091315560608e-01 
       3.760637506334e-01       1.022622620798e-01 
       3.890349143879e-01       9.588720110876e-02 
       4.025469216825e-01       8.945508555458e-02 
       4.166424456376e-01       8.305604630232e-02 
       4.313708035863e-01       7.715674115132e-02 
       4.467893782977e-01       7.183896866146e-02 
       4.629654199664e-01       6.680400378872e-02 
       4.799783501994e-01       6.184885702855e-02 
       4.979227319373e-01       5.715001879988e-02 
       5.169121270864e-01       5.282679482404e-02 
       5.370841404489e-01       4.868925210283e-02 
       5.586070464571e-01       4.470571263523e-02 
       5.816885094930e-01       4.096173157884e-02 
       6.065870144995e-01       3.739443787278e-02 
       6.336266468475e-01       3.397491008823e-02 
       6.632156059511e-01       3.072676492624e-02 
       6.958678639263e-01       2.761337974283e-02 
       7.322247985589e-01       2.464417171711e-02 
       7.730680195114e-01       2.180768141545e-02 
       8.193049553677e-01       1.911397477580e-02 
       8.718988016039e-01       1.657553594059e-02 
       9.317218031082e-01       1.421733232591e-02 
       9.993660908989e-01       1.206897072013e-02 
       1.075037110174e+00       1.015463592203e-02 
       1.158653485707e+00       8.484044095404e-03 
       1.250099157308e+00       7.049951998405e-03 
       1.349432401273e+00       5.830889679543e-03 
       1.456947457397e+00       4.800423973376e-03 
       1.573135111331e+00       3.931755950193e-03 
       1.698621895592e+00       3.200497998337e-03 
       1.834127512934e+00       2.585614647032e-03 
       1.980444934528e+00       2.069157506158e-03 
       2.138435191726e+00       1.636158050339e-03 
       2.309029199186e+00       1.274173506087e-03 
       2.493232377687e+00       9.729397123188e-04 
       2.692130395285e+00       7.240752192597e-04 
       2.906895534573e+00       5.207880090301e-04 
       3.138793597714e+00       3.576054238732e-04 
       3.389191366484e+00       2.300467926765e-04 
       3.659564657905e+00       1.343467458198e-04 
       3.951507022538e+00       6.709724543357e-05 
       4.266739136701e+00       2.491573593033e-05 
       4.607118943941e+00       4.112046430253e-06 
       4.974652605557e+00       4.231857024679e-07 
       5.371506324689e+00       8.893060217984e-06 
       5.800019113685e+00       2.398360368352e-05 
       6.262716579983e+00       3.999670509938e-05 
       6.762325811764e+00       5.180437699876e-05 
       7.301791451110e+00       5.580634115966e-05 
       7.884293049406e+00       5.082132222311e-05 
       8.513263807261e+00       3.852213860407e-05 
       9.192410809424e+00       2.301080406947e-05 
       9.925736873929e+00       9.353932829752e-06 
       1.071756414427e+01       1.461648168666e-06 
       1.157255956364e+01       2.456500918213e-07 
       1.249576238137e+01       3.246525882859e-06 
       1.349261385375e+01       6.307659032153e-06 
       1.456898931416e+01       6.448164919724e-06 
       1.573123280165e+01       3.820499788237e-06 
       1.698619445202e+01       9.712852918206e-07 
       1.834127087176e+01       1.014655937115e-09 
       1.980444873285e+01       5.760196069508e-07 
       2.138435184532e+01       9.692818601704e-07 
       2.309029198506e+01       5.191949197290e-07 
       2.493232377636e+01       4.030446020689e-08 
       2.692130395282e+01       5.948438483703e-08 
       2.906895534573e+01       1.447704004806e-07 
       3.138793597714e+01       4.632201663534e-08 
       3.389191366484e+01       1.382685599723e-09 
       3.659564657905e+01       2.249905350492e-08 
       3.951507022538e+01       6.363076577250e-09 
       4.266739136701e+01       1.076060008916e-09 
       4.607118943941e+01       2.859261301677e-09 
       4.974652605557e+01       3.445117737139e-12 
       5.371506324689e+01       5.478038383146e-10 
       5.800019113685e+01       8.652278403686e-12 
       6.262716579983e+01       7.921098488461e-11 
       6.762325811764e+01       4.689929372580e-13 
