# Matter power spectrum P(k) at redshift z=99
# for k=1.04775e-05 to 67.6233 h/Mpc,
# number of wavenumbers equal to 246
#    1:k (h/Mpc)              2:P (Mpc/h)^3        
       1.047750691338e-05       7.261927673119e-03 
       1.131335172818e-05       7.820331745737e-03 
       1.221587619877e-05       8.421675986489e-03 
       1.319039970550e-05       9.069258192194e-03 
       1.424266598317e-05       9.766638404421e-03 
       1.537887697396e-05       1.051764069681e-02 
       1.660572938097e-05       1.132639105520e-02 
       1.793045413791e-05       1.219733231416e-02 
       1.936085902737e-05       1.313524224380e-02 
       2.090537469909e-05       1.414527121893e-02 
       2.257310435923e-05       1.523296272192e-02 
       2.437387742372e-05       1.640429444530e-02 
       2.631830745176e-05       1.766569582177e-02 
       2.841785470091e-05       1.902408601793e-02 
       3.068489367268e-05       2.048692970591e-02 
       3.313278604643e-05       2.206225513594e-02 
       3.577595943165e-05       2.375870704909e-02 
       3.862999240274e-05       2.558560727479e-02 
       4.171170631739e-05       2.755297763344e-02 
       4.503926445983e-05       2.967161927316e-02 
       4.863227909323e-05       3.195316450832e-02 
       5.251192705226e-05       3.441013519284e-02 
       5.670107455699e-05       3.705601722527e-02 
       6.122441198393e-05       3.990533413564e-02 
       6.610859938837e-05       4.297372168203e-02 
       7.138242363583e-05       4.627802141688e-02 
       7.707696806873e-05       4.983636194159e-02 
       8.322579570814e-05       5.366826847231e-02 
       8.986514707061e-05       5.779476394568e-02 
       9.703415376577e-05       6.223848243885e-02 
       1.047750691338e-04       6.702379865640e-02 
       1.131335172818e-04       7.217695153381e-02 
       1.221587619877e-04       7.772619073574e-02 
       1.319039970550e-04       8.370193432377e-02 
       1.424266598317e-04       9.013692507548e-02 
       1.537887697396e-04       9.706641242570e-02 
       1.660572938097e-04       1.045283354271e-01 
       1.793045413791e-04       1.125635349068e-01 
       1.936085902737e-04       1.212159614968e-01 
       2.090537469909e-04       1.305329132714e-01 
       2.257310435923e-04       1.405652846215e-01 
       2.437387742372e-04       1.513678302540e-01 
       2.631830745176e-04       1.629994504870e-01 
       2.841785470091e-04       1.755234921224e-01 
       3.068489367268e-04       1.890080670413e-01 
       3.313278604643e-04       2.035264002435e-01 
       3.577595943165e-04       2.191571803681e-01 
       3.862999240274e-04       2.359849437591e-01 
       4.171170631739e-04       2.541004741539e-01 
       4.503926445983e-04       2.736012080278e-01 
       4.863227909323e-04       2.945916790965e-01 
       5.251192705226e-04       3.171839525182e-01 
       5.670107455699e-04       3.414980764002e-01 
       6.122441198393e-04       3.676625413100e-01 
       6.610859938837e-04       3.958147252304e-01 
       7.138242363583e-04       4.261013284914e-01 
       7.707696806873e-04       4.586787792351e-01 
       8.322579570814e-04       4.937136001355e-01 
       8.986514707061e-04       5.313826801402e-01 
       9.703415376577e-04       5.718734972158e-01 
       1.047750691338e-03       6.153841629505e-01 
       1.131335172818e-03       6.621233239466e-01 
       1.221587619877e-03       7.123098220426e-01 
       1.319039970550e-03       7.661720584633e-01 
       1.424266598317e-03       8.239546297732e-01 
       1.537887697396e-03       8.859011173466e-01 
       1.660572938097e-03       9.522588006419e-01 
       1.793045413791e-03       1.023280099819e+00 
       1.936085902737e-03       1.099216304579e+00 
       2.090537469909e-03       1.180312990453e+00 
       2.257310435923e-03       1.266804115853e+00 
       2.437387742372e-03       1.358904853406e+00 
       2.631830745176e-03       1.456802683156e+00 
       2.841785470091e-03       1.560646890522e+00 
       3.068489367268e-03       1.670536062498e+00 
       3.313278604643e-03       1.786503852155e+00 
       3.577595943165e-03       1.908502930789e+00 
       3.862999240274e-03       2.036387730709e+00 
       4.171170631739e-03       2.169896178291e+00 
       4.503926445983e-03       2.308631878994e+00 
       4.863227909323e-03       2.452047290962e+00 
       5.251192705226e-03       2.599430628088e+00 
       5.670107455699e-03       2.749896931878e+00 
       6.122441198393e-03       2.902386513382e+00 
       6.610859938837e-03       3.055668706581e+00 
       7.138242363583e-03       3.208356461545e+00 
       7.707696806873e-03       3.358923892098e+00 
       8.322579570814e-03       3.505725594935e+00 
       8.986514707061e-03       3.647009539782e+00 
       9.703415376577e-03       3.780923304287e+00 
       1.047750691338e-02       3.905491139954e+00 
       1.131335172818e-02       4.018588039601e+00 
       1.221587619877e-02       4.117901584088e+00 
       1.319039970550e-02       4.200915346552e+00 
       1.424266598317e-02       4.264942958934e+00 
       1.537887697392e-02       4.307216726919e+00 
       1.660572938023e-02       4.325062054229e+00 
       1.793045412706e-02       4.316060484528e+00 
       1.936085890181e-02       4.278226544393e+00 
       2.090537352463e-02       4.210201617982e+00 
       2.257309535333e-02       4.111418748792e+00 
       2.437382002918e-02       3.982422055407e+00 
       2.631799944462e-02       3.825168164266e+00 
       2.841644545389e-02       3.643287540804e+00 
       3.067933355377e-02       3.442199090032e+00 
       3.311368470740e-02       3.229237665793e+00 
       3.571840443502e-02       3.013509241791e+00 
       3.847720348444e-02       2.805281401099e+00 
       4.135335538431e-02       2.614408970108e+00 
       4.429361667738e-02       2.448133788114e+00 
       4.724366439141e-02       2.309241745267e+00 
       5.016480835311e-02       2.196115456306e+00 
       5.303989620246e-02       2.104366509914e+00 
       5.586870669566e-02       2.028461064592e+00 
       5.866042680613e-02       1.963153089141e+00 
       6.142798932958e-02       1.903781814852e+00 
       6.418496440164e-02       1.846480358723e+00 
       6.694418833788e-02       1.788197638868e+00 
       6.971731106057e-02       1.726716513911e+00 
       7.251476155766e-02       1.660655279366e+00 
       7.534587671527e-02       1.589473231433e+00 
       7.821907666265e-02       1.513440651324e+00 
       8.114203772912e-02       1.433571652314e+00 
       8.412184535029e-02       1.351490737611e+00 
       8.716512279304e-02       1.269273749751e+00 
       9.027813695930e-02       1.189191055983e+00 
       9.346688431697e-02       1.113502911092e+00 
       9.673716028276e-02       1.044175369767e+00 
       1.000946150830e-01       9.827068993938e-01 
       1.035447986537e-01       9.299381586884e-01 
       1.070931966762e-01       8.859590772617e-01 
       1.107452594425e-01       8.500715038264e-01 
       1.145064249153e-01       8.208036643309e-01 
       1.183821370918e-01       7.960259615939e-01 
       1.223778605862e-01       7.731478858792e-01 
       1.264990921987e-01       7.494515923398e-01 
       1.307513701367e-01       7.225581848006e-01 
       1.351402814784e-01       6.909083541217e-01 
       1.396714684203e-01       6.541822465740e-01 
       1.443506338194e-01       6.134269203179e-01 
       1.491835465229e-01       5.708669697621e-01 
       1.541760469708e-01       5.293635859638e-01 
       1.593340535561e-01       4.917111217800e-01 
       1.646635702297e-01       4.599198686714e-01 
       1.701706958456e-01       4.347292662124e-01 
       1.758616357459e-01       4.154087073662e-01 
       1.817427160982e-01       3.999371286127e-01 
       1.878204015065e-01       3.856830856017e-01 
       1.941013164283e-01       3.698090381025e-01 
       2.005922709503e-01       3.505461283256e-01 
       2.073002914972e-01       3.280440930026e-01 
       2.142326570816e-01       3.042138652280e-01 
       2.213969417533e-01       2.816129043804e-01 
       2.288010639706e-01       2.622575867594e-01 
       2.364533437147e-01       2.469622504061e-01 
       2.443625682930e-01       2.350123747085e-01 
       2.525380679504e-01       2.244176924027e-01 
       2.609898026346e-01       2.130937129144e-01 
       2.697284615565e-01       2.001017292218e-01 
       2.787655775689e-01       1.860198638065e-01 
       2.881136588829e-01       1.725176042456e-01 
       2.977863412677e-01       1.610662673947e-01 
       3.077985646929e-01       1.517610158853e-01 
       3.181667794071e-01       1.435596928595e-01 
       3.289091877812e-01       1.351813552214e-01 
       3.400460299658e-01       1.261642231569e-01 
       3.515999236474e-01       1.172019807672e-01 
       3.635962711085e-01       1.091767192434e-01 
       3.760637506334e-01       1.023094213324e-01 
       3.890349143879e-01       9.593776331614e-02 
       4.025469216825e-01       8.950782038734e-02 
       4.166424456376e-01       8.311176033434e-02 
       4.313708035863e-01       7.721574339090e-02 
       4.467893782977e-01       7.190079405299e-02 
       4.629654199664e-01       6.686896734889e-02 
       4.799783501994e-01       6.191767557306e-02 
       4.979227319373e-01       5.722221436878e-02 
       5.169121270864e-01       5.290286850147e-02 
       5.370841404489e-01       4.876980875865e-02 
       5.586070464571e-01       4.479107116696e-02 
       5.816885094930e-01       4.105194005490e-02 
       6.065870144995e-01       3.749007372635e-02 
       6.336266468475e-01       3.407628117830e-02 
       6.632156059511e-01       3.083457474103e-02 
       6.958678639263e-01       2.772836241818e-02 
       7.322247985589e-01       2.476716513553e-02 
       7.730680195114e-01       2.193959261654e-02 
       8.193049553677e-01       1.925606345433e-02 
       8.718988016039e-01       1.672928787773e-02 
       9.317218031082e-01       1.438426075160e-02 
       9.993660908989e-01       1.225069342852e-02 
       1.075037110174e+00       1.035259894401e-02 
       1.158653485707e+00       8.699704862095e-03 
       1.250099157308e+00       7.284601829948e-03 
       1.349432401273e+00       6.085469624361e-03 
       1.456947457397e+00       5.075716920711e-03 
       1.573135111331e+00       4.228296681119e-03 
       1.698621895592e+00       3.518553583635e-03 
       1.834127512934e+00       2.924995553928e-03 
       1.980444934528e+00       2.429161801519e-03 
       2.138435191726e+00       2.015510089108e-03 
       2.309029199186e+00       1.670775073632e-03 
       2.493232377687e+00       1.383790503858e-03 
       2.692130395285e+00       1.145128602445e-03 
       2.906895534573e+00       9.468592090145e-04 
       3.138793597714e+00       7.822885876547e-04 
       3.389191366484e+00       6.458239199148e-04 
       3.659564657905e+00       5.327705088725e-04 
       3.951507022538e+00       4.391867253904e-04 
       4.266739136701e+00       3.617888815806e-04 
       4.607118943941e+00       2.978280192107e-04 
       4.974652605557e+00       2.450135685823e-04 
       5.371506324689e+00       2.014360718215e-04 
       5.800019113685e+00       1.655067647711e-04 
       6.262716579983e+00       1.359036685879e-04 
       6.762325811764e+00       1.115298488991e-04 
       7.301791451110e+00       9.147538842851e-05 
       7.884293049406e+00       7.498591730694e-05 
       8.513263807261e+00       6.143520173186e-05 
       9.192410809424e+00       5.030770417788e-05 
       9.925736873929e+00       4.117445819707e-05 
       1.071756414427e+01       3.368249682830e-05 
       1.157255956364e+01       2.754052711544e-05 
       1.249576238137e+01       2.250796098805e-05 
       1.349261385375e+01       1.838671257847e-05 
       1.456898931416e+01       1.501325418425e-05 
       1.573123280165e+01       1.225334532276e-05 
       1.698619445202e+01       9.996541130757e-06 
       1.834127087176e+01       8.151900745103e-06 
       1.980444873285e+01       6.644922563664e-06 
       2.138435184532e+01       5.414319194983e-06 
       2.309029198506e+01       4.409810564836e-06 
       2.493232377636e+01       3.590227539983e-06 
       2.692130395282e+01       2.921774892186e-06 
       2.906895534573e+01       2.376834665093e-06 
       3.138793597714e+01       1.932709094196e-06 
       3.389191366484e+01       1.570860777005e-06 
       3.659564657905e+01       1.276215524726e-06 
       3.951507022538e+01       1.036314355614e-06 
       4.266739136701e+01       8.410494874437e-07 
       4.607118943941e+01       6.821743587954e-07 
       4.974652605557e+01       5.529378486922e-07 
       5.371506324689e+01       4.478281494215e-07 
       5.800019113685e+01       3.623573946375e-07 
       6.262716579983e+01       2.928674579715e-07 
       6.762325811764e+01       2.363738276562e-07 
