# Matter power spectrum P(k) at redshift z=99
# for k=1.04775e-05 to 67.6233 h/Mpc,
# number of wavenumbers equal to 246
#    1:k (h/Mpc)              2:P (Mpc/h)^3        
       1.047750691338e-05       7.261927673143e-03 
       1.131335172818e-05       7.820331745763e-03 
       1.221587619877e-05       8.421675986516e-03 
       1.319039970550e-05       9.069258192225e-03 
       1.424266598317e-05       9.766638404454e-03 
       1.537887697396e-05       1.051764069685e-02 
       1.660572938097e-05       1.132639105523e-02 
       1.793045413791e-05       1.219733231421e-02 
       1.936085902737e-05       1.313524224385e-02 
       2.090537469909e-05       1.414527121898e-02 
       2.257310435923e-05       1.523296272197e-02 
       2.437387742372e-05       1.640429444535e-02 
       2.631830745176e-05       1.766569582183e-02 
       2.841785470091e-05       1.902408601799e-02 
       3.068489367268e-05       2.048692970598e-02 
       3.313278604643e-05       2.206225513601e-02 
       3.577595943165e-05       2.375870704917e-02 
       3.862999240274e-05       2.558560727487e-02 
       4.171170631739e-05       2.755297763353e-02 
       4.503926445983e-05       2.967161927326e-02 
       4.863227909323e-05       3.195316450843e-02 
       5.251192705226e-05       3.441013519296e-02 
       5.670107455699e-05       3.705601722541e-02 
       6.122441198393e-05       3.990533413573e-02 
       6.610859938837e-05       4.297372168217e-02 
       7.138242363583e-05       4.627802141704e-02 
       7.707696806873e-05       4.983636194176e-02 
       8.322579570814e-05       5.366826847249e-02 
       8.986514707061e-05       5.779476394588e-02 
       9.703415376577e-05       6.223848243906e-02 
       1.047750691338e-04       6.702379865662e-02 
       1.131335172818e-04       7.217695153405e-02 
       1.221587619877e-04       7.772619073598e-02 
       1.319039970550e-04       8.370193432404e-02 
       1.424266598317e-04       9.013692507578e-02 
       1.537887697396e-04       9.706641242603e-02 
       1.660572938097e-04       1.045283354275e-01 
       1.793045413791e-04       1.125635349072e-01 
       1.936085902737e-04       1.212159614972e-01 
       2.090537469909e-04       1.305329132719e-01 
       2.257310435923e-04       1.405652846219e-01 
       2.437387742372e-04       1.513678302545e-01 
       2.631830745176e-04       1.629994504876e-01 
       2.841785470091e-04       1.755234921230e-01 
       3.068489367268e-04       1.890080670419e-01 
       3.313278604643e-04       2.035264002442e-01 
       3.577595943165e-04       2.191571803688e-01 
       3.862999240274e-04       2.359849437600e-01 
       4.171170631739e-04       2.541004741547e-01 
       4.503926445983e-04       2.736012080286e-01 
       4.863227909323e-04       2.945916790974e-01 
       5.251192705226e-04       3.171839525192e-01 
       5.670107455699e-04       3.414980764012e-01 
       6.122441198393e-04       3.676625413111e-01 
       6.610859938837e-04       3.958147252314e-01 
       7.138242363583e-04       4.261013284928e-01 
       7.707696806873e-04       4.586787792363e-01 
       8.322579570814e-04       4.937136001376e-01 
       8.986514707061e-04       5.313826801413e-01 
       9.703415376577e-04       5.718734972169e-01 
       1.047750691338e-03       6.153841629514e-01 
       1.131335172818e-03       6.621233239475e-01 
       1.221587619877e-03       7.123098220441e-01 
       1.319039970550e-03       7.661720584758e-01 
       1.424266598317e-03       8.239546297732e-01 
       1.537887697396e-03       8.859011173464e-01 
       1.660572938097e-03       9.522588006355e-01 
       1.793045413791e-03       1.023280099818e+00 
       1.936085902737e-03       1.099216304576e+00 
       2.090537469909e-03       1.180312990449e+00 
       2.257310435923e-03       1.266804115845e+00 
       2.437387742372e-03       1.358904853394e+00 
       2.631830745176e-03       1.456802683143e+00 
       2.841785470091e-03       1.560646890504e+00 
       3.068489367268e-03       1.670536062476e+00 
       3.313278604643e-03       1.786503852128e+00 
       3.577595943165e-03       1.908502930748e+00 
       3.862999240274e-03       2.036387730656e+00 
       4.171170631739e-03       2.169896178605e+00 
       4.503926445983e-03       2.308631878907e+00 
       4.863227909323e-03       2.452047290851e+00 
       5.251192705226e-03       2.599430627947e+00 
       5.670107455699e-03       2.749896931639e+00 
       6.122441198393e-03       2.902386513162e+00 
       6.610859938837e-03       3.055668711671e+00 
       7.138242363583e-03       3.208356461197e+00 
       7.707696806873e-03       3.358923892468e+00 
       8.322579570814e-03       3.505725594620e+00 
       8.986514707061e-03       3.647009741966e+00 
       9.703415376577e-03       3.780923303463e+00 
       1.047750691338e-02       3.905490293597e+00 
       1.131335172818e-02       4.018587639660e+00 
       1.221587619877e-02       4.117901583286e+00 
       1.319039970550e-02       4.200915282605e+00 
       1.424266598317e-02       4.264942394167e+00 
       1.537887697392e-02       4.307219279210e+00 
       1.660572938023e-02       4.325059757828e+00 
       1.793045412706e-02       4.316057036259e+00 
       1.936085890181e-02       4.278230139154e+00 
       2.090537352463e-02       4.210203161342e+00 
       2.257309535333e-02       4.111420648459e+00 
       2.437382002918e-02       3.982430993009e+00 
       2.631799944462e-02       3.825165361244e+00 
       2.841644545389e-02       3.643279381787e+00 
       3.067933355377e-02       3.442194949132e+00 
       3.311368470740e-02       3.229235083382e+00 
       3.571840443502e-02       3.013511250123e+00 
       3.847720348444e-02       2.805287201289e+00 
       4.135335538431e-02       2.614417844927e+00 
       4.429361667738e-02       2.448131821708e+00 
       4.724366439141e-02       2.309239564580e+00 
       5.016480835311e-02       2.196117986811e+00 
       5.303989620246e-02       2.104366947275e+00 
       5.586870669566e-02       2.028465728325e+00 
       5.866042680613e-02       1.963147437157e+00 
       6.142798932958e-02       1.903781504310e+00 
       6.418496440164e-02       1.846476586769e+00 
       6.694418833788e-02       1.788198388047e+00 
       6.971731106057e-02       1.726715792257e+00 
       7.251476155766e-02       1.660652650185e+00 
       7.534587671527e-02       1.589471268145e+00 
       7.821907666265e-02       1.513438448750e+00 
       8.114203772912e-02       1.433568381151e+00 
       8.412184535029e-02       1.351492367990e+00 
       8.716512279304e-02       1.269274941966e+00 
       9.027813695930e-02       1.189195061706e+00 
       9.346688431697e-02       1.113502559488e+00 
       9.673716028276e-02       1.044175639299e+00 
       1.000946150830e-01       9.827071900042e-01 
       1.035447986537e-01       9.299376745075e-01 
       1.070931966762e-01       8.859597784796e-01 
       1.107452594425e-01       8.500707314259e-01 
       1.145064249153e-01       8.208035089229e-01 
       1.183821370918e-01       7.960240269218e-01 
       1.223778605862e-01       7.731462635011e-01 
       1.264990921987e-01       7.494519260286e-01 
       1.307513701367e-01       7.225582330168e-01 
       1.351402814784e-01       6.909100932040e-01 
       1.396714684203e-01       6.541823425672e-01 
       1.443506338194e-01       6.134274079456e-01 
       1.491835465229e-01       5.708688598447e-01 
       1.541760469708e-01       5.293633717598e-01 
       1.593340535561e-01       4.917118155233e-01 
       1.646635702297e-01       4.599192413217e-01 
       1.701706958456e-01       4.347274035333e-01 
       1.758616357459e-01       4.154076864155e-01 
       1.817427160982e-01       3.999356570022e-01 
       1.878204015065e-01       3.856868593677e-01 
       1.941013164283e-01       3.698140832870e-01 
       2.005922709503e-01       3.505513938473e-01 
       2.073002914972e-01       3.280469545278e-01 
       2.142326570816e-01       3.042136626145e-01 
       2.213969417533e-01       2.816117553375e-01 
       2.288010639706e-01       2.622565574736e-01 
       2.364533437147e-01       2.469613816698e-01 
       2.443625682930e-01       2.350121321455e-01 
       2.525380679504e-01       2.244204784265e-01 
       2.609898026346e-01       2.130959442417e-01 
       2.697284615565e-01       2.001019149561e-01 
       2.787655775689e-01       1.860197012991e-01 
       2.881136588829e-01       1.725172999113e-01 
       2.977863412677e-01       1.610655947138e-01 
       3.077985646929e-01       1.517602621048e-01 
       3.181667794071e-01       1.435589052853e-01 
       3.289091877812e-01       1.351813914692e-01 
       3.400460299658e-01       1.261641804974e-01 
       3.515999236474e-01       1.172020108058e-01 
       3.635962711085e-01       1.091764768688e-01 
       3.760637506334e-01       1.023090213227e-01 
       3.890349143879e-01       9.593761666006e-02 
       4.025469216825e-01       8.950758629557e-02 
       4.166424456376e-01       8.311152624824e-02 
       4.313708035863e-01       7.721516733560e-02 
       4.467893782977e-01       7.190032492659e-02 
       4.629654199664e-01       6.686878660283e-02 
       4.799783501994e-01       6.191717996772e-02 
       4.979227319373e-01       5.722208265408e-02 
       5.169121270864e-01       5.290256879027e-02 
       5.370841404489e-01       4.876959863861e-02 
       5.586070464571e-01       4.479058536690e-02 
       5.816885094930e-01       4.105158581865e-02 
       6.065870144995e-01       3.748954158345e-02 
       6.336266468475e-01       3.407598891915e-02 
       6.632156059511e-01       3.083437365868e-02 
       6.958678639263e-01       2.772805339937e-02 
       7.322247985589e-01       2.476687518783e-02 
       7.730680195114e-01       2.193926135447e-02 
       8.193049553677e-01       1.925579797849e-02 
       8.718988016039e-01       1.672896330657e-02 
       9.317218031082e-01       1.438395902763e-02 
       9.993660908989e-01       1.225037336957e-02 
       1.075037110174e+00       1.035237225769e-02 
       1.158653485707e+00       8.699418758567e-03 
       1.250099157308e+00       7.284312646080e-03 
       1.349432401273e+00       6.085167796532e-03 
       1.456947457397e+00       5.075439008821e-03 
       1.573135111331e+00       4.228033960560e-03 
       1.698621895592e+00       3.518279854576e-03 
       1.834127512934e+00       2.924695554217e-03 
       1.980444934528e+00       2.428880037651e-03 
       2.138435191726e+00       2.015222167105e-03 
       2.309029199186e+00       1.670498514821e-03 
       2.493232377687e+00       1.383523694197e-03 
       2.692130395285e+00       1.144854125646e-03 
       2.906895534573e+00       9.465842742018e-04 
       3.138793597714e+00       7.820152719198e-04 
       3.389191366484e+00       6.455576484155e-04 
       3.659564657905e+00       5.325085041589e-04 
       3.951507022538e+00       4.389248738550e-04 
       4.266739136701e+00       3.615330515516e-04 
       4.607118943941e+00       2.975762661209e-04 
       4.974652605557e+00       2.447652531700e-04 
       5.371506324689e+00       2.011921270589e-04 
       5.800019113685e+00       1.652672819011e-04 
       6.262716579983e+00       1.356674254012e-04 
       6.762325811764e+00       1.112990221063e-04 
       7.301791451110e+00       9.124993240487e-05 
       7.884293049406e+00       7.476433751342e-05 
       8.513263807261e+00       6.121912169734e-05 
       9.192410809424e+00       5.009625507348e-05 
       9.925736873929e+00       4.096795941302e-05 
       1.071756414427e+01       3.348117258150e-05 
       1.157255956364e+01       2.734415050705e-05 
       1.249576238137e+01       2.231667223239e-05 
       1.349261385375e+01       1.820031911863e-05 
       1.456898931416e+01       1.483194104121e-05 
       1.573123280165e+01       1.207717068346e-05 
       1.698619445202e+01       9.825468464451e-06 
       1.834127087176e+01       7.985985345250e-06 
       1.980444873285e+01       6.484127965937e-06 
       2.138435184532e+01       5.258626434708e-06 
       2.309029198506e+01       4.259242259034e-06 
       2.493232377636e+01       3.444773928543e-06 
       2.692130395282e+01       2.781423618264e-06 
       2.906895534573e+01       2.241559869661e-06 
       3.138793597714e+01       1.802534622546e-06 
       3.389191366484e+01       1.445823907457e-06 
       3.659564657905e+01       1.156304837858e-06 
       3.951507022538e+01       9.215365781035e-07 
       4.266739136701e+01       7.314710996112e-07 
       4.607118943941e+01       5.778127231161e-07 
       4.974652605557e+01       4.538456685318e-07 
       5.371506324689e+01       3.540598639042e-07 
       5.800019113685e+01       2.739862564482e-07 
       6.262716579983e+01       2.099679868426e-07 
       6.762325811764e+01       1.590304839329e-07 
