# Matter power spectrum P(k) at redshift z=0
# for k=1.04775e-05 to 67.6233 h/Mpc,
# number of wavenumbers equal to 246
#    1:k (h/Mpc)              2:P (Mpc/h)^3        
       1.047750691338e-05       5.020964806751e+01 
       1.131335172818e-05       5.407048206554e+01 
       1.221587619877e-05       5.822819063878e+01 
       1.319039970550e-05       6.270562589680e+01 
       1.424266598317e-05       6.752731788102e+01 
       1.537887697396e-05       7.271977200257e+01 
       1.660572938097e-05       7.831147241542e+01 
       1.793045413791e-05       8.433311815128e+01 
       1.936085902737e-05       9.081778242446e+01 
       2.090537469909e-05       9.780108061340e+01 
       2.257310435923e-05       1.053213197032e+02 
       2.437387742372e-05       1.134197377001e+02 
       2.631830745176e-05       1.221408202816e+02 
       2.841785470091e-05       1.315324720916e+02 
       3.068489367268e-05       1.416462093729e+02 
       3.313278604643e-05       1.525374500691e+02 
       3.577595943165e-05       1.642660687078e+02 
       3.862999240274e-05       1.768963504868e+02 
       4.171170631739e-05       1.904975992460e+02 
       4.503926445983e-05       2.051444490305e+02 
       4.863227909323e-05       2.209171463752e+02 
       5.251192705226e-05       2.379022222314e+02 
       5.670107455699e-05       2.561927925523e+02 
       6.122441198393e-05       2.758890441791e+02 
       6.610859938837e-05       2.970989225465e+02 
       7.138242363583e-05       3.199385558200e+02 
       7.707696806873e-05       3.445329780878e+02 
       8.322579570814e-05       3.710167315928e+02 
       8.986514707061e-05       3.995346440954e+02 
       9.703415376577e-05       4.302425403884e+02 
       1.047750691338e-04       4.633080762974e+02 
       1.131335172818e-04       4.989116267507e+02 
       1.221587619877e-04       5.372471946561e+02 
       1.319039970550e-04       5.785234124630e+02 
       1.424266598317e-04       6.229645929806e+02 
       1.537887697396e-04       6.708118484951e+02 
       1.660572938097e-04       7.223242660220e+02 
       1.793045413791e-04       7.777801553889e+02 
       1.936085902737e-04       8.374783607333e+02 
       2.090537469909e-04       9.017396264495e+02 
       2.257310435923e-04       9.709080260152e+02 
       2.437387742372e-04       1.045352448644e+03 
       2.631830745176e-04       1.125468122835e+03 
       2.841785470091e-04       1.211678179511e+03 
       3.068489367268e-04       1.304435249091e+03 
       3.313278604643e-04       1.404223052541e+03 
       3.577595943165e-04       1.511558013390e+03 
       3.862999240274e-04       1.626990836503e+03 
       4.171170631739e-04       1.751108027370e+03 
       4.503926445983e-04       1.884533381345e+03 
       4.863227909323e-04       2.027929376470e+03 
       5.251192705226e-04       2.181998446368e+03 
       5.670107455699e-04       2.347484100857e+03 
       6.122441198393e-04       2.525171869336e+03 
       6.610859938837e-04       2.715889981401e+03 
       7.138242363583e-04       2.920509686081e+03 
       7.707696806873e-04       3.139945097710e+03 
       8.322579570814e-04       3.375152334394e+03 
       8.986514707061e-04       3.627127828231e+03 
       9.703415376577e-04       3.896905450016e+03 
       1.047750691338e-03       4.185552170957e+03 
       1.131335172818e-03       4.494162426791e+03 
       1.221587619877e-03       4.823850702670e+03 
       1.319039970550e-03       5.175742738900e+03 
       1.424266598317e-03       5.551019592523e+03 
       1.537887697396e-03       5.950788335876e+03 
       1.660572938097e-03       6.376123046804e+03 
       1.793045413791e-03       6.828073896120e+03 
       1.936085902737e-03       7.307625375387e+03 
       2.090537469909e-03       7.815671898157e+03 
       2.257310435923e-03       8.352990369400e+03 
       2.437387742372e-03       8.920211057538e+03 
       2.631830745176e-03       9.517783061890e+03 
       2.841785470091e-03       1.014593703671e+04 
       3.068489367268e-03       1.080464505757e+04 
       3.313278604643e-03       1.149357459438e+04 
       3.577595943165e-03       1.221203620826e+04 
       3.862999240274e-03       1.295892538505e+04 
       4.171170631739e-03       1.373266001365e+04 
       4.503926445983e-03       1.453111834595e+04 
       4.863227909323e-03       1.535154984225e+04 
       5.251192705226e-03       1.619063613421e+04 
       5.670107455699e-03       1.704431256561e+04 
       6.122441198393e-03       1.790755938455e+04 
       6.610859938837e-03       1.877460419091e+04 
       7.138242363583e-03       1.963872429123e+04 
       7.707696806873e-03       2.049215713613e+04 
       8.322579570814e-03       2.132607151880e+04 
       8.986514707061e-03       2.213055012973e+04 
       9.703415376577e-03       2.289445470903e+04 
       1.047750691338e-02       2.360548434758e+04 
       1.131335172818e-02       2.425023397120e+04 
       1.221587619877e-02       2.481423921281e+04 
       1.319039970550e-02       2.528218613860e+04 
       1.424266598317e-02       2.563813869501e+04 
       1.537887697392e-02       2.586606076896e+04 
       1.660572938023e-02       2.595027592649e+04 
       1.793045412706e-02       2.587634797027e+04 
       1.936085890181e-02       2.563221641052e+04 
       2.090537352463e-02       2.520933739966e+04 
       2.257309535333e-02       2.460446563266e+04 
       2.437382002918e-02       2.382089672484e+04 
       2.631799944462e-02       2.287043176845e+04 
       2.841644545389e-02       2.177449966548e+04 
       3.067933355377e-02       2.056551323911e+04 
       3.311368470740e-02       1.928729719916e+04 
       3.571840443502e-02       1.799401089824e+04 
       3.847720348444e-02       1.674683162614e+04 
       4.135335538431e-02       1.560456198421e+04 
       4.429361667738e-02       1.461040292120e+04 
       4.724366439141e-02       1.378054966815e+04 
       5.016480835311e-02       1.310509531972e+04 
       5.303989620246e-02       1.255717154012e+04 
       5.586870669566e-02       1.210423408873e+04 
       5.866042680613e-02       1.171465713660e+04 
       6.142798932958e-02       1.136047009245e+04 
       6.418496440164e-02       1.101855862073e+04 
       6.694418833788e-02       1.067066335036e+04 
       6.971731106057e-02       1.030356638928e+04 
       7.251476155766e-02       9.908999808092e+03 
       7.534587671527e-02       9.483782397052e+03 
       7.821907666265e-02       9.029506634594e+03 
       8.114203772912e-02       8.552332340701e+03 
       8.412184535029e-02       8.061922957369e+03 
       8.716512279304e-02       7.570772470561e+03 
       9.027813695930e-02       7.092485057763e+03 
       9.346688431697e-02       6.640521725102e+03 
       9.673716028276e-02       6.226701316012e+03 
       1.000946150830e-01       5.859914586283e+03 
       1.035447986537e-01       5.545252536002e+03 
       1.070931966762e-01       5.283140999173e+03 
       1.107452594425e-01       5.069412940916e+03 
       1.145064249153e-01       4.895264061669e+03 
       1.183821370918e-01       4.747843498463e+03 
       1.223778605862e-01       4.611730100845e+03 
       1.264990921987e-01       4.470609564424e+03 
       1.307513701367e-01       4.310266440584e+03 
       1.351402814784e-01       4.121375327599e+03 
       1.396714684203e-01       3.902060615279e+03 
       1.443506338194e-01       3.658658131660e+03 
       1.491835465229e-01       3.404489838060e+03 
       1.541760469708e-01       3.156677575728e+03 
       1.593340535561e-01       2.931976722955e+03 
       1.646635702297e-01       2.742367685981e+03 
       1.701706958456e-01       2.592256807304e+03 
       1.758616357459e-01       2.477241274058e+03 
       1.817427160982e-01       2.385182923233e+03 
       1.878204015065e-01       2.300360090729e+03 
       1.941013164283e-01       2.205764242628e+03 
       2.005922709503e-01       2.090823974457e+03 
       2.073002914972e-01       1.956464832694e+03 
       2.142326570816e-01       1.814191617592e+03 
       2.213969417533e-01       1.679296976774e+03 
       2.288010639706e-01       1.563849607594e+03 
       2.364533437147e-01       1.472685585333e+03 
       2.443625682930e-01       1.401513204678e+03 
       2.525380679504e-01       1.338412112605e+03 
       2.609898026346e-01       1.270903474875e+03 
       2.697284615565e-01       1.193385057959e+03 
       2.787655775689e-01       1.109339937530e+03 
       2.881136588829e-01       1.028767176822e+03 
       2.977863412677e-01       9.604807003367e+02 
       3.077985646929e-01       9.050234237012e+02 
       3.181667794071e-01       8.561459396953e+02 
       3.289091877812e-01       8.061894658585e+02 
       3.400460299658e-01       7.523917837264e+02 
       3.515999236474e-01       6.989237876212e+02 
       3.635962711085e-01       6.510613973171e+02 
       3.760637506334e-01       6.101229047760e+02 
       3.890349143879e-01       5.721328666459e+02 
       4.025469216825e-01       5.337827788861e+02 
       4.166424456376e-01       4.956299371237e+02 
       4.313708035863e-01       4.604679008491e+02 
       4.467893782977e-01       4.287767553962e+02 
       4.629654199664e-01       3.987731990318e+02 
       4.799783501994e-01       3.692413060367e+02 
       4.979227319373e-01       3.412405003585e+02 
       5.169121270864e-01       3.154837469340e+02 
       5.370841404489e-01       2.908351278545e+02 
       5.586070464571e-01       2.671057995673e+02 
       5.816885094930e-01       2.448094890697e+02 
       6.065870144995e-01       2.235676668430e+02 
       6.336266468475e-01       2.032092494191e+02 
       6.632156059511e-01       1.838785830757e+02 
       6.958678639263e-01       1.653547756066e+02 
       7.322247985589e-01       1.476957447844e+02 
       7.730680195114e-01       1.308337443619e+02 
       8.193049553677e-01       1.148309567783e+02 
       8.718988016039e-01       9.976248701300e+01 
       9.317218031082e-01       8.577766680246e+01 
       9.993660908989e-01       7.305469234672e+01 
       1.075037110174e+00       6.173602407565e+01 
       1.158653485707e+00       5.187910890666e+01 
       1.250099157308e+00       4.344036597147e+01 
       1.349432401273e+00       3.628937957047e+01 
       1.456947457397e+00       3.026782726935e+01 
       1.573135111331e+00       2.521443698658e+01 
       1.698621895592e+00       2.098205733623e+01 
       1.834127512934e+00       1.744236605099e+01 
       1.980444934528e+00       1.448571342391e+01 
       2.138435191726e+00       1.201894848053e+01 
       2.309029199186e+00       9.963177646357e+00 
       2.493232377687e+00       8.251831263170e+00 
       2.692130395285e+00       6.828623941078e+00 
       2.906895534573e+00       5.646218254550e+00 
       3.138793597714e+00       4.664851773614e+00 
       3.389191366484e+00       3.851083886525e+00 
       3.659564657905e+00       3.176886094299e+00 
       3.951507022538e+00       2.618840233918e+00 
       4.266739136701e+00       2.157283325711e+00 
       4.607118943941e+00       1.775861094835e+00 
       4.974652605557e+00       1.460929125242e+00 
       5.371506324689e+00       1.201057113345e+00 
       5.800019113685e+00       9.867862751727e-01 
       6.262716579983e+00       8.102550992055e-01 
       6.762325811764e+00       6.649018749308e-01 
       7.301791451110e+00       5.453105778260e-01 
       7.884293049406e+00       4.469668334928e-01 
       8.513263807261e+00       3.661568022313e-01 
       9.192410809424e+00       2.997856691521e-01 
       9.925736873929e+00       2.453112297987e-01 
       1.071756414427e+01       2.006230588180e-01 
       1.157255956364e+01       1.639825758817e-01 
       1.249576238137e+01       1.339576156179e-01 
       1.349261385375e+01       1.093645529396e-01 
       1.456898931416e+01       8.923127422921e-02 
       1.573123280165e+01       7.275486208957e-02 
       1.698619445202e+01       5.927584893589e-02 
       1.834127087176e+01       4.825411148024e-02 
       1.980444873285e+01       3.924440781742e-02 
       2.138435184532e+01       3.188091848992e-02 
       2.309029198506e+01       2.586478677516e-02 
       2.493232377636e+01       2.094984686436e-02 
       2.692130395282e+01       1.693496667487e-02 
       2.906895534573e+01       1.365567053838e-02 
       3.138793597714e+01       1.097700721354e-02 
       3.389191366484e+01       8.788910187215e-03 
       3.659564657905e+01       7.001656487783e-03 
       3.951507022538e+01       5.541931040167e-03 
       4.266739136701e+01       4.350341493489e-03 
       4.607118943941e+01       3.378498644700e-03 
       4.974652605557e+01       2.587564631022e-03 
       5.371506324689e+01       1.946136821832e-03 
       5.800019113685e+01       1.428985935769e-03 
       6.262716579983e+01       1.016124851626e-03 
       6.762325811764e+01       6.915082044280e-04 
