# Matter power spectrum P(k) at redshift z=0
# for k=1.04775e-05 to 67.6233 h/Mpc,
# number of wavenumbers equal to 246
#    1:k (h/Mpc)              2:P (Mpc/h)^3        
       1.047750691338e-05       5.020964806748e+01 
       1.131335172818e-05       5.407048206553e+01 
       1.221587619877e-05       5.822819064051e+01 
       1.319039970550e-05       6.270562589682e+01 
       1.424266598317e-05       6.752731788102e+01 
       1.537887697396e-05       7.271977200258e+01 
       1.660572938097e-05       7.831147241542e+01 
       1.793045413791e-05       8.433311815128e+01 
       1.936085902737e-05       9.081778242446e+01 
       2.090537469909e-05       9.780108061340e+01 
       2.257310435923e-05       1.053213197032e+02 
       2.437387742372e-05       1.134197377001e+02 
       2.631830745176e-05       1.221408202816e+02 
       2.841785470091e-05       1.315324720916e+02 
       3.068489367268e-05       1.416462093731e+02 
       3.313278604643e-05       1.525374500691e+02 
       3.577595943165e-05       1.642660687078e+02 
       3.862999240274e-05       1.768963504868e+02 
       4.171170631739e-05       1.904975992460e+02 
       4.503926445983e-05       2.051444490305e+02 
       4.863227909323e-05       2.209171463752e+02 
       5.251192705226e-05       2.379022222313e+02 
       5.670107455699e-05       2.561927925594e+02 
       6.122441198393e-05       2.758890441791e+02 
       6.610859938837e-05       2.970989225466e+02 
       7.138242363583e-05       3.199385558199e+02 
       7.707696806873e-05       3.445329780877e+02 
       8.322579570814e-05       3.710167315928e+02 
       8.986514707061e-05       3.995346440953e+02 
       9.703415376577e-05       4.302425403883e+02 
       1.047750691338e-04       4.633080762973e+02 
       1.131335172818e-04       4.989116267506e+02 
       1.221587619877e-04       5.372471946559e+02 
       1.319039970550e-04       5.785234124638e+02 
       1.424266598317e-04       6.229645930978e+02 
       1.537887697396e-04       6.708118484948e+02 
       1.660572938097e-04       7.223242660216e+02 
       1.793045413791e-04       7.777801551037e+02 
       1.936085902737e-04       8.374783607328e+02 
       2.090537469909e-04       9.017396264488e+02 
       2.257310435923e-04       9.709080260143e+02 
       2.437387742372e-04       1.045352448643e+03 
       2.631830745176e-04       1.125468122834e+03 
       2.841785470091e-04       1.211678179509e+03 
       3.068489367268e-04       1.304435249089e+03 
       3.313278604643e-04       1.404223052538e+03 
       3.577595943165e-04       1.511558013386e+03 
       3.862999240274e-04       1.626990836486e+03 
       4.171170631739e-04       1.751108027365e+03 
       4.503926445983e-04       1.884533381339e+03 
       4.863227909323e-04       2.027929376461e+03 
       5.251192705226e-04       2.181998446356e+03 
       5.670107455699e-04       2.347484100843e+03 
       6.122441198393e-04       2.525171869320e+03 
       6.610859938837e-04       2.715889981379e+03 
       7.138242363583e-04       2.920509686056e+03 
       7.707696806873e-04       3.139945097676e+03 
       8.322579570814e-04       3.375152334351e+03 
       8.986514707061e-04       3.627127828176e+03 
       9.703415376577e-04       3.896905449947e+03 
       1.047750691338e-03       4.185552170877e+03 
       1.131335172818e-03       4.494162426682e+03 
       1.221587619877e-03       4.823850702527e+03 
       1.319039970550e-03       5.175742738128e+03 
       1.424266598317e-03       5.551019592323e+03 
       1.537887697396e-03       5.950788335592e+03 
       1.660572938097e-03       6.376123046474e+03 
       1.793045413791e-03       6.828073895651e+03 
       1.936085902737e-03       7.307625374781e+03 
       2.090537469909e-03       7.815671859197e+03 
       2.257310435923e-03       8.352990368400e+03 
       2.437387742372e-03       8.920211056283e+03 
       2.631830745176e-03       9.517783060284e+03 
       2.841785470091e-03       1.014593703467e+04 
       3.068489367268e-03       1.080464505472e+04 
       3.313278604643e-03       1.149357459217e+04 
       3.577595943165e-03       1.221203620414e+04 
       3.862999240274e-03       1.295892537986e+04 
       4.171170631739e-03       1.373266000447e+04 
       4.503926445983e-03       1.453111833776e+04 
       4.863227909323e-03       1.535154954804e+04 
       5.251192705226e-03       1.619063436308e+04 
       5.670107455699e-03       1.704431243557e+04 
       6.122441198393e-03       1.790756034987e+04 
       6.610859938837e-03       1.877460467203e+04 
       7.138242363583e-03       1.963872685333e+04 
       7.707696806873e-03       2.049215641031e+04 
       8.322579570814e-03       2.132610951034e+04 
       8.986514707061e-03       2.213055931245e+04 
       9.703415376577e-03       2.289441884849e+04 
       1.047750691338e-02       2.360547283665e+04 
       1.131335172818e-02       2.425024018270e+04 
       1.221587619877e-02       2.481419468504e+04 
       1.319039970550e-02       2.528217278999e+04 
       1.424266598317e-02       2.563813001190e+04 
       1.537887697392e-02       2.586610614421e+04 
       1.660572938023e-02       2.595024638697e+04 
       1.793045412706e-02       2.587627562759e+04 
       1.936085890181e-02       2.563215753399e+04 
       2.090537352463e-02       2.520927589299e+04 
       2.257309535333e-02       2.460437581658e+04 
       2.437382002918e-02       2.382080511921e+04 
       2.631799944462e-02       2.287022195054e+04 
       2.841644545389e-02       2.177443041885e+04 
       3.067933355377e-02       2.056540720649e+04 
       3.311368470740e-02       1.928713733779e+04 
       3.571840443502e-02       1.799386154630e+04 
       3.847720348444e-02       1.674675257801e+04 
       4.135335538431e-02       1.560454929563e+04 
       4.429361667738e-02       1.461019126147e+04 
       4.724366439141e-02       1.378050429817e+04 
       5.016480835311e-02       1.310497547651e+04 
       5.303989620246e-02       1.255712816346e+04 
       5.586870669566e-02       1.210421226869e+04 
       5.866042680613e-02       1.171466334349e+04 
       6.142798932958e-02       1.136014766419e+04 
       6.418496440164e-02       1.101863253005e+04 
       6.694418833788e-02       1.067065137908e+04 
       6.971731106057e-02       1.030361997388e+04 
       7.251476155766e-02       9.909054668787e+03 
       7.534587671527e-02       9.483625057956e+03 
       7.821907666265e-02       9.029307681340e+03 
       8.114203772912e-02       8.552144064110e+03 
       8.412184535029e-02       8.061952319762e+03 
       8.716512279304e-02       7.570737791442e+03 
       9.027813695930e-02       7.092460429681e+03 
       9.346688431697e-02       6.640536498274e+03 
       9.673716028276e-02       6.226708848377e+03 
       1.000946150830e-01       5.859937423265e+03 
       1.035447986537e-01       5.545241932356e+03 
       1.070931966762e-01       5.283140078266e+03 
       1.107452594425e-01       5.069439070163e+03 
       1.145064249153e-01       4.895270274179e+03 
       1.183821370918e-01       4.747833157276e+03 
       1.223778605862e-01       4.611721535760e+03 
       1.264990921987e-01       4.470614930239e+03 
       1.307513701367e-01       4.310273114337e+03 
       1.351402814784e-01       4.121388616968e+03 
       1.396714684203e-01       3.902052899956e+03 
       1.443506338194e-01       3.658647353835e+03 
       1.491835465229e-01       3.404466176452e+03 
       1.541760469708e-01       3.156635203674e+03 
       1.593340535561e-01       2.931920650839e+03 
       1.646635702297e-01       2.742344275833e+03 
       1.701706958456e-01       2.592228210179e+03 
       1.758616357459e-01       2.477202717891e+03 
       1.817427160982e-01       2.385154996401e+03 
       1.878204015065e-01       2.300336028248e+03 
       1.941013164283e-01       2.205765572225e+03 
       2.005922709503e-01       2.090832536677e+03 
       2.073002914972e-01       1.956456074805e+03 
       2.142326570816e-01       1.814166486529e+03 
       2.213969417533e-01       1.679263902873e+03 
       2.288010639706e-01       1.563830682136e+03 
       2.364533437147e-01       1.472665711382e+03 
       2.443625682930e-01       1.401501165012e+03 
       2.525380679504e-01       1.338407883487e+03 
       2.609898026346e-01       1.270889028579e+03 
       2.697284615565e-01       1.193343410660e+03 
       2.787655775689e-01       1.109318563474e+03 
       2.881136588829e-01       1.028750040023e+03 
       2.977863412677e-01       9.604613202048e+02 
       3.077985646929e-01       9.050030504451e+02 
       3.181667794071e-01       8.561209972820e+02 
       3.289091877812e-01       8.061652054693e+02 
       3.400460299658e-01       7.523665014742e+02 
       3.515999236474e-01       6.988991070192e+02 
       3.635962711085e-01       6.510455122928e+02 
       3.760637506334e-01       6.101039235997e+02 
       3.890349143879e-01       5.721122439564e+02 
       4.025469216825e-01       5.337589899464e+02 
       4.166424456376e-01       4.956073514978e+02 
       4.313708035863e-01       4.604463179500e+02 
       4.467893782977e-01       4.287518572232e+02 
       4.629654199664e-01       3.987522676183e+02 
       4.799783501994e-01       3.692181667784e+02 
       4.979227319373e-01       3.412183893190e+02 
       5.169121270864e-01       3.154591075129e+02 
       5.370841404489e-01       2.908121410381e+02 
       5.586070464571e-01       2.670835869008e+02 
       5.816885094930e-01       2.447853088204e+02 
       6.065870144995e-01       2.235467239218e+02 
       6.336266468475e-01       2.031891927836e+02 
       6.632156059511e-01       1.838574273046e+02 
       6.958678639263e-01       1.653334754254e+02 
       7.322247985589e-01       1.476740734838e+02 
       7.730680195114e-01       1.308125254460e+02 
       8.193049553677e-01       1.148097107149e+02 
       8.718988016039e-01       9.974120833673e+01 
       9.317218031082e-01       8.575541108655e+01 
       9.993660908989e-01       7.303222994615e+01 
       1.075037110174e+00       6.171315509083e+01 
       1.158653485707e+00       5.185606610410e+01 
       1.250099157308e+00       4.341698369844e+01 
       1.349432401273e+00       3.626610449400e+01 
       1.456947457397e+00       3.024464151757e+01 
       1.573135111331e+00       2.519102568609e+01 
       1.698621895592e+00       2.095824541111e+01 
       1.834127512934e+00       1.741842766259e+01 
       1.980444934528e+00       1.446173434100e+01 
       2.138435191726e+00       1.199484566997e+01 
       2.309029199186e+00       9.938970720106e+00 
       2.493232377687e+00       8.227568141134e+00 
       2.692130395285e+00       6.804204367072e+00 
       2.906895534573e+00       5.621729060079e+00 
       3.138793597714e+00       4.640385531147e+00 
       3.389191366484e+00       3.826448009752e+00 
       3.659564657905e+00       3.152182138338e+00 
       3.951507022538e+00       2.593982109270e+00 
       4.266739136701e+00       2.132297035930e+00 
       4.607118943941e+00       1.750705557128e+00 
       4.974652605557e+00       1.435590073257e+00 
       5.371506324689e+00       1.175519294621e+00 
       5.800019113685e+00       9.610282481446e-01 
       6.262716579983e+00       7.842438795729e-01 
       6.762325811764e+00       6.386198337684e-01 
       7.301791451110e+00       5.187316439377e-01 
       7.884293049406e+00       4.200801634384e-01 
       8.513263807261e+00       3.389428282234e-01 
       9.192410809424e+00       2.722468901042e-01 
       9.925736873929e+00       2.174594606974e-01 
       1.071756414427e+01       1.724883364606e-01 
       1.157255956364e+01       1.356168924782e-01 
       1.249576238137e+01       1.054404110394e-01 
       1.349261385375e+01       8.081214665471e-02 
       1.456898931416e+01       6.080217846585e-02 
       1.573123280165e+01       4.465576422765e-02 
       1.698619445202e+01       3.176754145259e-02 
       1.834127087176e+01       2.164720168641e-02 
       1.980444873285e+01       1.389699800342e-02 
       2.138435184532e+01       8.185087982140e-03 
       2.309029198506e+01       4.218814237668e-03 
       2.493232377636e+01       1.722679176061e-03 
       2.692130395282e+01       4.167918188599e-04 
       2.906895534573e+01       4.290702784534e-06 
       3.138793597714e+01       1.707064813478e-04 
       3.389191366484e+01       6.012824958176e-04 
       3.659564657905e+01       1.016798128071e-03 
       3.951507022538e+01       1.221329609738e-03 
       4.266739136701e+01       1.142742634898e-03 
       4.607118943941e+01       8.414666158917e-04 
       4.974652605557e+01       4.674736157357e-04 
       5.371506324689e+01       1.734190842027e-04 
       5.800019113685e+01       2.932631107361e-05 
       6.262716579983e+01       1.920635221673e-09 
       6.762325811764e+01       5.269270488848e-06 
