# Matter power spectrum P(k) at redshift z=99
# for k=1.04775e-05 to 67.6233 h/Mpc,
# number of wavenumbers equal to 246
#    1:k (h/Mpc)              2:P (Mpc/h)^3        
       1.047750691338e-05       7.261927673145e-03 
       1.131335172818e-05       7.820331745765e-03 
       1.221587619877e-05       8.421675986519e-03 
       1.319039970550e-05       9.069258192227e-03 
       1.424266598317e-05       9.766638404456e-03 
       1.537887697396e-05       1.051764069685e-02 
       1.660572938097e-05       1.132639105524e-02 
       1.793045413791e-05       1.219733231421e-02 
       1.936085902737e-05       1.313524224385e-02 
       2.090537469909e-05       1.414527121898e-02 
       2.257310435923e-05       1.523296272197e-02 
       2.437387742372e-05       1.640429444536e-02 
       2.631830745176e-05       1.766569582184e-02 
       2.841785470091e-05       1.902408601800e-02 
       3.068489367268e-05       2.048692970599e-02 
       3.313278604643e-05       2.206225513602e-02 
       3.577595943165e-05       2.375870704917e-02 
       3.862999240274e-05       2.558560727488e-02 
       4.171170631739e-05       2.755297763354e-02 
       4.503926445983e-05       2.967161927325e-02 
       4.863227909323e-05       3.195316450843e-02 
       5.251192705226e-05       3.441013519297e-02 
       5.670107455699e-05       3.705601722540e-02 
       6.122441198393e-05       3.990533413577e-02 
       6.610859938837e-05       4.297372168218e-02 
       7.138242363583e-05       4.627802141705e-02 
       7.707696806873e-05       4.983636194177e-02 
       8.322579570814e-05       5.366826847250e-02 
       8.986514707061e-05       5.779476394589e-02 
       9.703415376577e-05       6.223848243907e-02 
       1.047750691338e-04       6.702379865664e-02 
       1.131335172818e-04       7.217695153406e-02 
       1.221587619877e-04       7.772619073601e-02 
       1.319039970550e-04       8.370193432406e-02 
       1.424266598317e-04       9.013692507579e-02 
       1.537887697396e-04       9.706641242605e-02 
       1.660572938097e-04       1.045283354275e-01 
       1.793045413791e-04       1.125635349072e-01 
       1.936085902737e-04       1.212159614973e-01 
       2.090537469909e-04       1.305329132719e-01 
       2.257310435923e-04       1.405652846220e-01 
       2.437387742372e-04       1.513678302545e-01 
       2.631830745176e-04       1.629994504876e-01 
       2.841785470091e-04       1.755234921230e-01 
       3.068489367268e-04       1.890080670420e-01 
       3.313278604643e-04       2.035264002442e-01 
       3.577595943165e-04       2.191571803689e-01 
       3.862999240274e-04       2.359849437601e-01 
       4.171170631739e-04       2.541004741547e-01 
       4.503926445983e-04       2.736012080286e-01 
       4.863227909323e-04       2.945916790975e-01 
       5.251192705226e-04       3.171839525193e-01 
       5.670107455699e-04       3.414980764013e-01 
       6.122441198393e-04       3.676625413112e-01 
       6.610859938837e-04       3.958147252315e-01 
       7.138242363583e-04       4.261013284918e-01 
       7.707696806873e-04       4.586787792364e-01 
       8.322579570814e-04       4.937136001366e-01 
       8.986514707061e-04       5.313826801414e-01 
       9.703415376577e-04       5.718734972170e-01 
       1.047750691338e-03       6.153841629518e-01 
       1.131335172818e-03       6.621233239476e-01 
       1.221587619877e-03       7.123098220432e-01 
       1.319039970550e-03       7.661720584561e-01 
       1.424266598317e-03       8.239546297735e-01 
       1.537887697396e-03       8.859011173465e-01 
       1.660572938097e-03       9.522588006358e-01 
       1.793045413791e-03       1.023280099817e+00 
       1.936085902737e-03       1.099216304576e+00 
       2.090537469909e-03       1.180312990448e+00 
       2.257310435923e-03       1.266804115839e+00 
       2.437387742372e-03       1.358904853395e+00 
       2.631830745176e-03       1.456802683142e+00 
       2.841785470091e-03       1.560646890502e+00 
       3.068489367268e-03       1.670536062474e+00 
       3.313278604643e-03       1.786503852128e+00 
       3.577595943165e-03       1.908502930745e+00 
       3.862999240274e-03       2.036387730652e+00 
       4.171170631739e-03       2.169896178714e+00 
       4.503926445983e-03       2.308631878901e+00 
       4.863227909323e-03       2.452047290843e+00 
       5.251192705226e-03       2.599430627937e+00 
       5.670107455699e-03       2.749896931633e+00 
       6.122441198393e-03       2.902386513146e+00 
       6.610859938837e-03       3.055668710366e+00 
       7.138242363583e-03       3.208356461171e+00 
       7.707696806873e-03       3.358923892159e+00 
       8.322579570814e-03       3.505725594600e+00 
       8.986514707061e-03       3.647009542025e+00 
       9.703415376577e-03       3.780923303410e+00 
       1.047750691338e-02       3.905490741053e+00 
       1.131335172818e-02       4.018588041146e+00 
       1.221587619877e-02       4.117901582480e+00 
       1.319039970550e-02       4.200915265175e+00 
       1.424266598317e-02       4.264944448653e+00 
       1.537887697392e-02       4.307218070972e+00 
       1.660572938023e-02       4.325063635149e+00 
       1.793045412706e-02       4.316056669412e+00 
       1.936085890181e-02       4.278227323520e+00 
       2.090537352463e-02       4.210197740107e+00 
       2.257309535333e-02       4.111422565477e+00 
       2.437382002918e-02       3.982419366191e+00 
       2.631799944462e-02       3.825177614936e+00 
       2.841644545389e-02       3.643275346926e+00 
       3.067933355377e-02       3.442193477658e+00 
       3.311368470740e-02       3.229238000057e+00 
       3.571840443502e-02       3.013525341236e+00 
       3.847720348444e-02       2.805246235515e+00 
       4.135335538431e-02       2.614404352513e+00 
       4.429361667738e-02       2.448130458753e+00 
       4.724366439141e-02       2.309239017417e+00 
       5.016480835311e-02       2.196107020777e+00 
       5.303989620246e-02       2.104362772217e+00 
       5.586870669566e-02       2.028461276456e+00 
       5.866042680613e-02       1.963146263234e+00 
       6.142798932958e-02       1.903782180349e+00 
       6.418496440164e-02       1.846478627554e+00 
       6.694418833788e-02       1.788193298788e+00 
       6.971731106057e-02       1.726714321994e+00 
       7.251476155766e-02       1.660651423020e+00 
       7.534587671527e-02       1.589468121711e+00 
       7.821907666265e-02       1.513437085319e+00 
       8.114203772912e-02       1.433566783595e+00 
       8.412184535029e-02       1.351491926406e+00 
       8.716512279304e-02       1.269274630580e+00 
       9.027813695930e-02       1.189190934351e+00 
       9.346688431697e-02       1.113501114496e+00 
       9.673716028276e-02       1.044173069982e+00 
       1.000946150830e-01       9.827051589835e-01 
       1.035447986537e-01       9.299363203384e-01 
       1.070931966762e-01       8.859580941856e-01 
       1.107452594425e-01       8.500712642826e-01 
       1.145064249153e-01       8.208024766679e-01 
       1.183821370918e-01       7.960242546943e-01 
       1.223778605862e-01       7.731447725218e-01 
       1.264990921987e-01       7.494510952018e-01 
       1.307513701367e-01       7.225558232593e-01 
       1.351402814784e-01       6.909070498519e-01 
       1.396714684203e-01       6.541798594805e-01 
       1.443506338194e-01       6.134256188768e-01 
       1.491835465229e-01       5.708676927498e-01 
       1.541760469708e-01       5.293610750752e-01 
       1.593340535561e-01       4.917080286200e-01 
       1.646635702297e-01       4.599170447520e-01 
       1.701706958456e-01       4.347251745476e-01 
       1.758616357459e-01       4.154052141567e-01 
       1.817427160982e-01       3.999331632553e-01 
       1.878204015065e-01       3.856798110747e-01 
       1.941013164283e-01       3.698070772619e-01 
       2.005922709503e-01       3.505421078985e-01 
       2.073002914972e-01       3.280416223688e-01 
       2.142326570816e-01       3.042108791426e-01 
       2.213969417533e-01       2.816074151506e-01 
       2.288010639706e-01       2.622524101567e-01 
       2.364533437147e-01       2.469570462620e-01 
       2.443625682930e-01       2.350072898727e-01 
       2.525380679504e-01       2.244122599583e-01 
       2.609898026346e-01       2.130873275496e-01 
       2.697284615565e-01       2.000954598421e-01 
       2.787655775689e-01       1.860138543223e-01 
       2.881136588829e-01       1.725102857744e-01 
       2.977863412677e-01       1.610586649636e-01 
       3.077985646929e-01       1.517530615270e-01 
       3.181667794071e-01       1.435515374747e-01 
       3.289091877812e-01       1.351728947559e-01 
       3.400460299658e-01       1.261555514763e-01 
       3.515999236474e-01       1.171923552252e-01 
       3.635962711085e-01       1.091666736445e-01 
       3.760637506334e-01       1.022987322067e-01 
       3.890349143879e-01       9.592642981728e-02 
       4.025469216825e-01       8.949608379410e-02 
       4.166424456376e-01       8.309911162190e-02 
       4.313708035863e-01       7.720252564233e-02 
       4.467893782977e-01       7.188675275316e-02 
       4.629654199664e-01       6.685442056470e-02 
       4.799783501994e-01       6.190211073608e-02 
       4.979227319373e-01       5.720584057497e-02 
       5.169121270864e-01       5.288561335337e-02 
       5.370841404489e-01       4.875148525587e-02 
       5.586070464571e-01       4.477147808580e-02 
       5.816885094930e-01       4.103138211711e-02 
       6.065870144995e-01       3.746807114323e-02 
       6.336266468475e-01       3.405309494683e-02 
       6.632156059511e-01       3.080984366198e-02 
       6.958678639263e-01       2.770181911488e-02 
       7.322247985589e-01       2.473865689223e-02 
       7.730680195114e-01       2.190893289811e-02 
       8.193049553677e-01       1.922294172489e-02 
       8.718988016039e-01       1.669309063257e-02 
       9.317218031082e-01       1.434463159209e-02 
       9.993660908989e-01       1.220728700906e-02 
       1.075037110174e+00       1.030487012327e-02 
       1.158653485707e+00       8.647069160903e-03 
       1.250099157308e+00       7.226556440178e-03 
       1.349432401273e+00       6.021582924766e-03 
       1.456947457397e+00       5.005466087629e-03 
       1.573135111331e+00       4.151219738067e-03 
       1.698621895592e+00       3.434100599321e-03 
       1.834127512934e+00       2.832684956590e-03 
       1.980444934528e+00       2.328561897844e-03 
       2.138435191726e+00       1.906142730443e-03 
       2.309029199186e+00       1.552302055064e-03 
       2.493232377687e+00       1.255962641495e-03 
       2.692130395285e+00       1.007841883837e-03 
       2.906895534573e+00       8.002229298651e-04 
       3.138793597714e+00       6.267047681269e-04 
       3.389191366484e+00       4.820644935895e-04 
       3.659564657905e+00       3.620449721366e-04 
       3.951507022538e+00       2.632792671706e-04 
       4.266739136701e+00       1.831133028885e-04 
       4.607118943941e+00       1.195003824141e-04 
       4.974652605557e+00       7.085287515052e-05 
       5.371506324689e+00       3.588207659361e-05 
       5.800019113685e+00       1.340138782152e-05 
       6.262716579983e+00       2.109584163312e-06 
       6.762325811764e+00       3.579826433483e-07 
       7.301791451110e+00       5.955532102562e-06 
       7.884293049406e+00       1.607764310839e-05 
       8.513263807261e+00       2.736924796984e-05 
       9.192410809424e+00       3.634128329010e-05 
       9.925736873929e+00       4.006358917916e-05 
       1.071756414427e+01       3.705480343100e-05 
       1.157255956364e+01       2.803551806550e-05 
       1.249576238137e+01       1.605309159364e-05 
       1.349261385375e+01       5.541355425856e-06 
       1.456898931416e+01       3.023315587972e-07 
       1.573123280165e+01       1.269176230347e-06 
       1.698619445202e+01       5.626838368639e-06 
       1.834127087176e+01       8.589758530114e-06 
       1.980444873285e+01       7.198047927855e-06 
       2.138435184532e+01       2.967466531037e-06 
       2.309029198506e+01       1.463874084410e-07 
       2.493232377636e+01       7.041459307393e-07 
       2.692130395282e+01       2.138483975024e-06 
       2.906895534573e+01       1.599778348220e-06 
       3.138793597714e+01       2.012045940886e-07 
       3.389191366484e+01       1.793495930753e-07 
       3.659564657905e+01       5.953570824443e-07 
       3.951507022538e+01       1.928379271817e-07 
       4.266739136701e+01       2.396459615422e-08 
       4.607118943941e+01       1.618051842806e-07 
       4.974652605557e+01       2.059654407529e-08 
       5.371506324689e+01       3.188538592843e-08 
       5.800019113685e+01       2.009931372727e-08 
       6.262716579983e+01       5.556290663450e-09 
       6.762325811764e+01       5.935379624697e-09 
