# Matter power spectrum P(k) at redshift z=0
# for k=1.04775e-05 to 67.6233 h/Mpc,
# number of wavenumbers equal to 246
#    1:k (h/Mpc)              2:P (Mpc/h)^3        
       1.047750691338e-05       5.020964806750e+01 
       1.131335172818e-05       5.407048206553e+01 
       1.221587619877e-05       5.822819063898e+01 
       1.319039970550e-05       6.270562589677e+01 
       1.424266598317e-05       6.752731788102e+01 
       1.537887697396e-05       7.271977200257e+01 
       1.660572938097e-05       7.831147241542e+01 
       1.793045413791e-05       8.433311815128e+01 
       1.936085902737e-05       9.081778242446e+01 
       2.090537469909e-05       9.780108061340e+01 
       2.257310435923e-05       1.053213197032e+02 
       2.437387742372e-05       1.134197377001e+02 
       2.631830745176e-05       1.221408202816e+02 
       2.841785470091e-05       1.315324720916e+02 
       3.068489367268e-05       1.416462093729e+02 
       3.313278604643e-05       1.525374500691e+02 
       3.577595943165e-05       1.642660687078e+02 
       3.862999240274e-05       1.768963504868e+02 
       4.171170631739e-05       1.904975992460e+02 
       4.503926445983e-05       2.051444490305e+02 
       4.863227909323e-05       2.209171463752e+02 
       5.251192705226e-05       2.379022222314e+02 
       5.670107455699e-05       2.561927925720e+02 
       6.122441198393e-05       2.758890441791e+02 
       6.610859938837e-05       2.970989225466e+02 
       7.138242363583e-05       3.199385558200e+02 
       7.707696806873e-05       3.445329780878e+02 
       8.322579570814e-05       3.710167315928e+02 
       8.986514707061e-05       3.995346440954e+02 
       9.703415376577e-05       4.302425403884e+02 
       1.047750691338e-04       4.633080762974e+02 
       1.131335172818e-04       4.989116267507e+02 
       1.221587619877e-04       5.372471946561e+02 
       1.319039970550e-04       5.785234124633e+02 
       1.424266598317e-04       6.229645929806e+02 
       1.537887697396e-04       6.708118484951e+02 
       1.660572938097e-04       7.223242660220e+02 
       1.793045413791e-04       7.777801554138e+02 
       1.936085902737e-04       8.374783607333e+02 
       2.090537469909e-04       9.017396264495e+02 
       2.257310435923e-04       9.709080260152e+02 
       2.437387742372e-04       1.045352448644e+03 
       2.631830745176e-04       1.125468122836e+03 
       2.841785470091e-04       1.211678179511e+03 
       3.068489367268e-04       1.304435249091e+03 
       3.313278604643e-04       1.404223052541e+03 
       3.577595943165e-04       1.511558013390e+03 
       3.862999240274e-04       1.626990836515e+03 
       4.171170631739e-04       1.751108027370e+03 
       4.503926445983e-04       1.884533381345e+03 
       4.863227909323e-04       2.027929376470e+03 
       5.251192705226e-04       2.181998446367e+03 
       5.670107455699e-04       2.347484100857e+03 
       6.122441198393e-04       2.525171869337e+03 
       6.610859938837e-04       2.715889981401e+03 
       7.138242363583e-04       2.920509686084e+03 
       7.707696806873e-04       3.139945097710e+03 
       8.322579570814e-04       3.375152334396e+03 
       8.986514707061e-04       3.627127828231e+03 
       9.703415376577e-04       3.896905450016e+03 
       1.047750691338e-03       4.185552170957e+03 
       1.131335172818e-03       4.494162426791e+03 
       1.221587619877e-03       4.823850702663e+03 
       1.319039970550e-03       5.175742739285e+03 
       1.424266598317e-03       5.551019592518e+03 
       1.537887697396e-03       5.950788335877e+03 
       1.660572938097e-03       6.376123046805e+03 
       1.793045413791e-03       6.828073896130e+03 
       1.936085902737e-03       7.307625375386e+03 
       2.090537469909e-03       7.815671860255e+03 
       2.257310435923e-03       8.352990369398e+03 
       2.437387742372e-03       8.920211057529e+03 
       2.631830745176e-03       9.517783061890e+03 
       2.841785470091e-03       1.014593703671e+04 
       3.068489367268e-03       1.080464505739e+04 
       3.313278604643e-03       1.149357459421e+04 
       3.577595943165e-03       1.221203620826e+04 
       3.862999240274e-03       1.295892538505e+04 
       4.171170631739e-03       1.373266001090e+04 
       4.503926445983e-03       1.453111834595e+04 
       4.863227909323e-03       1.535154984221e+04 
       5.251192705226e-03       1.619063613401e+04 
       5.670107455699e-03       1.704431256585e+04 
       6.122441198393e-03       1.790755938470e+04 
       6.610859938837e-03       1.877460417067e+04 
       7.138242363583e-03       1.963872429161e+04 
       7.707696806873e-03       2.049215713385e+04 
       8.322579570814e-03       2.132606929247e+04 
       8.986514707061e-03       2.213055203026e+04 
       9.703415376577e-03       2.289445471048e+04 
       1.047750691338e-02       2.360548722764e+04 
       1.131335172818e-02       2.425023499930e+04 
       1.221587619877e-02       2.481423920626e+04 
       1.319039970550e-02       2.528218632579e+04 
       1.424266598317e-02       2.563814316840e+04 
       1.537887697392e-02       2.586605958374e+04 
       1.660572938023e-02       2.595025812207e+04 
       1.793045412706e-02       2.587635189818e+04 
       1.936085890181e-02       2.563220435389e+04 
       2.090537352463e-02       2.520934766408e+04 
       2.257309535333e-02       2.460446650380e+04 
       2.437382002918e-02       2.382089178264e+04 
       2.631799944462e-02       2.287045023164e+04 
       2.841644545389e-02       2.177448263858e+04 
       3.067933355377e-02       2.056559083225e+04 
       3.311368470740e-02       1.928732346479e+04 
       3.571840443502e-02       1.799398007497e+04 
       3.847720348444e-02       1.674686385532e+04 
       4.135335538431e-02       1.560457650864e+04 
       4.429361667738e-02       1.461039403836e+04 
       4.724366439141e-02       1.378057213171e+04 
       5.016480835311e-02       1.310510299765e+04 
       5.303989620246e-02       1.255716927968e+04 
       5.586870669566e-02       1.210426250864e+04 
       5.866042680613e-02       1.171466092300e+04 
       6.142798932958e-02       1.136043883078e+04 
       6.418496440164e-02       1.101854039133e+04 
       6.694418833788e-02       1.067069263110e+04 
       6.971731106057e-02       1.030356418565e+04 
       7.251476155766e-02       9.909002144341e+03 
       7.534587671527e-02       9.483782205525e+03 
       7.821907666265e-02       9.029486223646e+03 
       8.114203772912e-02       8.552335939122e+03 
       8.412184535029e-02       8.061937115780e+03 
       8.716512279304e-02       7.570761716580e+03 
       9.027813695930e-02       7.092482051926e+03 
       9.346688431697e-02       6.640521000889e+03 
       9.673716028276e-02       6.226722915495e+03 
       1.000946150830e-01       5.859956092919e+03 
       1.035447986537e-01       5.545239372104e+03 
       1.070931966762e-01       5.283150263678e+03 
       1.107452594425e-01       5.069423999370e+03 
       1.145064249153e-01       4.895245087406e+03 
       1.183821370918e-01       4.747844301811e+03 
       1.223778605862e-01       4.611736423156e+03 
       1.264990921987e-01       4.470622081733e+03 
       1.307513701367e-01       4.310262663669e+03 
       1.351402814784e-01       4.121381228232e+03 
       1.396714684203e-01       3.902076148359e+03 
       1.443506338194e-01       3.658598080158e+03 
       1.491835465229e-01       3.404483726522e+03 
       1.541760469708e-01       3.156676877675e+03 
       1.593340535561e-01       2.931973427575e+03 
       1.646635702297e-01       2.742374981875e+03 
       1.701706958456e-01       2.592267145510e+03 
       1.758616357459e-01       2.477240974069e+03 
       1.817427160982e-01       2.385187146419e+03 
       1.878204015065e-01       2.300356597171e+03 
       1.941013164283e-01       2.205761180963e+03 
       2.005922709503e-01       2.090815794091e+03 
       2.073002914972e-01       1.956463654656e+03 
       2.142326570816e-01       1.814192609649e+03 
       2.213969417533e-01       1.679282141946e+03 
       2.288010639706e-01       1.563846970360e+03 
       2.364533437147e-01       1.472685502984e+03 
       2.443625682930e-01       1.401510713596e+03 
       2.525380679504e-01       1.338411944170e+03 
       2.609898026346e-01       1.270903944926e+03 
       2.697284615565e-01       1.193380586024e+03 
       2.787655775689e-01       1.109341385267e+03 
       2.881136588829e-01       1.028770650980e+03 
       2.977863412677e-01       9.604813527203e+02 
       3.077985646929e-01       9.050254840458e+02 
       3.181667794071e-01       8.561449082216e+02 
       3.289091877812e-01       8.061876622382e+02 
       3.400460299658e-01       7.523906371644e+02 
       3.515999236474e-01       6.989228387915e+02 
       3.635962711085e-01       6.510611120899e+02 
       3.760637506334e-01       6.101214445878e+02 
       3.890349143879e-01       5.721322855049e+02 
       4.025469216825e-01       5.337809700771e+02 
       4.166424456376e-01       4.956301713716e+02 
       4.313708035863e-01       4.604681241014e+02 
       4.467893782977e-01       4.287773277908e+02 
       4.629654199664e-01       3.987720895140e+02 
       4.799783501994e-01       3.692414405674e+02 
       4.979227319373e-01       3.412394030771e+02 
       5.169121270864e-01       3.154821642938e+02 
       5.370841404489e-01       2.908351907778e+02 
       5.586070464571e-01       2.671061876281e+02 
       5.816885094930e-01       2.448087462571e+02 
       6.065870144995e-01       2.235677368323e+02 
       6.336266468475e-01       2.032099100926e+02 
       6.632156059511e-01       1.838792548408e+02 
       6.958678639263e-01       1.653546495117e+02 
       7.322247985589e-01       1.476956186829e+02 
       7.730680195114e-01       1.308338482870e+02 
       8.193049553677e-01       1.148311041472e+02 
       8.718988016039e-01       9.976248420706e+01 
       9.317218031082e-01       8.577807416888e+01 
       9.993660908989e-01       7.305449503454e+01 
       1.075037110174e+00       6.173583499987e+01 
       1.158653485707e+00       5.187893182725e+01 
       1.250099157308e+00       4.344010732134e+01 
       1.349432401273e+00       3.628899543410e+01 
       1.456947457397e+00       3.026759577421e+01 
       1.573135111331e+00       2.521420684700e+01 
       1.698621895592e+00       2.098157229299e+01 
       1.834127512934e+00       1.744182475119e+01 
       1.980444934528e+00       1.448511188708e+01 
       2.138435191726e+00       1.201832005185e+01 
       2.309029199186e+00       9.962442402691e+00 
       2.493232377687e+00       8.251050661168e+00 
       2.692130395285e+00       6.827775263908e+00 
       2.906895534573e+00       5.645320924333e+00 
       3.138793597714e+00       4.663856014994e+00 
       3.389191366484e+00       3.849951177826e+00 
       3.659564657905e+00       3.175662268370e+00 
       3.951507022538e+00       2.617477299919e+00 
       4.266739136701e+00       2.155816454097e+00 
       4.607118943941e+00       1.774247087923e+00 
       4.974652605557e+00       1.459141532165e+00 
       5.371506324689e+00       1.199116744358e+00 
       5.800019113685e+00       9.846769949208e-01 
       6.262716579983e+00       8.079575802140e-01 
       6.762325811764e+00       6.624050663712e-01 
       7.301791451110e+00       5.425992661336e-01 
       7.884293049406e+00       4.440337734407e-01 
       8.513263807261e+00       3.629799859063e-01 
       9.192410809424e+00       2.963577503502e-01 
       9.925736873929e+00       2.416114610745e-01 
       1.071756414427e+01       1.966424758530e-01 
       1.157255956364e+01       1.597102063595e-01 
       1.249576238137e+01       1.293835330348e-01 
       1.349261385375e+01       1.044823908148e-01 
       1.456898931416e+01       8.403744469454e-02 
       1.573123280165e+01       6.725170723501e-02 
       1.698619445202e+01       5.347307686237e-02 
       1.834127087176e+01       4.216868958172e-02 
       1.980444873285e+01       3.290321579196e-02 
       2.138435184532e+01       2.532286075755e-02 
       2.309029198506e+01       1.914323636551e-02 
       2.493232377636e+01       1.413387025234e-02 
       2.692130395282e+01       1.011139883472e-02 
       2.906895534573e+01       6.929706729726e-03 
       3.138793597714e+01       4.470442245419e-03 
       3.389191366484e+01       2.637747865104e-03 
       3.659564657905e+01       1.349700943434e-03 
       3.951507022538e+01       5.312969171600e-04 
       4.266739136701e+01       1.082140824735e-04 
       4.607118943941e+01       1.078817825185e-06 
       4.974652605557e+01       1.222921938511e-04 
       5.371506324689e+01       3.763816931288e-04 
       5.800019113685e+01       6.650508963359e-04 
       6.262716579983e+01       8.975686284215e-04 
       6.762325811764e+01       1.005557311015e-03 
