# Matter power spectrum P(k) at redshift z=99
# for k=1.04775e-05 to 67.6233 h/Mpc,
# number of wavenumbers equal to 246
#    1:k (h/Mpc)              2:P (Mpc/h)^3        
       1.047750691338e-05       7.261927673182e-03 
       1.131335172818e-05       7.820331745805e-03 
       1.221587619877e-05       8.421675986562e-03 
       1.319039970550e-05       9.069258192273e-03 
       1.424266598317e-05       9.766638404506e-03 
       1.537887697396e-05       1.051764069691e-02 
       1.660572938097e-05       1.132639105529e-02 
       1.793045413791e-05       1.219733231427e-02 
       1.936085902737e-05       1.313524224392e-02 
       2.090537469909e-05       1.414527121906e-02 
       2.257310435923e-05       1.523296272205e-02 
       2.437387742372e-05       1.640429444544e-02 
       2.631830745176e-05       1.766569582193e-02 
       2.841785470091e-05       1.902408601809e-02 
       3.068489367268e-05       2.048692970609e-02 
       3.313278604643e-05       2.206225513613e-02 
       3.577595943165e-05       2.375870704930e-02 
       3.862999240274e-05       2.558560727501e-02 
       4.171170631739e-05       2.755297763368e-02 
       4.503926445983e-05       2.967161927340e-02 
       4.863227909323e-05       3.195316450860e-02 
       5.251192705226e-05       3.441013519314e-02 
       5.670107455699e-05       3.705601722560e-02 
       6.122441198393e-05       3.990533413599e-02 
       6.610859938837e-05       4.297372168240e-02 
       7.138242363583e-05       4.627802141728e-02 
       7.707696806873e-05       4.983636194202e-02 
       8.322579570814e-05       5.366826847278e-02 
       8.986514707061e-05       5.779476394618e-02 
       9.703415376577e-05       6.223848243939e-02 
       1.047750691338e-04       6.702379865698e-02 
       1.131335172818e-04       7.217695153443e-02 
       1.221587619877e-04       7.772619073640e-02 
       1.319039970550e-04       8.370193432448e-02 
       1.424266598317e-04       9.013692507625e-02 
       1.537887697396e-04       9.706641242654e-02 
       1.660572938097e-04       1.045283354280e-01 
       1.793045413791e-04       1.125635349078e-01 
       1.936085902737e-04       1.212159614979e-01 
       2.090537469909e-04       1.305329132726e-01 
       2.257310435923e-04       1.405652846227e-01 
       2.437387742372e-04       1.513678302553e-01 
       2.631830745176e-04       1.629994504884e-01 
       2.841785470091e-04       1.755234921239e-01 
       3.068489367268e-04       1.890080670429e-01 
       3.313278604643e-04       2.035264002452e-01 
       3.577595943165e-04       2.191571803699e-01 
       3.862999240274e-04       2.359849437612e-01 
       4.171170631739e-04       2.541004741559e-01 
       4.503926445983e-04       2.736012080299e-01 
       4.863227909323e-04       2.945916790988e-01 
       5.251192705226e-04       3.171839525207e-01 
       5.670107455699e-04       3.414980764028e-01 
       6.122441198393e-04       3.676625413127e-01 
       6.610859938837e-04       3.958147252332e-01 
       7.138242363583e-04       4.261013284941e-01 
       7.707696806873e-04       4.586787792383e-01 
       8.322579570814e-04       4.937136001378e-01 
       8.986514707061e-04       5.313826801432e-01 
       9.703415376577e-04       5.718734972188e-01 
       1.047750691338e-03       6.153841629535e-01 
       1.131335172818e-03       6.621233239492e-01 
       1.221587619877e-03       7.123098220449e-01 
       1.319039970550e-03       7.661720584709e-01 
       1.424266598317e-03       8.239546297739e-01 
       1.537887697396e-03       8.859011173462e-01 
       1.660572938097e-03       9.522588006327e-01 
       1.793045413791e-03       1.023280099815e+00 
       1.936085902737e-03       1.099216304571e+00 
       2.090537469909e-03       1.180312990441e+00 
       2.257310435923e-03       1.266804115834e+00 
       2.437387742372e-03       1.358904853382e+00 
       2.631830745176e-03       1.456802683122e+00 
       2.841785470091e-03       1.560646890475e+00 
       3.068489367268e-03       1.670536062439e+00 
       3.313278604643e-03       1.786503852075e+00 
       3.577595943165e-03       1.908502930682e+00 
       3.862999240274e-03       2.036387730572e+00 
       4.171170631739e-03       2.169896178179e+00 
       4.503926445983e-03       2.308631878769e+00 
       4.863227909323e-03       2.452047290675e+00 
       5.251192705226e-03       2.599430627723e+00 
       5.670107455699e-03       2.749896931343e+00 
       6.122441198393e-03       2.902386512803e+00 
       6.610859938837e-03       3.055668696606e+00 
       7.138242363583e-03       3.208356460628e+00 
       7.707696806873e-03       3.358923891485e+00 
       8.322579570814e-03       3.505725593636e+00 
       8.986514707061e-03       3.647009662111e+00 
       9.703415376577e-03       3.780923302106e+00 
       1.047750691338e-02       3.905491594272e+00 
       1.131335172818e-02       4.018587327464e+00 
       1.221587619877e-02       4.117901583218e+00 
       1.319039970550e-02       4.200915281801e+00 
       1.424266598317e-02       4.264943536820e+00 
       1.537887697392e-02       4.307217420390e+00 
       1.660572938023e-02       4.325063050354e+00 
       1.793045412706e-02       4.316058263256e+00 
       1.936085890181e-02       4.278231993260e+00 
       2.090537352463e-02       4.210201939802e+00 
       2.257309535333e-02       4.111418064852e+00 
       2.437382002918e-02       3.982426724678e+00 
       2.631799944462e-02       3.825164897592e+00 
       2.841644545389e-02       3.643279119023e+00 
       3.067933355377e-02       3.442201378195e+00 
       3.311368470740e-02       3.229236321967e+00 
       3.571840443502e-02       3.013509717975e+00 
       3.847720348444e-02       2.805278071457e+00 
       4.135335538431e-02       2.614409177288e+00 
       4.429361667738e-02       2.448129899993e+00 
       4.724366439141e-02       2.309241216166e+00 
       5.016480835311e-02       2.196113780006e+00 
       5.303989620246e-02       2.104364880141e+00 
       5.586870669566e-02       2.028462880844e+00 
       5.866042680613e-02       1.963154023279e+00 
       6.142798932958e-02       1.903784462494e+00 
       6.418496440164e-02       1.846480846656e+00 
       6.694418833788e-02       1.788196456088e+00 
       6.971731106057e-02       1.726715635340e+00 
       7.251476155766e-02       1.660650430716e+00 
       7.534587671527e-02       1.589469384780e+00 
       7.821907666265e-02       1.513437896581e+00 
       8.114203772912e-02       1.433569225204e+00 
       8.412184535029e-02       1.351490653589e+00 
       8.716512279304e-02       1.269274960977e+00 
       9.027813695930e-02       1.189191260257e+00 
       9.346688431697e-02       1.113500774064e+00 
       9.673716028276e-02       1.044175066844e+00 
       1.000946150830e-01       9.827045067231e-01 
       1.035447986537e-01       9.299381788266e-01 
       1.070931966762e-01       8.859597458541e-01 
       1.107452594425e-01       8.500712779704e-01 
       1.145064249153e-01       8.208029153580e-01 
       1.183821370918e-01       7.960245574376e-01 
       1.223778605862e-01       7.731452958714e-01 
       1.264990921987e-01       7.494525294669e-01 
       1.307513701367e-01       7.225570013941e-01 
       1.351402814784e-01       6.909104820033e-01 
       1.396714684203e-01       6.541831215237e-01 
       1.443506338194e-01       6.134280240023e-01 
       1.491835465229e-01       5.708693353678e-01 
       1.541760469708e-01       5.293630156944e-01 
       1.593340535561e-01       4.917101795084e-01 
       1.646635702297e-01       4.599195335934e-01 
       1.701706958456e-01       4.347286757458e-01 
       1.758616357459e-01       4.154069920651e-01 
       1.817427160982e-01       3.999356139499e-01 
       1.878204015065e-01       3.856861931874e-01 
       1.941013164283e-01       3.698146730694e-01 
       2.005922709503e-01       3.505514720774e-01 
       2.073002914972e-01       3.280463169046e-01 
       2.142326570816e-01       3.042134325177e-01 
       2.213969417533e-01       2.816100933686e-01 
       2.288010639706e-01       2.622568252375e-01 
       2.364533437147e-01       2.469621164046e-01 
       2.443625682930e-01       2.350124613956e-01 
       2.525380679504e-01       2.244195307742e-01 
       2.609898026346e-01       2.130958267477e-01 
       2.697284615565e-01       2.001022811251e-01 
       2.787655775689e-01       1.860194835088e-01 
       2.881136588829e-01       1.725165041057e-01 
       2.977863412677e-01       1.610654778154e-01 
       3.077985646929e-01       1.517603157982e-01 
       3.181667794071e-01       1.435588875005e-01 
       3.289091877812e-01       1.351812539383e-01 
       3.400460299658e-01       1.261636975021e-01 
       3.515999236474e-01       1.172012035483e-01 
       3.635962711085e-01       1.091760804256e-01 
       3.760637506334e-01       1.023087312351e-01 
       3.890349143879e-01       9.593698395928e-02 
       4.025469216825e-01       8.950720473309e-02 
       4.166424456376e-01       8.311100045236e-02 
       4.313708035863e-01       7.721481640118e-02 
       4.467893782977e-01       7.189989898441e-02 
       4.629654199664e-01       6.686862175935e-02 
       4.799783501994e-01       6.191683840375e-02 
       4.979227319373e-01       5.722160828824e-02 
       5.169121270864e-01       5.290223062851e-02 
       5.370841404489e-01       4.876909781305e-02 
       5.586070464571e-01       4.479016103541e-02 
       5.816885094930e-01       4.105122084529e-02 
       6.065870144995e-01       3.748926233766e-02 
       6.336266468475e-01       3.407567093478e-02 
       6.632156059511e-01       3.083388082752e-02 
       6.958678639263e-01       2.772770247940e-02 
       7.322247985589e-01       2.476641171597e-02 
       7.730680195114e-01       2.193887223856e-02 
       8.193049553677e-01       1.925543972002e-02 
       8.718988016039e-01       1.672856365083e-02 
       9.317218031082e-01       1.438353426722e-02 
       9.993660908989e-01       1.224994131278e-02 
       1.075037110174e+00       1.035184320596e-02 
       1.158653485707e+00       8.698996255796e-03 
       1.250099157308e+00       7.283871697155e-03 
       1.349432401273e+00       6.084770976019e-03 
       1.456947457397e+00       5.074976430257e-03 
       1.573135111331e+00       4.227569594929e-03 
       1.698621895592e+00       3.517808469319e-03 
       1.834127512934e+00       2.924247452236e-03 
       1.980444934528e+00       2.428433772214e-03 
       2.138435191726e+00       2.014787685387e-03 
       2.309029199186e+00       1.670048795356e-03 
       2.493232377687e+00       1.383082274559e-03 
       2.692130395285e+00       1.144425216895e-03 
       2.906895534573e+00       9.461591711592e-04 
       3.138793597714e+00       7.815895880561e-04 
       3.389191366484e+00       6.451345611565e-04 
       3.659564657905e+00       5.320855147089e-04 
       3.951507022538e+00       4.385119719524e-04 
       4.266739136701e+00       3.611249259938e-04 
       4.607118943941e+00       2.971743470660e-04 
       4.974652605557e+00       2.443694188763e-04 
       5.371506324689e+00       2.008028799345e-04 
       5.800019113685e+00       1.648838029603e-04 
       6.262716579983e+00       1.352920189309e-04 
       6.762325811764e+00       1.109308107835e-04 
       7.301791451110e+00       9.088810529959e-05 
       7.884293049406e+00       7.441019761316e-05 
       8.513263807261e+00       6.087250246346e-05 
       9.192410809424e+00       4.975685328083e-05 
       9.925736873929e+00       4.063628525471e-05 
       1.071756414427e+01       3.315743351412e-05 
       1.157255956364e+01       2.702835365462e-05 
       1.249576238137e+01       2.200853911503e-05 
       1.349261385375e+01       1.790030625825e-05 
       1.456898931416e+01       1.453986729861e-05 
       1.573123280165e+01       1.179319062324e-05 
       1.698619445202e+01       9.549522137775e-06 
       1.834127087176e+01       7.718166270681e-06 
       1.980444873285e+01       6.224520667267e-06 
       2.138435184532e+01       5.007324034191e-06 
       2.309029198506e+01       4.016352850201e-06 
       2.493232377636e+01       3.210454274196e-06 
       2.692130395282e+01       2.555818439318e-06 
       2.906895534573e+01       2.024857859897e-06 
       3.138793597714e+01       1.594993094582e-06 
       3.389191366484e+01       1.247729043642e-06 
       3.659564657905e+01       9.679779825451e-07 
       3.951507022538e+01       7.434111246072e-07 
       4.266739136701e+01       5.639844076676e-07 
       4.607118943941e+01       4.214774480483e-07 
       4.974652605557e+01       3.092016261206e-07 
       5.371506324689e+01       2.216808592231e-07 
       5.800019113685e+01       1.544268698612e-07 
       6.262716579983e+01       1.037188063439e-07 
       6.762325811764e+01       6.647000855695e-08 
