# Matter power spectrum P(k) at redshift z=99
# for k=1.04775e-05 to 67.6233 h/Mpc,
# number of wavenumbers equal to 246
#    1:k (h/Mpc)              2:P (Mpc/h)^3        
       1.047750691338e-05       7.261927673119e-03 
       1.131335172818e-05       7.820331745737e-03 
       1.221587619877e-05       8.421675986489e-03 
       1.319039970550e-05       9.069258192194e-03 
       1.424266598317e-05       9.766638404421e-03 
       1.537887697396e-05       1.051764069681e-02 
       1.660572938097e-05       1.132639105520e-02 
       1.793045413791e-05       1.219733231416e-02 
       1.936085902737e-05       1.313524224380e-02 
       2.090537469909e-05       1.414527121893e-02 
       2.257310435923e-05       1.523296272192e-02 
       2.437387742372e-05       1.640429444530e-02 
       2.631830745176e-05       1.766569582177e-02 
       2.841785470091e-05       1.902408601793e-02 
       3.068489367268e-05       2.048692970591e-02 
       3.313278604643e-05       2.206225513594e-02 
       3.577595943165e-05       2.375870704909e-02 
       3.862999240274e-05       2.558560727479e-02 
       4.171170631739e-05       2.755297763344e-02 
       4.503926445983e-05       2.967161927314e-02 
       4.863227909323e-05       3.195316450832e-02 
       5.251192705226e-05       3.441013519284e-02 
       5.670107455699e-05       3.705601722527e-02 
       6.122441198393e-05       3.990533413562e-02 
       6.610859938837e-05       4.297372168203e-02 
       7.138242363583e-05       4.627802141688e-02 
       7.707696806873e-05       4.983636194159e-02 
       8.322579570814e-05       5.366826847231e-02 
       8.986514707061e-05       5.779476394569e-02 
       9.703415376577e-05       6.223848243885e-02 
       1.047750691338e-04       6.702379865640e-02 
       1.131335172818e-04       7.217695153381e-02 
       1.221587619877e-04       7.772619073572e-02 
       1.319039970550e-04       8.370193432376e-02 
       1.424266598317e-04       9.013692507547e-02 
       1.537887697396e-04       9.706641242570e-02 
       1.660572938097e-04       1.045283354271e-01 
       1.793045413791e-04       1.125635349068e-01 
       1.936085902737e-04       1.212159614968e-01 
       2.090537469909e-04       1.305329132714e-01 
       2.257310435923e-04       1.405652846215e-01 
       2.437387742372e-04       1.513678302540e-01 
       2.631830745176e-04       1.629994504871e-01 
       2.841785470091e-04       1.755234921224e-01 
       3.068489367268e-04       1.890080670413e-01 
       3.313278604643e-04       2.035264002435e-01 
       3.577595943165e-04       2.191571803681e-01 
       3.862999240274e-04       2.359849437593e-01 
       4.171170631739e-04       2.541004741539e-01 
       4.503926445983e-04       2.736012080277e-01 
       4.863227909323e-04       2.945916790965e-01 
       5.251192705226e-04       3.171839525183e-01 
       5.670107455699e-04       3.414980764002e-01 
       6.122441198393e-04       3.676625413100e-01 
       6.610859938837e-04       3.958147252303e-01 
       7.138242363583e-04       4.261013284920e-01 
       7.707696806873e-04       4.586787792354e-01 
       8.322579570814e-04       4.937136001347e-01 
       8.986514707061e-04       5.313826801402e-01 
       9.703415376577e-04       5.718734972157e-01 
       1.047750691338e-03       6.153841629505e-01 
       1.131335172818e-03       6.621233239465e-01 
       1.221587619877e-03       7.123098220430e-01 
       1.319039970550e-03       7.661720584801e-01 
       1.424266598317e-03       8.239546297726e-01 
       1.537887697396e-03       8.859011173466e-01 
       1.660572938097e-03       9.522588006419e-01 
       1.793045413791e-03       1.023280099819e+00 
       1.936085902737e-03       1.099216304579e+00 
       2.090537469909e-03       1.180312990454e+00 
       2.257310435923e-03       1.266804115852e+00 
       2.437387742372e-03       1.358904853407e+00 
       2.631830745176e-03       1.456802683156e+00 
       2.841785470091e-03       1.560646890522e+00 
       3.068489367268e-03       1.670536062499e+00 
       3.313278604643e-03       1.786503852162e+00 
       3.577595943165e-03       1.908502930789e+00 
       3.862999240274e-03       2.036387730709e+00 
       4.171170631739e-03       2.169896178812e+00 
       4.503926445983e-03       2.308631878994e+00 
       4.863227909323e-03       2.452047290962e+00 
       5.251192705226e-03       2.599430628088e+00 
       5.670107455699e-03       2.749896931872e+00 
       6.122441198393e-03       2.902386513385e+00 
       6.610859938837e-03       3.055668711274e+00 
       7.138242363583e-03       3.208356461545e+00 
       7.707696806873e-03       3.358923892221e+00 
       8.322579570814e-03       3.505725595360e+00 
       8.986514707061e-03       3.647009614949e+00 
       9.703415376577e-03       3.780923304309e+00 
       1.047750691338e-02       3.905490858180e+00 
       1.131335172818e-02       4.018588670438e+00 
       1.221587619877e-02       4.117901584574e+00 
       1.319039970550e-02       4.200915422380e+00 
       1.424266598317e-02       4.264942423345e+00 
       1.537887697392e-02       4.307219260997e+00 
       1.660572938023e-02       4.325063399764e+00 
       1.793045412706e-02       4.316056413401e+00 
       1.936085890181e-02       4.278232045901e+00 
       2.090537352463e-02       4.210199168695e+00 
       2.257309535333e-02       4.111420554271e+00 
       2.437382002918e-02       3.982419281551e+00 
       2.631799944462e-02       3.825169141756e+00 
       2.841644545389e-02       3.643276836972e+00 
       3.067933355377e-02       3.442191711516e+00 
       3.311368470740e-02       3.229248060716e+00 
       3.571840443502e-02       3.013509720969e+00 
       3.847720348444e-02       2.805281767231e+00 
       4.135335538431e-02       2.614405121649e+00 
       4.429361667738e-02       2.448126353442e+00 
       4.724366439141e-02       2.309236139468e+00 
       5.016480835311e-02       2.196116164279e+00 
       5.303989620246e-02       2.104363350963e+00 
       5.586870669566e-02       2.028461702543e+00 
       5.866042680613e-02       1.963152889137e+00 
       6.142798932958e-02       1.903782029104e+00 
       6.418496440164e-02       1.846477375787e+00 
       6.694418833788e-02       1.788198062250e+00 
       6.971731106057e-02       1.726715030679e+00 
       7.251476155766e-02       1.660650229460e+00 
       7.534587671527e-02       1.589470998310e+00 
       7.821907666265e-02       1.513438513531e+00 
       8.114203772912e-02       1.433567519631e+00 
       8.412184535029e-02       1.351492968237e+00 
       8.716512279304e-02       1.269275079220e+00 
       9.027813695930e-02       1.189192302812e+00 
       9.346688431697e-02       1.113499980196e+00 
       9.673716028276e-02       1.044175032542e+00 
       1.000946150830e-01       9.827061472915e-01 
       1.035447986537e-01       9.299383226825e-01 
       1.070931966762e-01       8.859599936373e-01 
       1.107452594425e-01       8.500713430610e-01 
       1.145064249153e-01       8.208027881169e-01 
       1.183821370918e-01       7.960256093309e-01 
       1.223778605862e-01       7.731479083988e-01 
       1.264990921987e-01       7.494506418943e-01 
       1.307513701367e-01       7.225583168005e-01 
       1.351402814784e-01       6.909075584432e-01 
       1.396714684203e-01       6.541813577725e-01 
       1.443506338194e-01       6.134270080826e-01 
       1.491835465229e-01       5.708675578765e-01 
       1.541760469708e-01       5.293629690890e-01 
       1.593340535561e-01       4.917107508690e-01 
       1.646635702297e-01       4.599206293735e-01 
       1.701706958456e-01       4.347288318011e-01 
       1.758616357459e-01       4.154084838961e-01 
       1.817427160982e-01       3.999375902223e-01 
       1.878204015065e-01       3.856819905626e-01 
       1.941013164283e-01       3.698094036910e-01 
       2.005922709503e-01       3.505466842943e-01 
       2.073002914972e-01       3.280423892849e-01 
       2.142326570816e-01       3.042146645353e-01 
       2.213969417533e-01       2.816126343353e-01 
       2.288010639706e-01       2.622577730841e-01 
       2.364533437147e-01       2.469620989114e-01 
       2.443625682930e-01       2.350126248195e-01 
       2.525380679504e-01       2.244179762837e-01 
       2.609898026346e-01       2.130938786181e-01 
       2.697284615565e-01       2.001019678701e-01 
       2.787655775689e-01       1.860195356186e-01 
       2.881136588829e-01       1.725169891599e-01 
       2.977863412677e-01       1.610658663636e-01 
       3.077985646929e-01       1.517611046959e-01 
       3.181667794071e-01       1.435596603221e-01 
       3.289091877812e-01       1.351813240392e-01 
       3.400460299658e-01       1.261642523918e-01 
       3.515999236474e-01       1.172019829787e-01 
       3.635962711085e-01       1.091771467299e-01 
       3.760637506334e-01       1.023093953909e-01 
       3.890349143879e-01       9.593742200914e-02 
       4.025469216825e-01       8.950762734217e-02 
       4.166424456376e-01       8.311184699291e-02 
       4.313708035863e-01       7.721569490096e-02 
       4.467893782977e-01       7.190072591806e-02 
       4.629654199664e-01       6.686915264642e-02 
       4.799783501994e-01       6.191756802081e-02 
       4.979227319373e-01       5.722222070663e-02 
       5.169121270864e-01       5.290292274060e-02 
       5.370841404489e-01       4.876997966513e-02 
       5.586070464571e-01       4.479083838956e-02 
       5.816885094930e-01       4.105187508761e-02 
       6.065870144995e-01       3.749000929364e-02 
       6.336266468475e-01       3.407640489543e-02 
       6.632156059511e-01       3.083459613615e-02 
       6.958678639263e-01       2.772834135191e-02 
       7.322247985589e-01       2.476714345734e-02 
       7.730680195114e-01       2.193958339770e-02 
       8.193049553677e-01       1.925616041504e-02 
       8.718988016039e-01       1.672930370409e-02 
       9.317218031082e-01       1.438423619006e-02 
       9.993660908989e-01       1.225069536635e-02 
       1.075037110174e+00       1.035264225643e-02 
       1.158653485707e+00       8.699755541794e-03 
       1.250099157308e+00       7.284586327958e-03 
       1.349432401273e+00       6.085452100678e-03 
       1.456947457397e+00       5.075731230719e-03 
       1.573135111331e+00       4.228292937129e-03 
       1.698621895592e+00       3.518543497871e-03 
       1.834127512934e+00       2.924994332226e-03 
       1.980444934528e+00       2.429166086813e-03 
       2.138435191726e+00       2.015517045338e-03 
       2.309029199186e+00       1.670768619690e-03 
       2.493232377687e+00       1.383783790349e-03 
       2.692130395285e+00       1.145128447080e-03 
       2.906895534573e+00       9.468558024746e-04 
       3.138793597714e+00       7.822901026636e-04 
       3.389191366484e+00       6.458248166787e-04 
       3.659564657905e+00       5.327680498843e-04 
       3.951507022538e+00       4.391853445581e-04 
       4.266739136701e+00       3.617897387796e-04 
       4.607118943941e+00       2.978286536587e-04 
       4.974652605557e+00       2.450138158967e-04 
       5.371506324689e+00       2.014368360303e-04 
       5.800019113685e+00       1.655071097041e-04 
       6.262716579983e+00       1.359026554647e-04 
       6.762325811764e+00       1.115302435900e-04 
       7.301791451110e+00       9.147585625091e-05 
       7.884293049406e+00       7.498631773529e-05 
       8.513263807261e+00       6.143641427824e-05 
       9.192410809424e+00       5.030812620929e-05 
       9.925736873929e+00       4.117482744422e-05 
       1.071756414427e+01       3.368326750049e-05 
       1.157255956364e+01       2.754142490685e-05 
       1.249576238137e+01       2.250856386401e-05 
       1.349261385375e+01       1.838737455164e-05 
       1.456898931416e+01       1.501410700054e-05 
       1.573123280165e+01       1.225416627094e-05 
       1.698619445202e+01       9.997501986157e-06 
       1.834127087176e+01       8.152958693603e-06 
       1.980444873285e+01       6.646042761896e-06 
       2.138435184532e+01       5.415506779659e-06 
       2.309029198506e+01       4.411133285422e-06 
       2.493232377636e+01       3.591670093077e-06 
       2.692130395282e+01       2.923340510441e-06 
       2.906895534573e+01       2.378495653894e-06 
       3.138793597714e+01       1.934499632133e-06 
       3.389191366484e+01       1.572835574452e-06 
       3.659564657905e+01       1.278319912484e-06 
       3.951507022538e+01       1.038583350379e-06 
       4.266739136701e+01       8.435251235887e-07 
       4.607118943941e+01       6.848369240597e-07 
       4.974652605557e+01       5.558069215722e-07 
       5.371506324689e+01       4.509102747792e-07 
       5.800019113685e+01       3.656666454441e-07 
       6.262716579983e+01       2.964107995659e-07 
       6.762325811764e+01       2.401677904033e-07 
