# Matter power spectrum P(k) at redshift z=99
# for k=1.04775e-05 to 67.6233 h/Mpc,
# number of wavenumbers equal to 246
#    1:k (h/Mpc)              2:P (Mpc/h)^3        
       1.047750691338e-05       7.261927673143e-03 
       1.131335172818e-05       7.820331745763e-03 
       1.221587619877e-05       8.421675986517e-03 
       1.319039970550e-05       9.069258192224e-03 
       1.424266598317e-05       9.766638404453e-03 
       1.537887697396e-05       1.051764069685e-02 
       1.660572938097e-05       1.132639105523e-02 
       1.793045413791e-05       1.219733231421e-02 
       1.936085902737e-05       1.313524224385e-02 
       2.090537469909e-05       1.414527121898e-02 
       2.257310435923e-05       1.523296272197e-02 
       2.437387742372e-05       1.640429444535e-02 
       2.631830745176e-05       1.766569582183e-02 
       2.841785470091e-05       1.902408601799e-02 
       3.068489367268e-05       2.048692970598e-02 
       3.313278604643e-05       2.206225513601e-02 
       3.577595943165e-05       2.375870704917e-02 
       3.862999240274e-05       2.558560727487e-02 
       4.171170631739e-05       2.755297763353e-02 
       4.503926445983e-05       2.967161927325e-02 
       4.863227909323e-05       3.195316450842e-02 
       5.251192705226e-05       3.441013519296e-02 
       5.670107455699e-05       3.705601722538e-02 
       6.122441198393e-05       3.990533413576e-02 
       6.610859938837e-05       4.297372168217e-02 
       7.138242363583e-05       4.627802141703e-02 
       7.707696806873e-05       4.983636194175e-02 
       8.322579570814e-05       5.366826847249e-02 
       8.986514707061e-05       5.779476394587e-02 
       9.703415376577e-05       6.223848243905e-02 
       1.047750691338e-04       6.702379865662e-02 
       1.131335172818e-04       7.217695153404e-02 
       1.221587619877e-04       7.772619073595e-02 
       1.319039970550e-04       8.370193432404e-02 
       1.424266598317e-04       9.013692507577e-02 
       1.537887697396e-04       9.706641242602e-02 
       1.660572938097e-04       1.045283354275e-01 
       1.793045413791e-04       1.125635349072e-01 
       1.936085902737e-04       1.212159614972e-01 
       2.090537469909e-04       1.305329132719e-01 
       2.257310435923e-04       1.405652846219e-01 
       2.437387742372e-04       1.513678302545e-01 
       2.631830745176e-04       1.629994504876e-01 
       2.841785470091e-04       1.755234921230e-01 
       3.068489367268e-04       1.890080670419e-01 
       3.313278604643e-04       2.035264002442e-01 
       3.577595943165e-04       2.191571803688e-01 
       3.862999240274e-04       2.359849437600e-01 
       4.171170631739e-04       2.541004741547e-01 
       4.503926445983e-04       2.736012080286e-01 
       4.863227909323e-04       2.945916790974e-01 
       5.251192705226e-04       3.171839525192e-01 
       5.670107455699e-04       3.414980764012e-01 
       6.122441198393e-04       3.676625413111e-01 
       6.610859938837e-04       3.958147252314e-01 
       7.138242363583e-04       4.261013284917e-01 
       7.707696806873e-04       4.586787792365e-01 
       8.322579570814e-04       4.937136001367e-01 
       8.986514707061e-04       5.313826801413e-01 
       9.703415376577e-04       5.718734972169e-01 
       1.047750691338e-03       6.153841629514e-01 
       1.131335172818e-03       6.621233239475e-01 
       1.221587619877e-03       7.123098220435e-01 
       1.319039970550e-03       7.661720584794e-01 
       1.424266598317e-03       8.239546297724e-01 
       1.537887697396e-03       8.859011173465e-01 
       1.660572938097e-03       9.522588006403e-01 
       1.793045413791e-03       1.023280099818e+00 
       1.936085902737e-03       1.099216304576e+00 
       2.090537469909e-03       1.180312990450e+00 
       2.257310435923e-03       1.266804115844e+00 
       2.437387742372e-03       1.358904853397e+00 
       2.631830745176e-03       1.456802683143e+00 
       2.841785470091e-03       1.560646890504e+00 
       3.068489367268e-03       1.670536062476e+00 
       3.313278604643e-03       1.786503852129e+00 
       3.577595943165e-03       1.908502930748e+00 
       3.862999240274e-03       2.036387730657e+00 
       4.171170631739e-03       2.169896178736e+00 
       4.503926445983e-03       2.308631878908e+00 
       4.863227909323e-03       2.452047290853e+00 
       5.251192705226e-03       2.599430627949e+00 
       5.670107455699e-03       2.749896931610e+00 
       6.122441198393e-03       2.902386513164e+00 
       6.610859938837e-03       3.055668735870e+00 
       7.138242363583e-03       3.208356461195e+00 
       7.707696806873e-03       3.358923891722e+00 
       8.322579570814e-03       3.505725594837e+00 
       8.986514707061e-03       3.647009626462e+00 
       9.703415376577e-03       3.780923303447e+00 
       1.047750691338e-02       3.905491490353e+00 
       1.131335172818e-02       4.018587639857e+00 
       1.221587619877e-02       4.117901585883e+00 
       1.319039970550e-02       4.200915413994e+00 
       1.424266598317e-02       4.264941298704e+00 
       1.537887697392e-02       4.307218709539e+00 
       1.660572938023e-02       4.325063212296e+00 
       1.793045412706e-02       4.316055735028e+00 
       1.936085890181e-02       4.278232014044e+00 
       2.090537352463e-02       4.210202275381e+00 
       2.257309535333e-02       4.111418848130e+00 
       2.437382002918e-02       3.982422483311e+00 
       2.631799944462e-02       3.825163984757e+00 
       2.841644545389e-02       3.643281688883e+00 
       3.067933355377e-02       3.442197269299e+00 
       3.311368470740e-02       3.229232771959e+00 
       3.571840443502e-02       3.013519335204e+00 
       3.847720348444e-02       2.805286156486e+00 
       4.135335538431e-02       2.614413310791e+00 
       4.429361667738e-02       2.448131386515e+00 
       4.724366439141e-02       2.309242124407e+00 
       5.016480835311e-02       2.196113880665e+00 
       5.303989620246e-02       2.104365759486e+00 
       5.586870669566e-02       2.028465428349e+00 
       5.866042680613e-02       1.963154740533e+00 
       6.142798932958e-02       1.903779548752e+00 
       6.418496440164e-02       1.846479017584e+00 
       6.694418833788e-02       1.788197286729e+00 
       6.971731106057e-02       1.726713786222e+00 
       7.251476155766e-02       1.660651269847e+00 
       7.534587671527e-02       1.589470075299e+00 
       7.821907666265e-02       1.513433602258e+00 
       8.114203772912e-02       1.433568982974e+00 
       8.412184535029e-02       1.351492974815e+00 
       8.716512279304e-02       1.269273360038e+00 
       9.027813695930e-02       1.189193264288e+00 
       9.346688431697e-02       1.113499529195e+00 
       9.673716028276e-02       1.044176933627e+00 
       1.000946150830e-01       9.827067623685e-01 
       1.035447986537e-01       9.299378880850e-01 
       1.070931966762e-01       8.859555416660e-01 
       1.107452594425e-01       8.500699518261e-01 
       1.145064249153e-01       8.208037620581e-01 
       1.183821370918e-01       7.960243790468e-01 
       1.223778605862e-01       7.731452307090e-01 
       1.264990921987e-01       7.494512968426e-01 
       1.307513701367e-01       7.225578956665e-01 
       1.351402814784e-01       6.909087887642e-01 
       1.396714684203e-01       6.541803860908e-01 
       1.443506338194e-01       6.134265562878e-01 
       1.491835465229e-01       5.708678953234e-01 
       1.541760469708e-01       5.293632467659e-01 
       1.593340535561e-01       4.917090880890e-01 
       1.646635702297e-01       4.599180178967e-01 
       1.701706958456e-01       4.347272966851e-01 
       1.758616357459e-01       4.154059272816e-01 
       1.817427160982e-01       3.999341208550e-01 
       1.878204015065e-01       3.856813084838e-01 
       1.941013164283e-01       3.698068966961e-01 
       2.005922709503e-01       3.505440754800e-01 
       2.073002914972e-01       3.280430236185e-01 
       2.142326570816e-01       3.042115473920e-01 
       2.213969417533e-01       2.816072552906e-01 
       2.288010639706e-01       2.622538144170e-01 
       2.364533437147e-01       2.469587984015e-01 
       2.443625682930e-01       2.350097560912e-01 
       2.525380679504e-01       2.244132194127e-01 
       2.609898026346e-01       2.130905139025e-01 
       2.697284615565e-01       2.000973997756e-01 
       2.787655775689e-01       1.860160378318e-01 
       2.881136588829e-01       1.725120694735e-01 
       2.977863412677e-01       1.610608871859e-01 
       3.077985646929e-01       1.517549533020e-01 
       3.181667794071e-01       1.435533512727e-01 
       3.289091877812e-01       1.351752911722e-01 
       3.400460299658e-01       1.261574944837e-01 
       3.515999236474e-01       1.171948613457e-01 
       3.635962711085e-01       1.091696121620e-01 
       3.760637506334e-01       1.023015467077e-01 
       3.890349143879e-01       9.592950238260e-02 
       4.025469216825e-01       8.949907007952e-02 
       4.166424456376e-01       8.310259526910e-02 
       4.313708035863e-01       7.720572285048e-02 
       4.467893782977e-01       7.189038911581e-02 
       4.629654199664e-01       6.685837980959e-02 
       4.799783501994e-01       6.190625801452e-02 
       4.979227319373e-01       5.721015065773e-02 
       5.169121270864e-01       5.289025245357e-02 
       5.370841404489e-01       4.875632349913e-02 
       5.586070464571e-01       4.477674878626e-02 
       5.816885094930e-01       4.103683756923e-02 
       6.065870144995e-01       3.747386407601e-02 
       6.336266468475e-01       3.405928385575e-02 
       6.632156059511e-01       3.081640992168e-02 
       6.958678639263e-01       2.770886750921e-02 
       7.322247985589e-01       2.474615425389e-02 
       7.730680195114e-01       2.191696874397e-02 
       8.193049553677e-01       1.923166087288e-02 
       8.718988016039e-01       1.670275345238e-02 
       9.317218031082e-01       1.435507710214e-02 
       9.993660908989e-01       1.221876879889e-02 
       1.075037110174e+00       1.031742866855e-02 
       1.158653485707e+00       8.660937204199e-03 
       1.250099157308e+00       7.241795422122e-03 
       1.349432401273e+00       6.038304310163e-03 
       1.456947457397e+00       5.023860943612e-03 
       1.573135111331e+00       4.171290882338e-03 
       1.698621895592e+00       3.456009196583e-03 
       1.834127512934e+00       2.856527209844e-03 
       1.980444934528e+00       2.354392523038e-03 
       2.138435191726e+00       1.934023051185e-03 
       2.309029199186e+00       1.582229410073e-03 
       2.493232377687e+00       1.287917656060e-03 
       2.692130395285e+00       1.041693519626e-03 
       2.906895534573e+00       8.357816172331e-04 
       3.138793597714e+00       6.636624056300e-04 
       3.389191366484e+00       5.199558247885e-04 
       3.659564657905e+00       4.002559233094e-04 
       3.951507022538e+00       3.009928446071e-04 
       4.266739136701e+00       2.193307754671e-04 
       4.607118943941e+00       1.530220601643e-04 
       4.974652605557e+00       1.003436963424e-04 
       5.371506324689e+00       5.995903466227e-05 
       5.800019113685e+00       3.078607832178e-05 
       6.262716579983e+00       1.184545635862e-05 
       6.762325811764e+00       2.081293402194e-06 
       7.301791451110e+00       1.736454244820e-07 
       7.884293049406e+00       4.375072555346e-06 
       8.513263807261e+00       1.242699162551e-05 
       9.192410809424e+00       2.163192961941e-05 
       9.925736873929e+00       2.914993035901e-05 
       1.071756414427e+01       3.254752500828e-05 
       1.157255956364e+01       3.051283311415e-05 
       1.249576238137e+01       2.348336202421e-05 
       1.349261385375e+01       1.380663896743e-05 
       1.456898931416e+01       5.043005901083e-06 
       1.573123280165e+01       3.868290205093e-07 
       1.698619445202e+01       8.235735831297e-07 
       1.834127087176e+01       4.282756185870e-06 
       1.980444873285e+01       6.903811682167e-06 
       2.138435184532e+01       6.057806300711e-06 
       2.309029198506e+01       2.685681698463e-06 
       2.493232377636e+01       1.969430889096e-07 
       2.692130395282e+01       4.656291737061e-07 
       2.906895534573e+01       1.685780380163e-06 
       3.138793597714e+01       1.388914919251e-06 
       3.389191366484e+01       2.236671460528e-07 
       3.659564657905e+01       1.084872922737e-07 
       3.951507022538e+01       4.800041127631e-07 
       4.266739136701e+01       1.896200216179e-07 
       4.607118943941e+01       1.021249004813e-08 
       4.974652605557e+01       1.311576334241e-07 
       5.371506324689e+01       2.471212092341e-08 
       5.800019113685e+01       2.142213069767e-08 
       6.262716579983e+01       1.993206445664e-08 
       6.762325811764e+01       3.038038915841e-09 
