# Matter power spectrum P(k) at redshift z=99
# for k=1.04775e-05 to 134.926 h/Mpc,
# number of wavenumbers equal to 255
#    1:k (h/Mpc)              2:P (Mpc/h)^3        
       1.047750691338e-05       7.261927095437e-03 
       1.131335172818e-05       7.820332150919e-03 
       1.221587619877e-05       8.421675382506e-03 
       1.319039970550e-05       9.069257738193e-03 
       1.424266598317e-05       9.766636451330e-03 
       1.537887697396e-05       1.051763973663e-02 
       1.660572938097e-05       1.132639250776e-02 
       1.793045413791e-05       1.219733201534e-02 
       1.936085902737e-05       1.313524187231e-02 
       2.090537469909e-05       1.414527085008e-02 
       2.257310435923e-05       1.523296544525e-02 
       2.437387742372e-05       1.640429654676e-02 
       2.631830745176e-05       1.766569603325e-02 
       2.841785470091e-05       1.902408711205e-02 
       3.068489367268e-05       2.048692967490e-02 
       3.313278604643e-05       2.206225467598e-02 
       3.577595943165e-05       2.375870883906e-02 
       3.862999240274e-05       2.558560669880e-02 
       4.171170631739e-05       2.755297672570e-02 
       4.503926445983e-05       2.967161933480e-02 
       4.863227909323e-05       3.195316455729e-02 
       5.251192705226e-05       3.441013466213e-02 
       5.670107455699e-05       3.705601741787e-02 
       6.122441198393e-05       3.990533412927e-02 
       6.610859938837e-05       4.297372242629e-02 
       7.138242363583e-05       4.627802054956e-02 
       7.707696806873e-05       4.983636160001e-02 
       8.322579570814e-05       5.366826787055e-02 
       8.986514707061e-05       5.779476319865e-02 
       9.703415376577e-05       6.223848221977e-02 
       1.047750691338e-04       6.702379825174e-02 
       1.131335172818e-04       7.217695031244e-02 
       1.221587619877e-04       7.772619030539e-02 
       1.319039970550e-04       8.370193380231e-02 
       1.424266598317e-04       9.013692506874e-02 
       1.537887697396e-04       9.706641130622e-02 
       1.660572938097e-04       1.045283343135e-01 
       1.793045413791e-04       1.125635329211e-01 
       1.936085902737e-04       1.212159592338e-01 
       2.090537469909e-04       1.305329107466e-01 
       2.257310435923e-04       1.405652819394e-01 
       2.437387742372e-04       1.513678275112e-01 
       2.631830745176e-04       1.629994475172e-01 
       2.841785470091e-04       1.755234890520e-01 
       3.068489367268e-04       1.890080645344e-01 
       3.313278604643e-04       2.035263977480e-01 
       3.577595943165e-04       2.191571778097e-01 
       3.862999240274e-04       2.359849423316e-01 
       4.171170631739e-04       2.541004713062e-01 
       4.503926445983e-04       2.736012061223e-01 
       4.863227909323e-04       2.945916774712e-01 
       5.251192705226e-04       3.171839507936e-01 
       5.670107455699e-04       3.414980769185e-01 
       6.122441198393e-04       3.676625416382e-01 
       6.610859938837e-04       3.958147272949e-01 
       7.138242363583e-04       4.261013332153e-01 
       7.707696806873e-04       4.586787880941e-01 
       8.322579570814e-04       4.937136112914e-01 
       8.986514707061e-04       5.313826962170e-01 
       9.703415376577e-04       5.718735176897e-01 
       1.047750691338e-03       6.153841926340e-01 
       1.131335172818e-03       6.621233623206e-01 
       1.221587619877e-03       7.123098743726e-01 
       1.319039970550e-03       7.661721263844e-01 
       1.424266598317e-03       8.239547181331e-01 
       1.537887697396e-03       8.859012282804e-01 
       1.660572938097e-03       9.522589495682e-01 
       1.793045413791e-03       1.023280284722e+00 
       1.936085902737e-03       1.099216542102e+00 
       2.090537469909e-03       1.180313285021e+00 
       2.257310435923e-03       1.266804486778e+00 
       2.437387742372e-03       1.358905328413e+00 
       2.631830745176e-03       1.456803285874e+00 
       2.841785470091e-03       1.560647662927e+00 
       3.068489367268e-03       1.670537010422e+00 
       3.313278604643e-03       1.786505039427e+00 
       3.577595943165e-03       1.908504409833e+00 
       3.862999240274e-03       2.036389468380e+00 
       4.171170631739e-03       2.169898252305e+00 
       4.503926445983e-03       2.308634491321e+00 
       4.863227909323e-03       2.452050673936e+00 
       5.251192705226e-03       2.599434680053e+00 
       5.670107455699e-03       2.749901125085e+00 
       6.122441198393e-03       2.902390056577e+00 
       6.610859938837e-03       3.055671267617e+00 
       7.138242363583e-03       3.208360120072e+00 
       7.707696806873e-03       3.358926647902e+00 
       8.322579570814e-03       3.505726885578e+00 
       8.986514707061e-03       3.647012432573e+00 
       9.703415376577e-03       3.780926172887e+00 
       1.047750691338e-02       3.905492872829e+00 
       1.131335172818e-02       4.018589816526e+00 
       1.221587619877e-02       4.117902877316e+00 
       1.319039970550e-02       4.200917686614e+00 
       1.424266598317e-02       4.264943722530e+00 
       1.537887697392e-02       4.307219650202e+00 
       1.660572938023e-02       4.325062434846e+00 
       1.793045412706e-02       4.316060365024e+00 
       1.936085890181e-02       4.278228900145e+00 
       2.090537352463e-02       4.210204435257e+00 
       2.257309535333e-02       4.111418703335e+00 
       2.437382002918e-02       3.982420882998e+00 
       2.631799944462e-02       3.825168621742e+00 
       2.841644545389e-02       3.643282171501e+00 
       3.067933355377e-02       3.442198617443e+00 
       3.311368470740e-02       3.229241496018e+00 
       3.571840443502e-02       3.013516218456e+00 
       3.847720348444e-02       2.805283813876e+00 
       4.135335538431e-02       2.614410523743e+00 
       4.429361667738e-02       2.448132027054e+00 
       4.724366439141e-02       2.309240477411e+00 
       5.016480835311e-02       2.196115010334e+00 
       5.303989620246e-02       2.104369660682e+00 
       5.586870669566e-02       2.028462380497e+00 
       5.866042680613e-02       1.963155083650e+00 
       6.142798932958e-02       1.903779464752e+00 
       6.418496440164e-02       1.846478945629e+00 
       6.694418833788e-02       1.788197189572e+00 
       6.971731106057e-02       1.726715362701e+00 
       7.251476155766e-02       1.660654037429e+00 
       7.534587671527e-02       1.589469460496e+00 
       7.821907666265e-02       1.513436133600e+00 
       8.114203772912e-02       1.433568268270e+00 
       8.412184535029e-02       1.351491699885e+00 
       8.716512279304e-02       1.269273106082e+00 
       9.027813695930e-02       1.189192452896e+00 
       9.346688431697e-02       1.113500208136e+00 
       9.673716028276e-02       1.044173531575e+00 
       1.000946150830e-01       9.827049409579e-01 
       1.035447986537e-01       9.299366131115e-01 
       1.070931966762e-01       8.859571582958e-01 
       1.107452594425e-01       8.500695788708e-01 
       1.145064249153e-01       8.208016283557e-01 
       1.183821370918e-01       7.960223379019e-01 
       1.223778605862e-01       7.731435338532e-01 
       1.264990921987e-01       7.494500643445e-01 
       1.307513701367e-01       7.225549598074e-01 
       1.351402814784e-01       6.909067731510e-01 
       1.396714684203e-01       6.541793418307e-01 
       1.443506338194e-01       6.134245762406e-01 
       1.491835465229e-01       5.708650211742e-01 
       1.541760469708e-01       5.293600998333e-01 
       1.593340535561e-01       4.917064113877e-01 
       1.646635702297e-01       4.599152578338e-01 
       1.701706958456e-01       4.347229264712e-01 
       1.758616357459e-01       4.154024962752e-01 
       1.817427160982e-01       3.999305430231e-01 
       1.878204015065e-01       3.856797151961e-01 
       1.941013164283e-01       3.698072706035e-01 
       2.005922709503e-01       3.505434863279e-01 
       2.073002914972e-01       3.280395325190e-01 
       2.142326570816e-01       3.042059858000e-01 
       2.213969417533e-01       2.816034837888e-01 
       2.288010639706e-01       2.622482826776e-01 
       2.364533437147e-01       2.469528225794e-01 
       2.443625682930e-01       2.350034258030e-01 
       2.525380679504e-01       2.244102880927e-01 
       2.609898026346e-01       2.130851414151e-01 
       2.697284615565e-01       2.000911501327e-01 
       2.787655775689e-01       1.860081426219e-01 
       2.881136588829e-01       1.725047119634e-01 
       2.977863412677e-01       1.610531192982e-01 
       3.077985646929e-01       1.517471609372e-01 
       3.181667794071e-01       1.435450204845e-01 
       3.289091877812e-01       1.351669240841e-01 
       3.400460299658e-01       1.261485316940e-01 
       3.515999236474e-01       1.171851068890e-01 
       3.635962711085e-01       1.091593387101e-01 
       3.760637506334e-01       1.022909571725e-01 
       3.890349143879e-01       9.591840376369e-02 
       4.025469216825e-01       8.948737742281e-02 
       4.166424456376e-01       8.309026831351e-02 
       4.313708035863e-01       7.719305328499e-02 
       4.467893782977e-01       7.187691092330e-02 
       4.629654199664e-01       6.684414429748e-02 
       4.799783501994e-01       6.189134575935e-02 
       4.979227319373e-01       5.719467404548e-02 
       5.169121270864e-01       5.287386223296e-02 
       5.370841404489e-01       4.873913234902e-02 
       5.586070464571e-01       4.475852373369e-02 
       5.816885094930e-01       4.101774630949e-02 
       6.065870144995e-01       3.745372025691e-02 
       6.336266468475e-01       3.403790788871e-02 
       6.632156059511e-01       3.079390269524e-02 
       6.958678639263e-01       2.768474380473e-02 
       7.322247985589e-01       2.472039976330e-02 
       7.730680195114e-01       2.188942502485e-02 
       8.193049553677e-01       1.920208288554e-02 
       8.718988016039e-01       1.667056531635e-02 
       9.317218031082e-01       1.432011650839e-02 
       9.993660908989e-01       1.218064202681e-02 
       1.075037110174e+00       1.027577251106e-02 
       1.158653485707e+00       8.615402750608e-03 
       1.250099157308e+00       7.191934673355e-03 
       1.349432401273e+00       5.983882162395e-03 
       1.456947457397e+00       4.964371666776e-03 
       1.573135111331e+00       4.106527733691e-03 
       1.698621895592e+00       3.385706117680e-03 
       1.834127512934e+00       2.780507258901e-03 
       1.980444934528e+00       2.272290552669e-03 
       2.138435191726e+00       1.846156139680e-03 
       2.309029199186e+00       1.488638715619e-03 
       2.493232377687e+00       1.188860775333e-03 
       2.692130395285e+00       9.375596484585e-04 
       2.906895534573e+00       7.276294164461e-04 
       3.138793597714e+00       5.527758956771e-04 
       3.389191366484e+00       4.080670070117e-04 
       3.659564657905e+00       2.895156101067e-04 
       3.951507022538e+00       1.946808821307e-04 
       4.266739136701e+00       1.206831395727e-04 
       4.607118943941e+00       6.585912043027e-05 
       4.974652605557e+00       2.867000649884e-05 
       5.371506324689e+00       7.358419061405e-06 
       5.800019113685e+00       5.646490388437e-08 
       6.262716579983e+00       4.084520788363e-06 
       6.762325811764e+00       1.593020169473e-05 
       7.301791451110e+00       3.121545896285e-05 
       7.884293049406e+00       4.513418799334e-05 
       8.513263807261e+00       5.348354116989e-05 
       9.192410809424e+00       5.294589611781e-05 
       9.925736873929e+00       4.371517936066e-05 
       1.071756414427e+01       2.807533912358e-05 
       1.157255956364e+01       1.234914570320e-05 
       1.249576238137e+01       2.038522951810e-06 
       1.349261385375e+01       3.906179419733e-07 
       1.456898931416e+01       5.253419725142e-06 
       1.573123280165e+01       1.065175668199e-05 
       1.698619445202e+01       1.087436483328e-05 
       1.834127087176e+01       6.102859451614e-06 
       1.980444873285e+01       1.001513201670e-06 
       2.138435184532e+01       2.870912459179e-07 
       2.309029198506e+01       2.271153823779e-06 
       2.493232377636e+01       2.436124717809e-06 
       2.692130395282e+01       7.182496705141e-07 
       2.906895534573e+01       3.144956812079e-08 
       3.138793597714e+01       6.858064080862e-07 
       3.389191366484e+01       4.575907238690e-07 
       3.659564657905e+01       2.172222616213e-09 
       3.951507022538e+01       1.787288119366e-07 
       4.266739136701e+01       7.332921187266e-08 
       4.607118943941e+01       6.885193830212e-09 
       4.974652605557e+01       2.463113850968e-08 
       5.371506324689e+01       1.568256343666e-10 
       5.800019113685e+01       7.617512075236e-09 
       6.262716579983e+01       6.915718192131e-10 
       6.762325811764e+01       6.005036275992e-10 
       7.301791451110e+01       1.059092125009e-09 
       7.884293049406e+01       1.101121019281e-10 
       8.513263807261e+01       5.071199691220e-12 
       9.192410809424e+01       1.163451922851e-10 
       9.925736873929e+01       1.637520938377e-10 
       1.071756414427e+02       1.970569555595e-10 
       1.157255956364e+02       2.499754519167e-10 
       1.249576238137e+02       2.262954241740e-12 
       1.349261385375e+02       1.029538460797e-12 
