# Matter power spectrum P(k) at redshift z=0
# for k=1.04775e-05 to 67.6233 h/Mpc,
# number of wavenumbers equal to 246
#    1:k (h/Mpc)              2:P (Mpc/h)^3        
       1.047750691338e-05       5.020964806750e+01 
       1.131335172818e-05       5.407048206553e+01 
       1.221587619877e-05       5.822819064136e+01 
       1.319039970550e-05       6.270562589684e+01 
       1.424266598317e-05       6.752731788102e+01 
       1.537887697396e-05       7.271977200258e+01 
       1.660572938097e-05       7.831147241542e+01 
       1.793045413791e-05       8.433311815128e+01 
       1.936085902737e-05       9.081778242446e+01 
       2.090537469909e-05       9.780108061342e+01 
       2.257310435923e-05       1.053213197032e+02 
       2.437387742372e-05       1.134197377001e+02 
       2.631830745176e-05       1.221408202816e+02 
       2.841785470091e-05       1.315324720916e+02 
       3.068489367268e-05       1.416462093730e+02 
       3.313278604643e-05       1.525374500691e+02 
       3.577595943165e-05       1.642660687078e+02 
       3.862999240274e-05       1.768963504868e+02 
       4.171170631739e-05       1.904975992460e+02 
       4.503926445983e-05       2.051444490305e+02 
       4.863227909323e-05       2.209171463752e+02 
       5.251192705226e-05       2.379022222314e+02 
       5.670107455699e-05       2.561927925427e+02 
       6.122441198393e-05       2.758890441791e+02 
       6.610859938837e-05       2.970989225467e+02 
       7.138242363583e-05       3.199385558200e+02 
       7.707696806873e-05       3.445329780878e+02 
       8.322579570814e-05       3.710167315928e+02 
       8.986514707061e-05       3.995346440954e+02 
       9.703415376577e-05       4.302425403884e+02 
       1.047750691338e-04       4.633080762974e+02 
       1.131335172818e-04       4.989116267507e+02 
       1.221587619877e-04       5.372471946561e+02 
       1.319039970550e-04       5.785234124641e+02 
       1.424266598317e-04       6.229645930980e+02 
       1.537887697396e-04       6.708118484951e+02 
       1.660572938097e-04       7.223242660220e+02 
       1.793045413791e-04       7.777801553915e+02 
       1.936085902737e-04       8.374783607333e+02 
       2.090537469909e-04       9.017396264495e+02 
       2.257310435923e-04       9.709080260151e+02 
       2.437387742372e-04       1.045352448644e+03 
       2.631830745176e-04       1.125468122836e+03 
       2.841785470091e-04       1.211678179510e+03 
       3.068489367268e-04       1.304435249091e+03 
       3.313278604643e-04       1.404223052541e+03 
       3.577595943165e-04       1.511558013390e+03 
       3.862999240274e-04       1.626990836455e+03 
       4.171170631739e-04       1.751108027370e+03 
       4.503926445983e-04       1.884533381345e+03 
       4.863227909323e-04       2.027929376470e+03 
       5.251192705226e-04       2.181998446367e+03 
       5.670107455699e-04       2.347484100856e+03 
       6.122441198393e-04       2.525171869336e+03 
       6.610859938837e-04       2.715889981399e+03 
       7.138242363583e-04       2.920509686081e+03 
       7.707696806873e-04       3.139945097708e+03 
       8.322579570814e-04       3.375152334394e+03 
       8.986514707061e-04       3.627127828228e+03 
       9.703415376577e-04       3.896905450012e+03 
       1.047750691338e-03       4.185552170958e+03 
       1.131335172818e-03       4.494162426785e+03 
       1.221587619877e-03       4.823850702662e+03 
       1.319039970550e-03       5.175742737716e+03 
       1.424266598317e-03       5.551019592515e+03 
       1.537887697396e-03       5.950788335866e+03 
       1.660572938097e-03       6.376123046764e+03 
       1.793045413791e-03       6.828073896099e+03 
       1.936085902737e-03       7.307625375355e+03 
       2.090537469909e-03       7.815671859915e+03 
       2.257310435923e-03       8.352990369344e+03 
       2.437387742372e-03       8.920211057453e+03 
       2.631830745176e-03       9.517783061807e+03 
       2.841785470091e-03       1.014593703661e+04 
       3.068489367268e-03       1.080464505723e+04 
       3.313278604643e-03       1.149357459461e+04 
       3.577595943165e-03       1.221203620805e+04 
       3.862999240274e-03       1.295892538479e+04 
       4.171170631739e-03       1.373266002534e+04 
       4.503926445983e-03       1.453111834553e+04 
       4.863227909323e-03       1.535154982708e+04 
       5.251192705226e-03       1.619063604447e+04 
       5.670107455699e-03       1.704431256097e+04 
       6.122441198393e-03       1.790755943663e+04 
       6.610859938837e-03       1.877460398530e+04 
       7.138242363583e-03       1.963872446090e+04 
       7.707696806873e-03       2.049215712770e+04 
       8.322579570814e-03       2.132611394529e+04 
       8.986514707061e-03       2.213054872664e+04 
       9.703415376577e-03       2.289445534857e+04 
       1.047750691338e-02       2.360549260050e+04 
       1.131335172818e-02       2.425022962709e+04 
       1.221587619877e-02       2.481423937674e+04 
       1.319039970550e-02       2.528219341243e+04 
       1.424266598317e-02       2.563814567068e+04 
       1.537887697392e-02       2.586607084474e+04 
       1.660572938023e-02       2.595029548878e+04 
       1.793045412706e-02       2.587634518302e+04 
       1.936085890181e-02       2.563220102426e+04 
       2.090537352463e-02       2.520935950218e+04 
       2.257309535333e-02       2.460444855513e+04 
       2.437382002918e-02       2.382087394845e+04 
       2.631799944462e-02       2.287054446438e+04 
       2.841644545389e-02       2.177461240482e+04 
       3.067933355377e-02       2.056550621226e+04 
       3.311368470740e-02       1.928721062934e+04 
       3.571840443502e-02       1.799404229167e+04 
       3.847720348444e-02       1.674678882746e+04 
       4.135335538431e-02       1.560459611409e+04 
       4.429361667738e-02       1.461033471200e+04 
       4.724366439141e-02       1.378054453990e+04 
       5.016480835311e-02       1.310503911825e+04 
       5.303989620246e-02       1.255713344935e+04 
       5.586870669566e-02       1.210424911296e+04 
       5.866042680613e-02       1.171468934448e+04 
       6.142798932958e-02       1.136046863061e+04 
       6.418496440164e-02       1.101858745901e+04 
       6.694418833788e-02       1.067069246636e+04 
       6.971731106057e-02       1.030354466168e+04 
       7.251476155766e-02       9.909063560284e+03 
       7.534587671527e-02       9.483705772817e+03 
       7.821907666265e-02       9.029414953136e+03 
       8.114203772912e-02       8.552216124384e+03 
       8.412184535029e-02       8.061949847310e+03 
       8.716512279304e-02       7.570808676191e+03 
       9.027813695930e-02       7.092470428060e+03 
       9.346688431697e-02       6.640529252775e+03 
       9.673716028276e-02       6.226727824152e+03 
       1.000946150830e-01       5.859947401910e+03 
       1.035447986537e-01       5.545247692458e+03 
       1.070931966762e-01       5.283167392658e+03 
       1.107452594425e-01       5.069436726152e+03 
       1.145064249153e-01       4.895268333912e+03 
       1.183821370918e-01       4.747860031474e+03 
       1.223778605862e-01       4.611736357975e+03 
       1.264990921987e-01       4.470612938024e+03 
       1.307513701367e-01       4.310234246184e+03 
       1.351402814784e-01       4.121384317994e+03 
       1.396714684203e-01       3.902057912301e+03 
       1.443506338194e-01       3.658651816803e+03 
       1.491835465229e-01       3.404479143569e+03 
       1.541760469708e-01       3.156649252236e+03 
       1.593340535561e-01       2.931932795350e+03 
       1.646635702297e-01       2.742355516459e+03 
       1.701706958456e-01       2.592236196474e+03 
       1.758616357459e-01       2.477220639387e+03 
       1.817427160982e-01       2.385164900679e+03 
       1.878204015065e-01       2.300353210150e+03 
       1.941013164283e-01       2.205765275809e+03 
       2.005922709503e-01       2.090837682948e+03 
       2.073002914972e-01       1.956455154311e+03 
       2.142326570816e-01       1.814176309872e+03 
       2.213969417533e-01       1.679269908572e+03 
       2.288010639706e-01       1.563833912818e+03 
       2.364533437147e-01       1.472669258916e+03 
       2.443625682930e-01       1.401505688160e+03 
       2.525380679504e-01       1.338419392198e+03 
       2.609898026346e-01       1.270897173452e+03 
       2.697284615565e-01       1.193373087729e+03 
       2.787655775689e-01       1.109316953484e+03 
       2.881136588829e-01       1.028757782832e+03 
       2.977863412677e-01       9.604717103966e+02 
       3.077985646929e-01       9.050094662520e+02 
       3.181667794071e-01       8.561292695980e+02 
       3.289091877812e-01       8.061764625633e+02 
       3.400460299658e-01       7.523728306713e+02 
       3.515999236474e-01       6.989075598240e+02 
       3.635962711085e-01       6.510489221859e+02 
       3.760637506334e-01       6.101061218151e+02 
       3.890349143879e-01       5.721120722396e+02 
       4.025469216825e-01       5.337625365520e+02 
       4.166424456376e-01       4.956147175120e+02 
       4.313708035863e-01       4.604520400717e+02 
       4.467893782977e-01       4.287594908406e+02 
       4.629654199664e-01       3.987545227852e+02 
       4.799783501994e-01       3.692246020931e+02 
       4.979227319373e-01       3.412197800780e+02 
       5.169121270864e-01       3.154630178130e+02 
       5.370841404489e-01       2.908148734836e+02 
       5.586070464571e-01       2.670839343077e+02 
       5.816885094930e-01       2.447854265010e+02 
       6.065870144995e-01       2.235431856290e+02 
       6.336266468475e-01       2.031837755568e+02 
       6.632156059511e-01       1.838507211482e+02 
       6.958678639263e-01       1.653248275276e+02 
       7.322247985589e-01       1.476635522093e+02 
       7.730680195114e-01       1.307997632013e+02 
       8.193049553677e-01       1.147948050642e+02 
       8.718988016039e-01       9.972318501803e+01 
       9.317218031082e-01       8.573424541681e+01 
       9.993660908989e-01       7.300701559053e+01 
       1.075037110174e+00       6.168343919058e+01 
       1.158653485707e+00       5.182096046122e+01 
       1.250099157308e+00       4.337622034121e+01 
       1.349432401273e+00       3.621866712715e+01 
       1.456947457397e+00       3.018990635026e+01 
       1.573135111331e+00       2.512862370802e+01 
       1.698621895592e+00       2.088738255916e+01 
       1.834127512934e+00       1.733834794515e+01 
       1.980444934528e+00       1.437135766584e+01 
       2.138435191726e+00       1.189358569904e+01 
       2.309029199186e+00       9.825906522087e+00 
       2.493232377687e+00       8.101752216050e+00 
       2.692130395285e+00       6.664831852477e+00 
       2.906895534573e+00       5.467901699662e+00 
       3.138793597714e+00       4.471155162258e+00 
       3.389191366484e+00       3.641215985884e+00 
       3.659564657905e+00       2.950319118281e+00 
       3.951507022538e+00       2.375143834198e+00 
       4.266739136701e+00       1.896384727597e+00 
       4.607118943941e+00       1.498063805701e+00 
       4.974652605557e+00       1.167088528467e+00 
       5.371506324689e+00       8.927420836965e-01 
       5.800019113685e+00       6.664129946503e-01 
       6.262716579983e+00       4.812591893371e-01 
       6.762325811764e+00       3.319352753062e-01 
       7.301791451110e+00       2.142996005746e-01 
       7.884293049406e+00       1.251260795774e-01 
       8.513263807261e+00       6.179359555632e-02 
       9.192410809424e+00       2.188888773339e-02 
       9.925736873929e+00       2.791394007866e-03 
       1.071756414427e+01       1.236917152422e-03 
       1.157255956364e+01       1.296100714949e-02 
       1.249576238137e+01       3.254800775255e-02 
       1.349261385375e+01       5.366829583862e-02 
       1.456898931416e+01       6.984205742346e-02 
       1.573123280165e+01       7.578397985162e-02 
       1.698619445202e+01       6.904172142026e-02 
       1.834127087176e+01       5.134022173372e-02 
       1.980444873285e+01       2.867741984872e-02 
       2.138435184532e+01       9.401562962179e-03 
       2.309029198506e+01       3.552299159319e-04 
       2.493232377636e+01       2.790145023691e-03 
       2.692130395282e+01       1.103022374648e-02 
       2.906895534573e+01       1.613657215681e-02 
       3.138793597714e+01       1.304480111161e-02 
       3.389191366484e+01       5.087474741141e-03 
       3.659564657905e+01       1.765424787105e-04 
       3.951507022538e+01       1.465233514422e-03 
       4.266739136701e+01       3.988811930143e-03 
       4.607118943941e+01       2.790787349940e-03 
       4.974652605557e+01       2.923668808120e-04 
       5.371506324689e+01       3.771852626733e-04 
       5.800019113685e+01       1.064618708939e-03 
       6.262716579983e+01       3.013991453718e-04 
       6.762325811764e+01       5.605599858600e-05 
