# Matter power spectrum P(k) at redshift z=0
# for k=1.04775e-05 to 67.6233 h/Mpc,
# number of wavenumbers equal to 246
#    1:k (h/Mpc)              2:P (Mpc/h)^3        
       1.047750691338e-05       5.020964806750e+01 
       1.131335172818e-05       5.407048206553e+01 
       1.221587619877e-05       5.822819063961e+01 
       1.319039970550e-05       6.270562589680e+01 
       1.424266598317e-05       6.752731788102e+01 
       1.537887697396e-05       7.271977200257e+01 
       1.660572938097e-05       7.831147241541e+01 
       1.793045413791e-05       8.433311815128e+01 
       1.936085902737e-05       9.081778242446e+01 
       2.090537469909e-05       9.780108061342e+01 
       2.257310435923e-05       1.053213197032e+02 
       2.437387742372e-05       1.134197377001e+02 
       2.631830745176e-05       1.221408202815e+02 
       2.841785470091e-05       1.315324720916e+02 
       3.068489367268e-05       1.416462093730e+02 
       3.313278604643e-05       1.525374500691e+02 
       3.577595943165e-05       1.642660687078e+02 
       3.862999240274e-05       1.768963504868e+02 
       4.171170631739e-05       1.904975992460e+02 
       4.503926445983e-05       2.051444490305e+02 
       4.863227909323e-05       2.209171463752e+02 
       5.251192705226e-05       2.379022222314e+02 
       5.670107455699e-05       2.561927925625e+02 
       6.122441198393e-05       2.758890441791e+02 
       6.610859938837e-05       2.970989225466e+02 
       7.138242363583e-05       3.199385558200e+02 
       7.707696806873e-05       3.445329780878e+02 
       8.322579570814e-05       3.710167315928e+02 
       8.986514707061e-05       3.995346440954e+02 
       9.703415376577e-05       4.302425403884e+02 
       1.047750691338e-04       4.633080762974e+02 
       1.131335172818e-04       4.989116267507e+02 
       1.221587619877e-04       5.372471946561e+02 
       1.319039970550e-04       5.785234124632e+02 
       1.424266598317e-04       6.229645930980e+02 
       1.537887697396e-04       6.708118484951e+02 
       1.660572938097e-04       7.223242660220e+02 
       1.793045413791e-04       7.777801553600e+02 
       1.936085902737e-04       8.374783607333e+02 
       2.090537469909e-04       9.017396264495e+02 
       2.257310435923e-04       9.709080260152e+02 
       2.437387742372e-04       1.045352448644e+03 
       2.631830745176e-04       1.125468122836e+03 
       2.841785470091e-04       1.211678179510e+03 
       3.068489367268e-04       1.304435249091e+03 
       3.313278604643e-04       1.404223052541e+03 
       3.577595943165e-04       1.511558013390e+03 
       3.862999240274e-04       1.626990836472e+03 
       4.171170631739e-04       1.751108027370e+03 
       4.503926445983e-04       1.884533381345e+03 
       4.863227909323e-04       2.027929376470e+03 
       5.251192705226e-04       2.181998446367e+03 
       5.670107455699e-04       2.347484100857e+03 
       6.122441198393e-04       2.525171869334e+03 
       6.610859938837e-04       2.715889981400e+03 
       7.138242363583e-04       2.920509686083e+03 
       7.707696806873e-04       3.139945097709e+03 
       8.322579570814e-04       3.375152334394e+03 
       8.986514707061e-04       3.627127828230e+03 
       9.703415376577e-04       3.896905450014e+03 
       1.047750691338e-03       4.185552170962e+03 
       1.131335172818e-03       4.494162426788e+03 
       1.221587619877e-03       4.823850702668e+03 
       1.319039970550e-03       5.175742736573e+03 
       1.424266598317e-03       5.551019592512e+03 
       1.537887697396e-03       5.950788335867e+03 
       1.660572938097e-03       6.376123046758e+03 
       1.793045413791e-03       6.828073896109e+03 
       1.936085902737e-03       7.307625375372e+03 
       2.090537469909e-03       7.815671859504e+03 
       2.257310435923e-03       8.352990369376e+03 
       2.437387742372e-03       8.920211057518e+03 
       2.631830745176e-03       9.517783061852e+03 
       2.841785470091e-03       1.014593703666e+04 
       3.068489367268e-03       1.080464505724e+04 
       3.313278604643e-03       1.149357459536e+04 
       3.577595943165e-03       1.221203620817e+04 
       3.862999240274e-03       1.295892538493e+04 
       4.171170631739e-03       1.373266002254e+04 
       4.503926445983e-03       1.453111834576e+04 
       4.863227909323e-03       1.535154983540e+04 
       5.251192705226e-03       1.619063609373e+04 
       5.670107455699e-03       1.704431256383e+04 
       6.122441198393e-03       1.790755940817e+04 
       6.610859938837e-03       1.877460422342e+04 
       7.138242363583e-03       1.963872436838e+04 
       7.707696806873e-03       2.049215713216e+04 
       8.322579570814e-03       2.132606760644e+04 
       8.986514707061e-03       2.213055058103e+04 
       9.703415376577e-03       2.289445501107e+04 
       1.047750691338e-02       2.360548113381e+04 
       1.131335172818e-02       2.425022926094e+04 
       1.221587619877e-02       2.481423933486e+04 
       1.319039970550e-02       2.528219137644e+04 
       1.424266598317e-02       2.563814467886e+04 
       1.537887697392e-02       2.586606635446e+04 
       1.660572938023e-02       2.595026422200e+04 
       1.793045412706e-02       2.587635370273e+04 
       1.936085890181e-02       2.563219878632e+04 
       2.090537352463e-02       2.520933069071e+04 
       2.257309535333e-02       2.460447185437e+04 
       2.437382002918e-02       2.382091461211e+04 
       2.631799944462e-02       2.287047913786e+04 
       2.841644545389e-02       2.177451917223e+04 
       3.067933355377e-02       2.056557577640e+04 
       3.311368470740e-02       1.928726111468e+04 
       3.571840443502e-02       1.799402675028e+04 
       3.847720348444e-02       1.674680796014e+04 
       4.135335538431e-02       1.560459042350e+04 
       4.429361667738e-02       1.461041070340e+04 
       4.724366439141e-02       1.378052692034e+04 
       5.016480835311e-02       1.310501408131e+04 
       5.303989620246e-02       1.255718309363e+04 
       5.586870669566e-02       1.210423879122e+04 
       5.866042680613e-02       1.171469089754e+04 
       6.142798932958e-02       1.136053584830e+04 
       6.418496440164e-02       1.101861492637e+04 
       6.694418833788e-02       1.067076070487e+04 
       6.971731106057e-02       1.030362406093e+04 
       7.251476155766e-02       9.909090206417e+03 
       7.534587671527e-02       9.483732042083e+03 
       7.821907666265e-02       9.029485734018e+03 
       8.114203772912e-02       8.552347853438e+03 
       8.412184535029e-02       8.061987961744e+03 
       8.716512279304e-02       7.570791780460e+03 
       9.027813695930e-02       7.092498687789e+03 
       9.346688431697e-02       6.640531699110e+03 
       9.673716028276e-02       6.226762669576e+03 
       1.000946150830e-01       5.859995046573e+03 
       1.035447986537e-01       5.545290329371e+03 
       1.070931966762e-01       5.283150284725e+03 
       1.107452594425e-01       5.069435350773e+03 
       1.145064249153e-01       4.895239692686e+03 
       1.183821370918e-01       4.747857238693e+03 
       1.223778605862e-01       4.611744992602e+03 
       1.264990921987e-01       4.470618461127e+03 
       1.307513701367e-01       4.310295867581e+03 
       1.351402814784e-01       4.121328621485e+03 
       1.396714684203e-01       3.902066806324e+03 
       1.443506338194e-01       3.658653114398e+03 
       1.491835465229e-01       3.404481172437e+03 
       1.541760469708e-01       3.156654318435e+03 
       1.593340535561e-01       2.931939201119e+03 
       1.646635702297e-01       2.742352500980e+03 
       1.701706958456e-01       2.592237223968e+03 
       1.758616357459e-01       2.477220807154e+03 
       1.817427160982e-01       2.385161046465e+03 
       1.878204015065e-01       2.300352668769e+03 
       1.941013164283e-01       2.205775559702e+03 
       2.005922709503e-01       2.090830613933e+03 
       2.073002914972e-01       1.956468884234e+03 
       2.142326570816e-01       1.814179336875e+03 
       2.213969417533e-01       1.679267405213e+03 
       2.288010639706e-01       1.563833785565e+03 
       2.364533437147e-01       1.472667013369e+03 
       2.443625682930e-01       1.401513862240e+03 
       2.525380679504e-01       1.338421992640e+03 
       2.609898026346e-01       1.270897939355e+03 
       2.697284615565e-01       1.193358471226e+03 
       2.787655775689e-01       1.109332870268e+03 
       2.881136588829e-01       1.028763439828e+03 
       2.977863412677e-01       9.604747606796e+02 
       3.077985646929e-01       9.050176002742e+02 
       3.181667794071e-01       8.561371210782e+02 
       3.289091877812e-01       8.061807021945e+02 
       3.400460299658e-01       7.523811142913e+02 
       3.515999236474e-01       6.989146877852e+02 
       3.635962711085e-01       6.510564047187e+02 
       3.760637506334e-01       6.101173475953e+02 
       3.890349143879e-01       5.721279423023e+02 
       4.025469216825e-01       5.337760413959e+02 
       4.166424456376e-01       4.956233255326e+02 
       4.313708035863e-01       4.604637830920e+02 
       4.467893782977e-01       4.287687119886e+02 
       4.629654199664e-01       3.987682723073e+02 
       4.799783501994e-01       3.692353827398e+02 
       4.979227319373e-01       3.412355728460e+02 
       5.169121270864e-01       3.154784179163e+02 
       5.370841404489e-01       2.908307371601e+02 
       5.586070464571e-01       2.671008774386e+02 
       5.816885094930e-01       2.448050263366e+02 
       6.065870144995e-01       2.235651988513e+02 
       6.336266468475e-01       2.032076441550e+02 
       6.632156059511e-01       1.838760201114e+02 
       6.958678639263e-01       1.653518493481e+02 
       7.322247985589e-01       1.476922132432e+02 
       7.730680195114e-01       1.308312090275e+02 
       8.193049553677e-01       1.148285775487e+02 
       8.718988016039e-01       9.976009792191e+01 
       9.317218031082e-01       8.577446089719e+01 
       9.993660908989e-01       7.305243561240e+01 
       1.075037110174e+00       6.173290708152e+01 
       1.158653485707e+00       5.187556791554e+01 
       1.250099157308e+00       4.343635233026e+01 
       1.349432401273e+00       3.628511131497e+01 
       1.456947457397e+00       3.026357850178e+01 
       1.573135111331e+00       2.520953652211e+01 
       1.698621895592e+00       2.097671297651e+01 
       1.834127512934e+00       1.743657052797e+01 
       1.980444934528e+00       1.447931219978e+01 
       2.138435191726e+00       1.201200300671e+01 
       2.309029199186e+00       9.955585287446e+00 
       2.493232377687e+00       8.243544317593e+00 
       2.692130395285e+00       6.819530139704e+00 
       2.906895534573e+00       5.636340790127e+00 
       3.138793597714e+00       4.654071124692e+00 
       3.389191366484e+00       3.839287651331e+00 
       3.659564657905e+00       3.164007837347e+00 
       3.951507022538e+00       2.604795012524e+00 
       4.266739136701e+00       2.141990177283e+00 
       4.607118943941e+00       1.759176524360e+00 
       4.974652605557e+00       1.442763126495e+00 
       5.371506324689e+00       1.181319211338e+00 
       5.800019113685e+00       9.653701763500e-01 
       6.262716579983e+00       7.870437740559e-01 
       6.762325811764e+00       6.398038444937e-01 
       7.301791451110e+00       5.182320723112e-01 
       7.884293049406e+00       4.178413646659e-01 
       8.513263807261e+00       3.349361043734e-01 
       9.192410809424e+00       2.664643034392e-01 
       9.925736873929e+00       2.099238583906e-01 
       1.071756414427e+01       1.632744605590e-01 
       1.157255956364e+01       1.248606050145e-01 
       1.249576238137e+01       9.335055160817e-02 
       1.349261385375e+01       6.768773578337e-02 
       1.456898931416e+01       4.704365541930e-02 
       1.573123280165e+01       3.077622439527e-02 
       1.698619445202e+01       1.838488589343e-02 
       1.834127087176e+01       9.472475821807e-03 
       1.980444873285e+01       3.689512479579e-03 
       2.138435184532e+01       6.824602279992e-04 
       2.309029198506e+01       3.633097982584e-05 
       2.493232377636e+01       1.224863284111e-03 
       2.692130395282e+01       3.582976733179e-03 
       2.906895534573e+01       6.322575451631e-03 
       3.138793597714e+01       8.611864101670e-03 
       3.389191366484e+01       9.727218933572e-03 
       3.659564657905e+01       9.255690717203e-03 
       3.951507022538e+01       7.280776528073e-03 
       4.266739136701e+01       4.442896269553e-03 
       4.607118943941e+01       1.762966127204e-03 
       4.974652605557e+01       2.062474475964e-04 
       5.371506324689e+01       1.469256610893e-04 
       5.800019113685e+01       1.079747023653e-03 
       6.262716579983e+01       1.915299883018e-03 
       6.762325811764e+01       1.811645024293e-03 
