# Matter power spectrum P(k) at redshift z=0
# for k=1.04775e-05 to 67.6233 h/Mpc,
# number of wavenumbers equal to 246
#    1:k (h/Mpc)              2:P (Mpc/h)^3        
       1.047750691338e-05       5.020964806751e+01 
       1.131335172818e-05       5.407048206554e+01 
       1.221587619877e-05       5.822819063920e+01 
       1.319039970550e-05       6.270562589674e+01 
       1.424266598317e-05       6.752731788102e+01 
       1.537887697396e-05       7.271977200258e+01 
       1.660572938097e-05       7.831147241542e+01 
       1.793045413791e-05       8.433311815128e+01 
       1.936085902737e-05       9.081778242446e+01 
       2.090537469909e-05       9.780108061341e+01 
       2.257310435923e-05       1.053213197032e+02 
       2.437387742372e-05       1.134197377001e+02 
       2.631830745176e-05       1.221408202816e+02 
       2.841785470091e-05       1.315324720916e+02 
       3.068489367268e-05       1.416462093731e+02 
       3.313278604643e-05       1.525374500691e+02 
       3.577595943165e-05       1.642660687078e+02 
       3.862999240274e-05       1.768963504868e+02 
       4.171170631739e-05       1.904975992460e+02 
       4.503926445983e-05       2.051444490305e+02 
       4.863227909323e-05       2.209171463752e+02 
       5.251192705226e-05       2.379022222314e+02 
       5.670107455699e-05       2.561927925722e+02 
       6.122441198393e-05       2.758890441791e+02 
       6.610859938837e-05       2.970989225466e+02 
       7.138242363583e-05       3.199385558200e+02 
       7.707696806873e-05       3.445329780878e+02 
       8.322579570814e-05       3.710167315928e+02 
       8.986514707061e-05       3.995346440954e+02 
       9.703415376577e-05       4.302425403884e+02 
       1.047750691338e-04       4.633080762974e+02 
       1.131335172818e-04       4.989116267507e+02 
       1.221587619877e-04       5.372471946561e+02 
       1.319039970550e-04       5.785234124632e+02 
       1.424266598317e-04       6.229645930980e+02 
       1.537887697396e-04       6.708118484951e+02 
       1.660572938097e-04       7.223242660220e+02 
       1.793045413791e-04       7.777801552732e+02 
       1.936085902737e-04       8.374783607333e+02 
       2.090537469909e-04       9.017396264495e+02 
       2.257310435923e-04       9.709080260151e+02 
       2.437387742372e-04       1.045352448644e+03 
       2.631830745176e-04       1.125468122835e+03 
       2.841785470091e-04       1.211678179510e+03 
       3.068489367268e-04       1.304435249091e+03 
       3.313278604643e-04       1.404223052541e+03 
       3.577595943165e-04       1.511558013390e+03 
       3.862999240274e-04       1.626990836464e+03 
       4.171170631739e-04       1.751108027371e+03 
       4.503926445983e-04       1.884533381345e+03 
       4.863227909323e-04       2.027929376471e+03 
       5.251192705226e-04       2.181998446367e+03 
       5.670107455699e-04       2.347484100856e+03 
       6.122441198393e-04       2.525171869335e+03 
       6.610859938837e-04       2.715889981399e+03 
       7.138242363583e-04       2.920509686082e+03 
       7.707696806873e-04       3.139945097708e+03 
       8.322579570814e-04       3.375152334393e+03 
       8.986514707061e-04       3.627127828227e+03 
       9.703415376577e-04       3.896905450011e+03 
       1.047750691338e-03       4.185552170952e+03 
       1.131335172818e-03       4.494162426784e+03 
       1.221587619877e-03       4.823850702660e+03 
       1.319039970550e-03       5.175742739517e+03 
       1.424266598317e-03       5.551019592501e+03 
       1.537887697396e-03       5.950788335866e+03 
       1.660572938097e-03       6.376123046793e+03 
       1.793045413791e-03       6.828073896080e+03 
       1.936085902737e-03       7.307625375348e+03 
       2.090537469909e-03       7.815671859365e+03 
       2.257310435923e-03       8.352990369335e+03 
       2.437387742372e-03       8.920211057468e+03 
       2.631830745176e-03       9.517783061789e+03 
       2.841785470091e-03       1.014593703658e+04 
       3.068489367268e-03       1.080464505720e+04 
       3.313278604643e-03       1.149357459459e+04 
       3.577595943165e-03       1.221203620800e+04 
       3.862999240274e-03       1.295892538473e+04 
       4.171170631739e-03       1.373266002173e+04 
       4.503926445983e-03       1.453111834544e+04 
       4.863227909323e-03       1.535154982385e+04 
       5.251192705226e-03       1.619063602528e+04 
       5.670107455699e-03       1.704431256009e+04 
       6.122441198393e-03       1.790755944773e+04 
       6.610859938837e-03       1.877460425635e+04 
       7.138242363583e-03       1.963872449655e+04 
       7.707696806873e-03       2.049215712586e+04 
       8.322579570814e-03       2.132610892622e+04 
       8.986514707061e-03       2.213055021180e+04 
       9.703415376577e-03       2.289445547148e+04 
       1.047750691338e-02       2.360548621804e+04 
       1.131335172818e-02       2.425022948641e+04 
       1.221587619877e-02       2.481423936616e+04 
       1.319039970550e-02       2.528219084537e+04 
       1.424266598317e-02       2.563815483185e+04 
       1.537887697392e-02       2.586607510978e+04 
       1.660572938023e-02       2.595027621718e+04 
       1.793045412706e-02       2.587635918877e+04 
       1.936085890181e-02       2.563217814173e+04 
       2.090537352463e-02       2.520932666024e+04 
       2.257309535333e-02       2.460451611621e+04 
       2.437382002918e-02       2.382096531538e+04 
       2.631799944462e-02       2.287037591651e+04 
       2.841644545389e-02       2.177448052509e+04 
       3.067933355377e-02       2.056554698114e+04 
       3.311368470740e-02       1.928727519364e+04 
       3.571840443502e-02       1.799405651827e+04 
       3.847720348444e-02       1.674675114651e+04 
       4.135335538431e-02       1.560453578018e+04 
       4.429361667738e-02       1.461033285337e+04 
       4.724366439141e-02       1.378050839137e+04 
       5.016480835311e-02       1.310497457384e+04 
       5.303989620246e-02       1.255718424073e+04 
       5.586870669566e-02       1.210422228246e+04 
       5.866042680613e-02       1.171469598683e+04 
       6.142798932958e-02       1.136047347972e+04 
       6.418496440164e-02       1.101861066636e+04 
       6.694418833788e-02       1.067067096507e+04 
       6.971731106057e-02       1.030354045123e+04 
       7.251476155766e-02       9.909066612078e+03 
       7.534587671527e-02       9.483692856776e+03 
       7.821907666265e-02       9.029403702953e+03 
       8.114203772912e-02       8.552195992535e+03 
       8.412184535029e-02       8.061940259501e+03 
       8.716512279304e-02       7.570793599951e+03 
       9.027813695930e-02       7.092499553248e+03 
       9.346688431697e-02       6.640524222798e+03 
       9.673716028276e-02       6.226742572009e+03 
       1.000946150830e-01       5.859939527988e+03 
       1.035447986537e-01       5.545298330370e+03 
       1.070931966762e-01       5.283160781791e+03 
       1.107452594425e-01       5.069441813787e+03 
       1.145064249153e-01       4.895248605600e+03 
       1.183821370918e-01       4.747849564895e+03 
       1.223778605862e-01       4.611721022675e+03 
       1.264990921987e-01       4.470614929468e+03 
       1.307513701367e-01       4.310168067575e+03 
       1.351402814784e-01       4.121399649331e+03 
       1.396714684203e-01       3.902046223276e+03 
       1.443506338194e-01       3.658657728728e+03 
       1.491835465229e-01       3.404478144168e+03 
       1.541760469708e-01       3.156645538956e+03 
       1.593340535561e-01       2.931934814314e+03 
       1.646635702297e-01       2.742360114086e+03 
       1.701706958456e-01       2.592232454809e+03 
       1.758616357459e-01       2.477214257702e+03 
       1.817427160982e-01       2.385165137562e+03 
       1.878204015065e-01       2.300350075613e+03 
       1.941013164283e-01       2.205779494503e+03 
       2.005922709503e-01       2.090840693526e+03 
       2.073002914972e-01       1.956461950418e+03 
       2.142326570816e-01       1.814175441728e+03 
       2.213969417533e-01       1.679276898083e+03 
       2.288010639706e-01       1.563846648470e+03 
       2.364533437147e-01       1.472669898396e+03 
       2.443625682930e-01       1.401512312783e+03 
       2.525380679504e-01       1.338420906674e+03 
       2.609898026346e-01       1.270896784207e+03 
       2.697284615565e-01       1.193357971154e+03 
       2.787655775689e-01       1.109328841278e+03 
       2.881136588829e-01       1.028762525588e+03 
       2.977863412677e-01       9.604767708939e+02 
       3.077985646929e-01       9.050176924920e+02 
       3.181667794071e-01       8.561359100198e+02 
       3.289091877812e-01       8.061789730338e+02 
       3.400460299658e-01       7.523812516936e+02 
       3.515999236474e-01       6.989151640130e+02 
       3.635962711085e-01       6.510586570527e+02 
       3.760637506334e-01       6.101206028433e+02 
       3.890349143879e-01       5.721273380142e+02 
       4.025469216825e-01       5.337760688040e+02 
       4.166424456376e-01       4.956232126100e+02 
       4.313708035863e-01       4.604643226563e+02 
       4.467893782977e-01       4.287693245103e+02 
       4.629654199664e-01       3.987673181959e+02 
       4.799783501994e-01       3.692353170405e+02 
       4.979227319373e-01       3.412353913845e+02 
       5.169121270864e-01       3.154780040694e+02 
       5.370841404489e-01       2.908308747678e+02 
       5.586070464571e-01       2.671011592378e+02 
       5.816885094930e-01       2.448038175946e+02 
       6.065870144995e-01       2.235648638003e+02 
       6.336266468475e-01       2.032082827371e+02 
       6.632156059511e-01       1.838768525554e+02 
       6.958678639263e-01       1.653526202413e+02 
       7.322247985589e-01       1.476933211664e+02 
       7.730680195114e-01       1.308326681465e+02 
       8.193049553677e-01       1.148300016504e+02 
       8.718988016039e-01       9.976138364254e+01 
       9.317218031082e-01       8.577667857226e+01 
       9.993660908989e-01       7.305316582078e+01 
       1.075037110174e+00       6.173417744975e+01 
       1.158653485707e+00       5.187762996016e+01 
       1.250099157308e+00       4.343866083676e+01 
       1.349432401273e+00       3.628739352184e+01 
       1.456947457397e+00       3.026650316837e+01 
       1.573135111331e+00       2.521300768255e+01 
       1.698621895592e+00       2.098053717109e+01 
       1.834127512934e+00       1.744094751059e+01 
       1.980444934528e+00       1.448421527389e+01 
       2.138435191726e+00       1.201752187940e+01 
       2.309029199186e+00       9.961791520441e+00 
       2.493232377687e+00       8.250430444694e+00 
       2.692130395285e+00       6.827213472084e+00 
       2.906895534573e+00       5.644909820063e+00 
       3.138793597714e+00       4.663518186618e+00 
       3.389191366484e+00       3.849788872571e+00 
       3.659564657905e+00       3.175663639372e+00 
       3.951507022538e+00       2.617598370441e+00 
       4.266739136701e+00       2.156086402387e+00 
       4.607118943941e+00       1.774685669306e+00 
       4.974652605557e+00       1.459775572774e+00 
       5.371506324689e+00       1.199928338735e+00 
       5.800019113685e+00       9.857009513660e-01 
       6.262716579983e+00       8.091972190958e-01 
       6.762325811764e+00       6.638752019405e-01 
       7.301791451110e+00       5.443163486990e-01 
       7.884293049406e+00       4.460081571019e-01 
       8.513263807261e+00       3.652348807148e-01 
       9.192410809424e+00       2.988996509813e-01 
       9.925736873929e+00       2.444658225657e-01 
       1.071756414427e+01       1.998165291098e-01 
       1.157255956364e+01       1.632180179791e-01 
       1.249576238137e+01       1.332335931080e-01 
       1.349261385375e+01       1.086842563563e-01 
       1.456898931416e+01       8.859479301210e-02 
       1.573123280165e+01       7.216402036812e-02 
       1.698619445202e+01       5.873366816966e-02 
       1.834127087176e+01       4.776124422756e-02 
       1.980444873285e+01       3.880176675601e-02 
       2.138435184532e+01       3.149001971843e-02 
       2.309029198506e+01       2.552688202778e-02 
       2.493232377636e+01       2.066653991132e-02 
       2.692130395282e+01       1.670706229011e-02 
       2.906895534573e+01       1.348377540019e-02 
       3.138793597714e+01       1.086177013430e-02 
       3.389191366484e+01       8.730538889729e-03 
       3.659564657905e+01       6.999727604569e-03 
       3.951507022538e+01       5.595614361456e-03 
       4.266739136701e+01       4.457748572412e-03 
       4.607118943941e+01       3.536807483517e-03 
       4.974652605557e+01       2.792817054874e-03 
       5.371506324689e+01       2.192865626798e-03 
       5.800019113685e+01       1.710230401281e-03 
       6.262716579983e+01       1.323147076180e-03 
       6.762325811764e+01       1.013916372635e-03 
