# Matter power spectrum P(k) at redshift z=99
# for k=1.04775e-05 to 67.6233 h/Mpc,
# number of wavenumbers equal to 246
#    1:k (h/Mpc)              2:P (Mpc/h)^3        
       1.047750691338e-05       7.261927673124e-03 
       1.131335172818e-05       7.820331745742e-03 
       1.221587619877e-05       8.421675986494e-03 
       1.319039970550e-05       9.069258192200e-03 
       1.424266598317e-05       9.766638404427e-03 
       1.537887697396e-05       1.051764069682e-02 
       1.660572938097e-05       1.132639105520e-02 
       1.793045413791e-05       1.219733231417e-02 
       1.936085902737e-05       1.313524224381e-02 
       2.090537469909e-05       1.414527121894e-02 
       2.257310435923e-05       1.523296272193e-02 
       2.437387742372e-05       1.640429444531e-02 
       2.631830745176e-05       1.766569582179e-02 
       2.841785470091e-05       1.902408601794e-02 
       3.068489367268e-05       2.048692970593e-02 
       3.313278604643e-05       2.206225513595e-02 
       3.577595943165e-05       2.375870704910e-02 
       3.862999240274e-05       2.558560727480e-02 
       4.171170631739e-05       2.755297763346e-02 
       4.503926445983e-05       2.967161927317e-02 
       4.863227909323e-05       3.195316450834e-02 
       5.251192705226e-05       3.441013519286e-02 
       5.670107455699e-05       3.705601722529e-02 
       6.122441198393e-05       3.990533413564e-02 
       6.610859938837e-05       4.297372168206e-02 
       7.138242363583e-05       4.627802141691e-02 
       7.707696806873e-05       4.983636194162e-02 
       8.322579570814e-05       5.366826847235e-02 
       8.986514707061e-05       5.779476394572e-02 
       9.703415376577e-05       6.223848243889e-02 
       1.047750691338e-04       6.702379865644e-02 
       1.131335172818e-04       7.217695153385e-02 
       1.221587619877e-04       7.772619073579e-02 
       1.319039970550e-04       8.370193432382e-02 
       1.424266598317e-04       9.013692507552e-02 
       1.537887697396e-04       9.706641242576e-02 
       1.660572938097e-04       1.045283354272e-01 
       1.793045413791e-04       1.125635349069e-01 
       1.936085902737e-04       1.212159614969e-01 
       2.090537469909e-04       1.305329132715e-01 
       2.257310435923e-04       1.405652846216e-01 
       2.437387742372e-04       1.513678302541e-01 
       2.631830745176e-04       1.629994504872e-01 
       2.841785470091e-04       1.755234921225e-01 
       3.068489367268e-04       1.890080670414e-01 
       3.313278604643e-04       2.035264002437e-01 
       3.577595943165e-04       2.191571803682e-01 
       3.862999240274e-04       2.359849437596e-01 
       4.171170631739e-04       2.541004741541e-01 
       4.503926445983e-04       2.736012080279e-01 
       4.863227909323e-04       2.945916790967e-01 
       5.251192705226e-04       3.171839525184e-01 
       5.670107455699e-04       3.414980764004e-01 
       6.122441198393e-04       3.676625413102e-01 
       6.610859938837e-04       3.958147252306e-01 
       7.138242363583e-04       4.261013284917e-01 
       7.707696806873e-04       4.586787792354e-01 
       8.322579570814e-04       4.937136001369e-01 
       8.986514707061e-04       5.313826801404e-01 
       9.703415376577e-04       5.718734972160e-01 
       1.047750691338e-03       6.153841629508e-01 
       1.131335172818e-03       6.621233239468e-01 
       1.221587619877e-03       7.123098220429e-01 
       1.319039970550e-03       7.661720584482e-01 
       1.424266598317e-03       8.239546297730e-01 
       1.537887697396e-03       8.859011173466e-01 
       1.660572938097e-03       9.522588006412e-01 
       1.793045413791e-03       1.023280099819e+00 
       1.936085902737e-03       1.099216304578e+00 
       2.090537469909e-03       1.180312990453e+00 
       2.257310435923e-03       1.266804115849e+00 
       2.437387742372e-03       1.358904853405e+00 
       2.631830745176e-03       1.456802683154e+00 
       2.841785470091e-03       1.560646890518e+00 
       3.068489367268e-03       1.670536062495e+00 
       3.313278604643e-03       1.786503852149e+00 
       3.577595943165e-03       1.908502930780e+00 
       3.862999240274e-03       2.036387730699e+00 
       4.171170631739e-03       2.169896178787e+00 
       4.503926445983e-03       2.308631878977e+00 
       4.863227909323e-03       2.452047290941e+00 
       5.251192705226e-03       2.599430628061e+00 
       5.670107455699e-03       2.749896931749e+00 
       6.122441198393e-03       2.902386513341e+00 
       6.610859938837e-03       3.055668713458e+00 
       7.138242363583e-03       3.208356461481e+00 
       7.707696806873e-03       3.358923892764e+00 
       8.322579570814e-03       3.505725595087e+00 
       8.986514707061e-03       3.647010074285e+00 
       9.703415376577e-03       3.780923304149e+00 
       1.047750691338e-02       3.905491022787e+00 
       1.131335172818e-02       4.018588050558e+00 
       1.221587619877e-02       4.117901584832e+00 
       1.319039970550e-02       4.200915381480e+00 
       1.424266598317e-02       4.264942464399e+00 
       1.537887697392e-02       4.307218783380e+00 
       1.660572938023e-02       4.325062487888e+00 
       1.793045412706e-02       4.316059345578e+00 
       1.936085890181e-02       4.278223295805e+00 
       2.090537352463e-02       4.210208586554e+00 
       2.257309535333e-02       4.111417887658e+00 
       2.437382002918e-02       3.982424728517e+00 
       2.631799944462e-02       3.825164227278e+00 
       2.841644545389e-02       3.643282322778e+00 
       3.067933355377e-02       3.442195616545e+00 
       3.311368470740e-02       3.229239910968e+00 
       3.571840443502e-02       3.013511381380e+00 
       3.847720348444e-02       2.805281756512e+00 
       4.135335538431e-02       2.614406797351e+00 
       4.429361667738e-02       2.448130821017e+00 
       4.724366439141e-02       2.309238666254e+00 
       5.016480835311e-02       2.196115610723e+00 
       5.303989620246e-02       2.104363866502e+00 
       5.586870669566e-02       2.028462940726e+00 
       5.866042680613e-02       1.963154192926e+00 
       6.142798932958e-02       1.903777912503e+00 
       6.418496440164e-02       1.846476069690e+00 
       6.694418833788e-02       1.788194139764e+00 
       6.971731106057e-02       1.726713554925e+00 
       7.251476155766e-02       1.660655461025e+00 
       7.534587671527e-02       1.589472488903e+00 
       7.821907666265e-02       1.513438790864e+00 
       8.114203772912e-02       1.433567019686e+00 
       8.412184535029e-02       1.351489447206e+00 
       8.716512279304e-02       1.269274087003e+00 
       9.027813695930e-02       1.189194257570e+00 
       9.346688431697e-02       1.113502055733e+00 
       9.673716028276e-02       1.044175596214e+00 
       1.000946150830e-01       9.827055345789e-01 
       1.035447986537e-01       9.299360691493e-01 
       1.070931966762e-01       8.859588725433e-01 
       1.107452594425e-01       8.500690387807e-01 
       1.145064249153e-01       8.208043594546e-01 
       1.183821370918e-01       7.960244570745e-01 
       1.223778605862e-01       7.731469029163e-01 
       1.264990921987e-01       7.494521924524e-01 
       1.307513701367e-01       7.225582237693e-01 
       1.351402814784e-01       6.909086926807e-01 
       1.396714684203e-01       6.541807849239e-01 
       1.443506338194e-01       6.134269165562e-01 
       1.491835465229e-01       5.708691884695e-01 
       1.541760469708e-01       5.293646283854e-01 
       1.593340535561e-01       4.917106134856e-01 
       1.646635702297e-01       4.599199656845e-01 
       1.701706958456e-01       4.347282612613e-01 
       1.758616357459e-01       4.154083843221e-01 
       1.817427160982e-01       3.999362837669e-01 
       1.878204015065e-01       3.856856938683e-01 
       1.941013164283e-01       3.698122519593e-01 
       2.005922709503e-01       3.505485824637e-01 
       2.073002914972e-01       3.280458112624e-01 
       2.142326570816e-01       3.042135609656e-01 
       2.213969417533e-01       2.816109007626e-01 
       2.288010639706e-01       2.622565525661e-01 
       2.364533437147e-01       2.469621024454e-01 
       2.443625682930e-01       2.350129351122e-01 
       2.525380679504e-01       2.244207426516e-01 
       2.609898026346e-01       2.130965570588e-01 
       2.697284615565e-01       2.001023673158e-01 
       2.787655775689e-01       1.860198287674e-01 
       2.881136588829e-01       1.725171470793e-01 
       2.977863412677e-01       1.610661545063e-01 
       3.077985646929e-01       1.517607672544e-01 
       3.181667794071e-01       1.435593668606e-01 
       3.289091877812e-01       1.351817165542e-01 
       3.400460299658e-01       1.261642195504e-01 
       3.515999236474e-01       1.172016095029e-01 
       3.635962711085e-01       1.091767832977e-01 
       3.760637506334e-01       1.023090147755e-01 
       3.890349143879e-01       9.593748051600e-02 
       4.025469216825e-01       8.950763651427e-02 
       4.166424456376e-01       8.311164426031e-02 
       4.313708035863e-01       7.721525958401e-02 
       4.467893782977e-01       7.190022645495e-02 
       4.629654199664e-01       6.686891235529e-02 
       4.799783501994e-01       6.191733064120e-02 
       4.979227319373e-01       5.722209459418e-02 
       5.169121270864e-01       5.290274240421e-02 
       5.370841404489e-01       4.876962768912e-02 
       5.586070464571e-01       4.479083825946e-02 
       5.816885094930e-01       4.105181161927e-02 
       6.065870144995e-01       3.748983400630e-02 
       6.336266468475e-01       3.407624580796e-02 
       6.632156059511e-01       3.083449580139e-02 
       6.958678639263e-01       2.772830313612e-02 
       7.322247985589e-01       2.476699274042e-02 
       7.730680195114e-01       2.193947278831e-02 
       8.193049553677e-01       1.925601228640e-02 
       8.718988016039e-01       1.672919509329e-02 
       9.317218031082e-01       1.438405598790e-02 
       9.993660908989e-01       1.225053433101e-02 
       1.075037110174e+00       1.035246021535e-02 
       1.158653485707e+00       8.699581477925e-03 
       1.250099157308e+00       7.284438696361e-03 
       1.349432401273e+00       6.085282204478e-03 
       1.456947457397e+00       5.075551186082e-03 
       1.573135111331e+00       4.228115212654e-03 
       1.698621895592e+00       3.518343059464e-03 
       1.834127512934e+00       2.924766175850e-03 
       1.980444934528e+00       2.428934484346e-03 
       2.138435191726e+00       2.015262644938e-03 
       2.309029199186e+00       1.670504267940e-03 
       2.493232377687e+00       1.383506899542e-03 
       2.692130395285e+00       1.144821760168e-03 
       2.906895534573e+00       9.465171954892e-04 
       3.138793597714e+00       7.819209146218e-04 
       3.389191366484e+00       6.454327190484e-04 
       3.659564657905e+00       5.323394763798e-04 
       3.951507022538e+00       4.387198457603e-04 
       4.266739136701e+00       3.612841157857e-04 
       4.607118943941e+00       2.972773696795e-04 
       4.974652605557e+00       2.444168567282e-04 
       5.371506324689e+00       2.007903405123e-04 
       5.800019113685e+00       1.648049679920e-04 
       6.262716579983e+00       1.351417650524e-04 
       6.762325811764e+00       1.107039864122e-04 
       7.301791451110e+00       9.057972552384e-05 
       7.884293049406e+00       7.401533082999e-05 
       8.513263807261e+00       6.038468136979e-05 
       9.192410809424e+00       4.917172770979e-05 
       9.925736873929e+00       3.994790448898e-05 
       1.071756414427e+01       3.236069853016e-05 
       1.157255956364e+01       2.611936733058e-05 
       1.249576238137e+01       2.098410676410e-05 
       1.349261385375e+01       1.675823579087e-05 
       1.456898931416e+01       1.328036559040e-05 
       1.573123280165e+01       1.041850889948e-05 
       1.698619445202e+01       8.065896561307e-06 
       1.834127087176e+01       6.135713181516e-06 
       1.980444873285e+01       4.558938915022e-06 
       2.138435184532e+01       3.280671602058e-06 
       2.309029198506e+01       2.257951923813e-06 
       2.493232377636e+01       1.457631432346e-06 
       2.692130395282e+01       8.538596449300e-07 
       2.906895534573e+01       4.257431424714e-07 
       3.138793597714e+01       1.548698632643e-07 
       3.389191366484e+01       2.231165038379e-08 
       3.659564657905e+01       5.821062544955e-09 
       3.951507022538e+01       7.741264678626e-08 
       4.266739136701e+01       2.022163305556e-07 
       4.607118943941e+01       3.397274572346e-07 
       4.974652605557e+01       4.482946445916e-07 
       5.371506324689e+01       4.932640343775e-07 
       5.800019113685e+01       4.572232133098e-07 
       6.262716579983e+01       3.486825340627e-07 
       6.762325811764e+01       2.035196706509e-07 
