# Matter power spectrum P(k) at redshift z=0
# for k=1.04775e-05 to 67.6233 h/Mpc,
# number of wavenumbers equal to 246
#    1:k (h/Mpc)              2:P (Mpc/h)^3        
       1.047750691338e-05       5.020964806750e+01 
       1.131335172818e-05       5.407048206553e+01 
       1.221587619877e-05       5.822819063839e+01 
       1.319039970550e-05       6.270562589683e+01 
       1.424266598317e-05       6.752731788102e+01 
       1.537887697396e-05       7.271977200258e+01 
       1.660572938097e-05       7.831147241541e+01 
       1.793045413791e-05       8.433311815128e+01 
       1.936085902737e-05       9.081778242446e+01 
       2.090537469909e-05       9.780108061339e+01 
       2.257310435923e-05       1.053213197032e+02 
       2.437387742372e-05       1.134197377001e+02 
       2.631830745176e-05       1.221408202816e+02 
       2.841785470091e-05       1.315324720916e+02 
       3.068489367268e-05       1.416462093732e+02 
       3.313278604643e-05       1.525374500691e+02 
       3.577595943165e-05       1.642660687078e+02 
       3.862999240274e-05       1.768963504868e+02 
       4.171170631739e-05       1.904975992460e+02 
       4.503926445983e-05       2.051444490305e+02 
       4.863227909323e-05       2.209171463752e+02 
       5.251192705226e-05       2.379022222314e+02 
       5.670107455699e-05       2.561927926178e+02 
       6.122441198393e-05       2.758890441791e+02 
       6.610859938837e-05       2.970989225465e+02 
       7.138242363583e-05       3.199385558200e+02 
       7.707696806873e-05       3.445329780878e+02 
       8.322579570814e-05       3.710167315928e+02 
       8.986514707061e-05       3.995346440954e+02 
       9.703415376577e-05       4.302425403884e+02 
       1.047750691338e-04       4.633080762974e+02 
       1.131335172818e-04       4.989116267507e+02 
       1.221587619877e-04       5.372471946560e+02 
       1.319039970550e-04       5.785234124629e+02 
       1.424266598317e-04       6.229645930980e+02 
       1.537887697396e-04       6.708118484951e+02 
       1.660572938097e-04       7.223242660219e+02 
       1.793045413791e-04       7.777801554298e+02 
       1.936085902737e-04       8.374783607332e+02 
       2.090537469909e-04       9.017396264494e+02 
       2.257310435923e-04       9.709080260151e+02 
       2.437387742372e-04       1.045352448644e+03 
       2.631830745176e-04       1.125468122836e+03 
       2.841785470091e-04       1.211678179510e+03 
       3.068489367268e-04       1.304435249091e+03 
       3.313278604643e-04       1.404223052541e+03 
       3.577595943165e-04       1.511558013389e+03 
       3.862999240274e-04       1.626990836416e+03 
       4.171170631739e-04       1.751108027370e+03 
       4.503926445983e-04       1.884533381344e+03 
       4.863227909323e-04       2.027929376468e+03 
       5.251192705226e-04       2.181998446366e+03 
       5.670107455699e-04       2.347484100855e+03 
       6.122441198393e-04       2.525171869333e+03 
       6.610859938837e-04       2.715889981397e+03 
       7.138242363583e-04       2.920509686085e+03 
       7.707696806873e-04       3.139945097706e+03 
       8.322579570814e-04       3.375152334389e+03 
       8.986514707061e-04       3.627127828223e+03 
       9.703415376577e-04       3.896905450006e+03 
       1.047750691338e-03       4.185552170971e+03 
       1.131335172818e-03       4.494162426775e+03 
       1.221587619877e-03       4.823850702642e+03 
       1.319039970550e-03       5.175742737690e+03 
       1.424266598317e-03       5.551019592480e+03 
       1.537887697396e-03       5.950788335836e+03 
       1.660572938097e-03       6.376123046688e+03 
       1.793045413791e-03       6.828073896048e+03 
       1.936085902737e-03       7.307625375299e+03 
       2.090537469909e-03       7.815671856636e+03 
       2.257310435923e-03       8.352990369245e+03 
       2.437387742372e-03       8.920211057337e+03 
       2.631830745176e-03       9.517783061657e+03 
       2.841785470091e-03       1.014593703642e+04 
       3.068489367268e-03       1.080464505707e+04 
       3.313278604643e-03       1.149357459392e+04 
       3.577595943165e-03       1.221203620767e+04 
       3.862999240274e-03       1.295892538430e+04 
       4.171170631739e-03       1.373266000282e+04 
       4.503926445983e-03       1.453111834477e+04 
       4.863227909323e-03       1.535154979977e+04 
       5.251192705226e-03       1.619063588241e+04 
       5.670107455699e-03       1.704431255191e+04 
       6.122441198393e-03       1.790755952974e+04 
       6.610859938837e-03       1.877460430699e+04 
       7.138242363583e-03       1.963872475504e+04 
       7.707696806873e-03       2.049215710498e+04 
       8.322579570814e-03       2.132611382239e+04 
       8.986514707061e-03       2.213055325240e+04 
       9.703415376577e-03       2.289445624468e+04 
       1.047750691338e-02       2.360548066203e+04 
       1.131335172818e-02       2.425022998515e+04 
       1.221587619877e-02       2.481423896739e+04 
       1.319039970550e-02       2.528219505031e+04 
       1.424266598317e-02       2.563815739707e+04 
       1.537887697392e-02       2.586608222023e+04 
       1.660572938023e-02       2.595034157433e+04 
       1.793045412706e-02       2.587640647600e+04 
       1.936085890181e-02       2.563227347579e+04 
       2.090537352463e-02       2.520939067722e+04 
       2.257309535333e-02       2.460446948938e+04 
       2.437382002918e-02       2.382084962211e+04 
       2.631799944462e-02       2.287040147489e+04 
       2.841644545389e-02       2.177443651495e+04 
       3.067933355377e-02       2.056554564173e+04 
       3.311368470740e-02       1.928721912345e+04 
       3.571840443502e-02       1.799401977388e+04 
       3.847720348444e-02       1.674678335270e+04 
       4.135335538431e-02       1.560458178634e+04 
       4.429361667738e-02       1.461038410134e+04 
       4.724366439141e-02       1.378047661613e+04 
       5.016480835311e-02       1.310504285214e+04 
       5.303989620246e-02       1.255709499605e+04 
       5.586870669566e-02       1.210424781563e+04 
       5.866042680613e-02       1.171466616086e+04 
       6.142798932958e-02       1.136051530183e+04 
       6.418496440164e-02       1.101862895105e+04 
       6.694418833788e-02       1.067062985776e+04 
       6.971731106057e-02       1.030340854635e+04 
       7.251476155766e-02       9.909054374708e+03 
       7.534587671527e-02       9.483672243956e+03 
       7.821907666265e-02       9.029340745157e+03 
       8.114203772912e-02       8.552147344200e+03 
       8.412184535029e-02       8.061954866882e+03 
       8.716512279304e-02       7.570779465068e+03 
       9.027813695930e-02       7.092483824090e+03 
       9.346688431697e-02       6.640515346777e+03 
       9.673716028276e-02       6.226719963788e+03 
       1.000946150830e-01       5.859952471832e+03 
       1.035447986537e-01       5.545242460492e+03 
       1.070931966762e-01       5.283151283087e+03 
       1.107452594425e-01       5.069422259371e+03 
       1.145064249153e-01       4.895268370858e+03 
       1.183821370918e-01       4.747851023941e+03 
       1.223778605862e-01       4.611732736146e+03 
       1.264990921987e-01       4.470609924186e+03 
       1.307513701367e-01       4.310284410543e+03 
       1.351402814784e-01       4.121392332741e+03 
       1.396714684203e-01       3.902053205197e+03 
       1.443506338194e-01       3.658658447756e+03 
       1.491835465229e-01       3.404468220416e+03 
       1.541760469708e-01       3.156644612271e+03 
       1.593340535561e-01       2.931922834198e+03 
       1.646635702297e-01       2.742354549001e+03 
       1.701706958456e-01       2.592234499792e+03 
       1.758616357459e-01       2.477216992746e+03 
       1.817427160982e-01       2.385163638040e+03 
       1.878204015065e-01       2.300349125861e+03 
       1.941013164283e-01       2.205770956039e+03 
       2.005922709503e-01       2.090841146530e+03 
       2.073002914972e-01       1.956465317101e+03 
       2.142326570816e-01       1.814175811154e+03 
       2.213969417533e-01       1.679271020036e+03 
       2.288010639706e-01       1.563848579166e+03 
       2.364533437147e-01       1.472670005202e+03 
       2.443625682930e-01       1.401512202888e+03 
       2.525380679504e-01       1.338420060581e+03 
       2.609898026346e-01       1.270897378218e+03 
       2.697284615565e-01       1.193358749762e+03 
       2.787655775689e-01       1.109330764500e+03 
       2.881136588829e-01       1.028760169031e+03 
       2.977863412677e-01       9.604730401032e+02 
       3.077985646929e-01       9.050139843116e+02 
       3.181667794071e-01       8.561360795553e+02 
       3.289091877812e-01       8.061782146363e+02 
       3.400460299658e-01       7.523811155687e+02 
       3.515999236474e-01       6.989116256552e+02 
       3.635962711085e-01       6.510573159364e+02 
       3.760637506334e-01       6.101172316249e+02 
       3.890349143879e-01       5.721245114718e+02 
       4.025469216825e-01       5.337734942641e+02 
       4.166424456376e-01       4.956203782842e+02 
       4.313708035863e-01       4.604621175679e+02 
       4.467893782977e-01       4.287688764844e+02 
       4.629654199664e-01       3.987665705692e+02 
       4.799783501994e-01       3.692328520275e+02 
       4.979227319373e-01       3.412339645516e+02 
       5.169121270864e-01       3.154756907898e+02 
       5.370841404489e-01       2.908294589341e+02 
       5.586070464571e-01       2.670996126220e+02 
       5.816885094930e-01       2.448032872860e+02 
       6.065870144995e-01       2.235633504571e+02 
       6.336266468475e-01       2.032062422925e+02 
       6.632156059511e-01       1.838753585004e+02 
       6.958678639263e-01       1.653504997580e+02 
       7.322247985589e-01       1.476919496746e+02 
       7.730680195114e-01       1.308302552572e+02 
       8.193049553677e-01       1.148277724745e+02 
       8.718988016039e-01       9.975941753157e+01 
       9.317218031082e-01       8.577427023678e+01 
       9.993660908989e-01       7.305127312141e+01 
       1.075037110174e+00       6.173265622544e+01 
       1.158653485707e+00       5.187585033342e+01 
       1.250099157308e+00       4.343685270292e+01 
       1.349432401273e+00       3.628598457346e+01 
       1.456947457397e+00       3.026486337134e+01 
       1.573135111331e+00       2.521125749156e+01 
       1.698621895592e+00       2.097878220161e+01 
       1.834127512934e+00       1.743918638534e+01 
       1.980444934528e+00       1.448247545267e+01 
       2.138435191726e+00       1.201574017175e+01 
       2.309029199186e+00       9.960031729883e+00 
       2.493232377687e+00       8.248704715038e+00 
       2.692130395285e+00       6.825421084566e+00 
       2.906895534573e+00       5.643154385330e+00 
       3.138793597714e+00       4.661792336210e+00 
       3.389191366484e+00       3.848096056927e+00 
       3.659564657905e+00       3.173950158497e+00 
       3.951507022538e+00       2.615911118036e+00 
       4.266739136701e+00       2.154446802399e+00 
       4.607118943941e+00       1.773064672712e+00 
       4.974652605557e+00       1.458184161309e+00 
       5.371506324689e+00       1.198357667392e+00 
       5.800019113685e+00       9.841593353488e-01 
       6.262716579983e+00       8.076840748970e-01 
       6.762325811764e+00       6.623915455544e-01 
       7.301791451110e+00       5.428622574892e-01 
       7.884293049406e+00       4.445856975826e-01 
       8.513263807261e+00       3.638408898281e-01 
       9.192410809424e+00       2.975396241985e-01 
       9.925736873929e+00       2.431335604920e-01 
       1.071756414427e+01       1.985161596288e-01 
       1.157255956364e+01       1.619513210246e-01 
       1.249576238137e+01       1.319998645262e-01 
       1.349261385375e+01       1.074833325056e-01 
       1.456898931416e+01       8.742703309102e-02 
       1.573123280165e+01       7.102969758314e-02 
       1.698619445202e+01       5.763256625752e-02 
       1.834127087176e+01       4.669329728341e-02 
       1.980444873285e+01       3.776753892481e-02 
       2.138435184532e+01       3.049009084351e-02 
       2.309029198506e+01       2.456096262939e-02 
       2.493232377636e+01       1.973483229400e-02 
       2.692130395282e+01       1.581030210488e-02 
       2.906895534573e+01       1.262232134809e-02 
       3.138793597714e+01       1.003623495530e-02 
       3.389191366484e+01       7.941641837873e-03 
       3.659564657905e+01       6.248275309930e-03 
       3.951507022538e+01       4.882543154855e-03 
       4.266739136701e+01       3.784093248356e-03 
       4.607118943941e+01       2.904017444789e-03 
       4.974652605557e+01       2.202137716178e-03 
       5.371506324689e+01       1.645764210876e-03 
       5.800019113685e+01       1.208261060435e-03 
       6.262716579983e+01       8.677887234318e-04 
       6.762325811764e+01       6.064537761824e-04 
